 LCModel (Version 6.3-1R) Copyright: S.W. Provencher.          Ref.: Magn. Reson. Med. 30:672-679 (1993).                
 onepulse 24x12_ftSpec_smooth_lcm
 26 lines in following concentration table = NCONC+1
    Conc.  %SD /Cr+PCr  Metabolite                                         
 6.72E-10  55%   1.248 Ala                                                 
 5.22E-09  17%   9.692 Asp                                                 
 5.39E-10  77%   1.000 Cr                                                  
 1.15E-09  59%   2.130 GABA                                                
 2.30E-09  30%   4.274 Glc                                                 
    0.000 999%   0.000 Gln                                                 
    0.000 999%   0.000 Glu                                                 
    0.000 999%   0.000 Glyc                                                
    0.000 999%   0.000 GPC                                                 
    0.000 999%   0.000 GSH                                                 
 1.07E-09  50%   1.988 Ins                                                 
 2.09E-10 179%   0.387 Lac                                                 
    0.000 999%   0.000 NAAG                                                
    0.000 999%   0.000 NAA                                                 
    0.000 999%   0.000 PCh                                                 
    0.000 999%   0.000 PCr                                                 
    0.000 999%   0.000 PE                                                  
    0.000 999%   0.000 Scyllo                                              
 6.92E-10 178%   1.284 Ser                                                 
    0.000 999%   0.000 Tau                                                 
    0.000 999%   0.000 GPC+PCh                                             
    0.000 999%   0.000 NAA+NAAG                                            
 1.07E-09  50%   1.988 Ins+Glyc                                            
 5.39E-10  77%   1.000 Cr+PCr                                              
    0.000 999%   0.000 Glu+Gln                                             
   6 lines in following misc. output table
  FWHM = 0.123 ppm    S/N =   3                                            
  Data shift = 0.436 ppm                                                   
  Ph: -50 deg      92.5 deg/ppm                                            
  alphaB,S = 5.1E-01,   6.3E+00                                            
    9 spline knots.   Ns = 5(1)                                            
  (10) 6 infls.   ( 9) 5 extrs.                                            
  363 points on ppm-axis = NY
      4.250000     4.238821     4.227641     4.216462     4.205282     4.194103     4.182923     4.171744     4.160564     4.149385
      4.138206     4.127026     4.115847     4.104667     4.093488     4.082308     4.071129     4.059949     4.048770     4.037591
      4.026411     4.015232     4.004052     3.992873     3.981693     3.970514     3.959334     3.948155     3.936975     3.925796
      3.914617     3.903437     3.892258     3.881078     3.869899     3.858719     3.847540     3.836360     3.825181     3.814002
      3.802822     3.791643     3.780463     3.769284     3.758104     3.746925     3.735745     3.724566     3.713387     3.702207
      3.691028     3.679848     3.668669     3.657489     3.646310     3.635130     3.623951     3.612772     3.601592     3.590413
      3.579233     3.568054     3.556874     3.545695     3.534515     3.523336     3.512156     3.500977     3.489798     3.478618
      3.467439     3.456259     3.445080     3.433900     3.422721     3.411541     3.400362     3.389183     3.378003     3.366824
      3.355644     3.344465     3.333285     3.322106     3.310926     3.299747     3.288568     3.277388     3.266209     3.255029
      3.243850     3.232670     3.221491     3.210311     3.199132     3.187953     3.176773     3.165594     3.154414     3.143235
      3.132055     3.120876     3.109696     3.098517     3.087337     3.076158     3.064979     3.053799     3.042620     3.031440
      3.020261     3.009081     2.997902     2.986722     2.975543     2.964364     2.953184     2.942005     2.930825     2.919646
      2.908466     2.897287     2.886107     2.874928     2.863749     2.852569     2.841390     2.830210     2.819031     2.807851
      2.796672     2.785492     2.774313     2.763134     2.751954     2.740775     2.729595     2.718416     2.707236     2.696057
      2.684877     2.673698     2.662519     2.651339     2.640160     2.628980     2.617801     2.606621     2.595442     2.584262
      2.573083     2.561903     2.550724     2.539545     2.528365     2.517186     2.506006     2.494827     2.483647     2.472468
      2.461288     2.450109     2.438930     2.427750     2.416571     2.405391     2.394212     2.383032     2.371853     2.360673
      2.349494     2.338315     2.327135     2.315956     2.304776     2.293597     2.282417     2.271238     2.260058     2.248879
      2.237700     2.226520     2.215341     2.204161     2.192982     2.181802     2.170623     2.159443     2.148264     2.137084
      2.125905     2.114726     2.103546     2.092367     2.081187     2.070008     2.058828     2.047649     2.036469     2.025290
      2.014111     2.002931     1.991752     1.980572     1.969393     1.958213     1.947034     1.935854     1.924675     1.913496
      1.902316     1.891137     1.879957     1.868778     1.857598     1.846419     1.835239     1.824060     1.812881     1.801701
      1.790522     1.779342     1.768163     1.756983     1.745804     1.734624     1.723445     1.712265     1.701086     1.689907
      1.678727     1.667548     1.656368     1.645189     1.634009     1.622830     1.611650     1.600471     1.589292     1.578112
      1.566933     1.555753     1.544574     1.533394     1.522215     1.511035     1.499856     1.488677     1.477497     1.466318
      1.455138     1.443959     1.432779     1.421600     1.410420     1.399241     1.388062     1.376882     1.365703     1.354523
      1.343344     1.332164     1.320985     1.309805     1.298626     1.287446     1.276267     1.265088     1.253908     1.242729
      1.231549     1.220370     1.209190     1.198011     1.186831     1.175652     1.164473     1.153293     1.142114     1.130934
      1.119755     1.108575     1.097396     1.086216     1.075037     1.063858     1.052678     1.041499     1.030319     1.019140
      1.007960     0.996781     0.985601     0.974422     0.963243     0.952063     0.940884     0.929704     0.918525     0.907345
      0.896166     0.884986     0.873807     0.862628     0.851448     0.840269     0.829089     0.817910     0.806730     0.795551
      0.784371     0.773192     0.762012     0.750833     0.739654     0.728474     0.717295     0.706115     0.694936     0.683756
      0.672577     0.661397     0.650218     0.639039     0.627859     0.616680     0.605500     0.594321     0.583141     0.571962
      0.560782     0.549603     0.538424     0.527244     0.516065     0.504885     0.493706     0.482526     0.471347     0.460167
      0.448988     0.437809     0.426629     0.415450     0.404270     0.393091     0.381911     0.370732     0.359552     0.348373
      0.337193     0.326014     0.314835     0.303655     0.292476     0.281296     0.270117     0.258937     0.247758     0.236578
      0.225399     0.214220     0.203040
 NY phased data points follow
  -1.00271E-08 -8.96503E-09 -9.47310E-09 -8.75614E-09 -1.02158E-08 -9.65708E-09 -1.09572E-08 -1.07677E-08 -1.20505E-08 -1.08816E-08
  -1.22175E-08 -1.12962E-08 -1.12477E-08 -1.06797E-08 -1.14144E-08 -9.82637E-09 -1.20069E-08 -1.21356E-08 -1.28939E-08 -1.15316E-08
  -1.18211E-08 -1.07324E-08 -1.18783E-08 -1.29510E-08 -1.51187E-08 -1.45120E-08 -1.50798E-08 -1.42636E-08 -1.33199E-08 -1.16934E-08
  -1.13313E-08 -1.06434E-08 -1.07728E-08 -9.92257E-09 -9.28921E-09 -9.19621E-09 -9.30667E-09 -8.21845E-09 -8.30350E-09 -7.11927E-09
  -7.14123E-09 -6.84602E-09 -7.03297E-09 -7.76591E-09 -6.96680E-09 -6.47146E-09 -6.79699E-09 -5.87440E-09 -5.81753E-09 -5.44322E-09
  -6.49959E-09 -6.75349E-09 -7.49313E-09 -7.95446E-09 -1.17336E-08 -1.49306E-08 -1.56575E-08 -1.35662E-08 -1.19846E-08 -1.01879E-08
  -8.79337E-09 -7.15778E-09 -7.14139E-09 -6.56311E-09 -5.55050E-09 -5.75929E-09 -4.85373E-09 -5.48745E-09 -5.63773E-09 -6.66762E-09
  -8.36804E-09 -1.29262E-08 -1.53374E-08 -1.46247E-08 -1.11537E-08 -9.37648E-09 -9.09258E-09 -7.87184E-09 -6.11025E-09 -5.75301E-09
  -4.98144E-09 -4.71174E-09 -3.98206E-09 -3.32924E-09 -2.09592E-09 -2.65300E-09 -1.44076E-09 -9.89072E-10 -8.39612E-10 -3.63474E-10
   6.72458E-11  4.97087E-10  9.10644E-10  2.24508E-10  9.26126E-11  7.14955E-10  1.28457E-09  1.07197E-09  8.60308E-10  1.96127E-09
   2.92852E-09  2.65687E-09  2.93046E-09  2.51482E-09  2.06191E-09  6.90094E-10  1.07880E-09  1.46071E-09  1.43994E-09  5.61154E-10
   1.49723E-09  1.76479E-09  2.10336E-09  1.88113E-09  3.16743E-09  3.28688E-09  3.58140E-09  3.49176E-09  3.79146E-09  2.53269E-09
   2.29394E-09  2.26276E-09  2.67643E-09  2.19505E-09  2.51795E-09  2.47055E-09  3.23696E-09  2.54829E-09  2.67721E-09  2.45008E-09
   2.26390E-09  7.62774E-10  7.80343E-10  1.44946E-09  2.93960E-09  2.82789E-09  3.08703E-09  2.38659E-09  3.26321E-09  3.57091E-09
   4.25216E-09  4.68739E-09  5.12493E-09  4.91229E-09  5.83620E-09  5.32895E-09  5.56156E-09  5.46014E-09  5.81575E-09  5.46151E-09
   5.65676E-09  5.19549E-09  5.62001E-09  5.02753E-09  5.69479E-09  5.37521E-09  5.58640E-09  4.58275E-09  3.76442E-09  3.10250E-09
   4.01823E-09  1.86287E-09  4.44480E-10  2.75210E-09  1.11877E-08  1.50923E-08  1.73168E-08  1.67785E-08  1.77763E-08  1.73802E-08
   1.82163E-08  1.75444E-08  1.79251E-08  1.74993E-08  1.81343E-08  1.71477E-08  1.67628E-08  1.63903E-08  1.61446E-08  1.45284E-08
   1.40403E-08  1.24283E-08  1.12780E-08  9.38297E-09  8.85180E-09  5.61405E-09  4.23345E-09  1.40275E-09 -1.35992E-10 -2.88718E-09
  -4.50648E-09 -6.73970E-09 -7.75776E-09 -9.83824E-09 -1.00405E-08 -1.16653E-08 -1.10410E-08 -1.13454E-08 -1.07798E-08 -9.79451E-09
  -8.61397E-09 -8.38561E-09 -6.69223E-09 -5.98743E-09 -4.55235E-09 -3.86372E-09 -2.83693E-09 -2.51611E-09 -1.77382E-09 -2.63837E-09
  -1.98008E-09 -2.79129E-09 -2.65215E-09 -2.87527E-09 -2.03501E-09 -1.89560E-09 -1.21554E-09 -1.62278E-09 -1.46683E-09 -1.86811E-09
  -1.24628E-09 -2.50870E-09 -9.42651E-10 -2.02839E-09 -1.07410E-09 -2.18867E-09 -1.73039E-09 -1.35965E-09 -8.92064E-10 -1.04274E-09
  -1.28508E-09 -1.69850E-09 -6.44893E-10 -1.35598E-09 -1.09162E-09 -2.08684E-09 -1.34450E-09 -1.49160E-09 -1.10550E-09 -1.01639E-09
  -9.70812E-10 -1.11606E-09 -1.00394E-10 -8.36255E-10  3.03750E-11 -5.92775E-10  1.01559E-10 -1.07862E-09  3.57499E-10 -1.36515E-09
  -5.42296E-10 -1.26193E-09 -5.27790E-10 -1.58531E-09 -1.45993E-09 -1.46597E-09 -1.41351E-09 -1.35137E-09 -5.00097E-10 -1.01118E-09
  -2.35232E-10 -5.48072E-10  2.62468E-10  1.55615E-10  1.04469E-09  3.08709E-10  1.09512E-09  1.07738E-09  1.31595E-09  4.77892E-10
   6.41040E-10 -1.15313E-10  6.35653E-10 -1.59901E-11  2.26058E-12 -7.60542E-10  1.04078E-10 -6.48280E-10 -9.96201E-12 -6.21463E-10
  -1.81875E-10 -5.38907E-10 -5.56390E-10 -8.12546E-10 -1.30312E-10 -3.72050E-10 -2.86862E-10 -4.86874E-10 -1.41111E-10 -4.16597E-10
  -1.43642E-12 -4.00231E-10  3.78163E-11 -2.94155E-10  1.89225E-10 -3.69489E-10  1.33166E-10  3.82502E-10  7.72555E-11  2.88294E-10
   2.35131E-10  1.62983E-10  9.29271E-10  5.53014E-10  5.59882E-10  5.75531E-10  1.01084E-09  3.68407E-10  9.85570E-10  9.86230E-10
   9.90766E-10  1.41524E-09  1.19364E-09  1.45487E-09  9.35522E-10  1.61659E-09  1.63750E-09  1.26037E-09  1.73257E-09  2.02416E-09
   1.73305E-09  1.29283E-09  2.40650E-09  2.05957E-09  1.82026E-09  2.34114E-09  2.35498E-09  2.46145E-09  1.87270E-09  2.23278E-09
   2.44492E-09  2.56280E-09  2.23681E-09  2.39556E-09  2.57565E-09  2.83682E-09  2.83826E-09  2.76838E-09  3.31780E-09  3.10515E-09
   2.84360E-09  2.76515E-09  3.02343E-09  3.17470E-09  2.99276E-09  2.95132E-09  3.18727E-09  3.36597E-09  2.90257E-09  3.06499E-09
   3.78268E-09  3.50525E-09  3.14079E-09  3.04493E-09  3.14043E-09  3.59473E-09  3.49770E-09  3.11881E-09  3.42804E-09  3.41080E-09
   3.30375E-09  3.40362E-09  3.49465E-09
 NY points of the fit to the data follow
  -7.02070E-09 -8.26399E-09 -1.01653E-08 -1.10794E-08 -1.09372E-08 -1.07989E-08 -1.22977E-08 -1.18546E-08 -1.08561E-08 -1.17891E-08
  -1.23312E-08 -1.19377E-08 -1.14656E-08 -1.05028E-08 -9.09225E-09 -9.50765E-09 -1.02340E-08 -1.01341E-08 -1.08407E-08 -1.21111E-08
  -1.22351E-08 -1.20381E-08 -1.25142E-08 -1.25382E-08 -1.24524E-08 -1.34875E-08 -1.42567E-08 -1.40095E-08 -1.35185E-08 -1.25300E-08
  -1.19305E-08 -1.02866E-08 -9.26388E-09 -9.75159E-09 -9.63165E-09 -8.79823E-09 -8.61853E-09 -8.35372E-09 -8.78702E-09 -8.98858E-09
  -9.05345E-09 -7.72231E-09 -7.09444E-09 -8.37069E-09 -6.17834E-09 -7.11943E-09 -8.30362E-09 -7.08723E-09 -6.86827E-09 -7.07146E-09
  -6.73667E-09 -6.19721E-09 -6.52094E-09 -7.73447E-09 -7.02741E-09 -9.75944E-09 -9.65736E-09 -8.64169E-09 -8.92195E-09 -9.42370E-09
  -8.94828E-09 -8.47499E-09 -8.60385E-09 -8.28704E-09 -6.82964E-09 -6.97764E-09 -7.40003E-09 -7.13832E-09 -6.84621E-09 -6.73510E-09
  -6.60408E-09 -6.46524E-09 -6.67380E-09 -6.71251E-09 -6.20373E-09 -6.51501E-09 -6.70986E-09 -6.26009E-09 -6.03569E-09 -5.72105E-09
  -5.39810E-09 -5.28048E-09 -4.66022E-09 -4.03034E-09 -4.02328E-09 -3.56690E-09 -2.95362E-09 -2.81326E-09 -2.52363E-09 -2.10454E-09
  -1.98617E-09 -1.92095E-09 -1.43429E-09 -1.32833E-09 -1.54629E-09 -1.10753E-09 -8.54685E-10 -8.84252E-10 -4.72367E-10  2.77814E-10
   8.44748E-10  5.50537E-10  1.15603E-09  2.01911E-09  2.04402E-09  2.13734E-09  2.42199E-09  2.72849E-09  2.72590E-09  3.05711E-09
   2.91874E-09  2.16229E-09  2.55306E-09  2.53337E-09  1.90887E-09  1.83706E-09  1.90440E-09  1.88618E-09  1.71676E-09  1.90907E-09
   1.90760E-09  1.79628E-09  1.84298E-09  1.92020E-09  2.00356E-09  2.08640E-09  2.16634E-09  2.24232E-09  2.31392E-09  2.38095E-09
   2.44335E-09  2.50112E-09  2.55435E-09  2.60310E-09  2.64747E-09  2.68755E-09  2.72348E-09  2.75538E-09  2.78337E-09  2.80761E-09
   2.82823E-09  2.84541E-09  2.85933E-09  2.87010E-09  2.87801E-09  2.88323E-09  2.88600E-09  2.88660E-09  2.88537E-09  2.88261E-09
   2.87877E-09  2.87440E-09  2.87010E-09  2.86666E-09  2.86516E-09  2.86696E-09  2.87389E-09  2.88868E-09  2.91525E-09  2.95966E-09
   3.03198E-09  3.14981E-09  3.34767E-09  3.70268E-09  4.42692E-09  6.33018E-09  1.35933E-08  1.99750E-08  1.92092E-08  1.79083E-08
   1.81150E-08  1.85620E-08  1.85813E-08  1.81879E-08  1.75900E-08  1.75900E-08  1.90849E-08  1.50910E-08  6.82036E-09  3.10648E-09
   2.03340E-09  1.55241E-09  1.27127E-09  1.07846E-09  9.31422E-10  8.10747E-10  7.06449E-10  6.12934E-10  5.26872E-10  4.46173E-10
   3.69469E-10  2.95865E-10  2.24721E-10  1.55614E-10  8.82283E-11  2.23341E-11 -4.22131E-11 -1.05529E-10 -1.67694E-10 -2.28758E-10
  -2.88758E-10 -3.47722E-10 -4.05652E-10 -4.62545E-10 -5.18406E-10 -5.73226E-10 -6.26985E-10 -6.79653E-10 -7.31229E-10 -7.81688E-10
  -8.30998E-10 -8.79128E-10 -9.26059E-10 -9.71756E-10 -1.01621E-09 -1.05937E-09 -1.10121E-09 -1.14171E-09 -1.18084E-09 -1.21855E-09
  -1.25482E-09 -1.28962E-09 -1.32292E-09 -1.35468E-09 -1.38490E-09 -1.41350E-09 -1.44048E-09 -1.46581E-09 -1.48944E-09 -1.51136E-09
  -1.53152E-09 -1.54990E-09 -1.56647E-09 -1.58120E-09 -1.59405E-09 -1.60500E-09 -1.61402E-09 -1.62108E-09 -1.62614E-09 -1.62918E-09
  -1.63016E-09 -1.62907E-09 -1.62587E-09 -1.62058E-09 -1.61324E-09 -1.60389E-09 -1.59258E-09 -1.57935E-09 -1.56424E-09 -1.54729E-09
  -1.52855E-09 -1.50807E-09 -1.48587E-09 -1.46201E-09 -1.43653E-09 -1.40947E-09 -1.38087E-09 -1.35079E-09 -1.31925E-09 -1.28630E-09
  -1.25199E-09 -1.21635E-09 -1.17944E-09 -1.14129E-09 -1.10194E-09 -1.06144E-09 -1.01983E-09 -9.77160E-10 -9.33461E-10 -8.88779E-10
  -8.43157E-10 -7.96639E-10 -7.49266E-10 -7.01078E-10 -6.52118E-10 -6.02429E-10 -5.52054E-10 -5.01031E-10 -4.49403E-10 -3.97213E-10
  -3.44503E-10 -2.91311E-10 -2.37682E-10 -1.83654E-10 -1.29270E-10 -7.45697E-11 -1.95948E-11  3.56147E-11  9.10182E-11  1.46572E-10
   2.02243E-10  2.57987E-10  3.13764E-10  3.69534E-10  4.25258E-10  4.80895E-10  5.36408E-10  5.91757E-10  6.46903E-10  7.01809E-10
   7.56433E-10  8.10739E-10  8.64687E-10  9.18258E-10  9.71451E-10  1.02428E-09  1.07675E-09  1.12885E-09  1.18062E-09  1.23203E-09
   1.28310E-09  1.33385E-09  1.38427E-09  1.43436E-09  1.48414E-09  1.53361E-09  1.58279E-09  1.63166E-09  1.68024E-09  1.72853E-09
   1.77655E-09  1.82429E-09  1.87176E-09  1.91897E-09  1.96592E-09  2.01262E-09  2.05908E-09  2.10529E-09  2.15126E-09  2.19701E-09
   2.24253E-09  2.28783E-09  2.33292E-09  2.37780E-09  2.42247E-09  2.46694E-09  2.51123E-09  2.55532E-09  2.59924E-09  2.64297E-09
   2.68653E-09  2.72993E-09  2.77316E-09  2.81623E-09  2.85914E-09  2.90191E-09  2.94454E-09  2.98703E-09  3.02938E-09  3.07161E-09
   3.11371E-09  3.15569E-09  3.19755E-09  3.23929E-09  3.28094E-09  3.32248E-09  3.36392E-09  3.40527E-09  3.44653E-09  3.48769E-09
   3.52878E-09  3.56979E-09  3.61073E-09
 NY background values follow
    -2.289E-08   -2.271E-08   -2.253E-08   -2.235E-08   -2.217E-08   -2.199E-08   -2.180E-08   -2.162E-08   -2.143E-08   -2.124E-08
    -2.106E-08   -2.087E-08   -2.068E-08   -2.049E-08   -2.029E-08   -2.010E-08   -1.991E-08   -1.971E-08   -1.952E-08   -1.932E-08
    -1.912E-08   -1.892E-08   -1.872E-08   -1.852E-08   -1.832E-08   -1.811E-08   -1.791E-08   -1.771E-08   -1.750E-08   -1.729E-08
    -1.709E-08   -1.688E-08   -1.667E-08   -1.646E-08   -1.625E-08   -1.603E-08   -1.582E-08   -1.561E-08   -1.539E-08   -1.518E-08
    -1.496E-08   -1.474E-08   -1.453E-08   -1.431E-08   -1.409E-08   -1.387E-08   -1.365E-08   -1.343E-08   -1.320E-08   -1.298E-08
    -1.276E-08   -1.253E-08   -1.231E-08   -1.208E-08   -1.185E-08   -1.163E-08   -1.140E-08   -1.117E-08   -1.094E-08   -1.071E-08
    -1.048E-08   -1.025E-08   -1.002E-08   -9.783E-09   -9.550E-09   -9.317E-09   -9.084E-09   -8.850E-09   -8.617E-09   -8.384E-09
    -8.151E-09   -7.918E-09   -7.686E-09   -7.454E-09   -7.222E-09   -6.992E-09   -6.762E-09   -6.533E-09   -6.305E-09   -6.078E-09
    -5.852E-09   -5.627E-09   -5.404E-09   -5.182E-09   -4.962E-09   -4.743E-09   -4.526E-09   -4.311E-09   -4.098E-09   -3.887E-09
    -3.679E-09   -3.472E-09   -3.268E-09   -3.066E-09   -2.867E-09   -2.671E-09   -2.477E-09   -2.286E-09   -2.098E-09   -1.913E-09
    -1.732E-09   -1.553E-09   -1.379E-09   -1.207E-09   -1.039E-09   -8.750E-10   -7.146E-10   -5.581E-10   -4.057E-10   -2.573E-10
    -1.132E-10    2.669E-11    1.621E-10    2.930E-10    4.193E-10    5.409E-10    6.576E-10    7.694E-10    8.761E-10    9.776E-10
     1.074E-09    1.165E-09    1.251E-09    1.331E-09    1.406E-09    1.476E-09    1.541E-09    1.601E-09    1.656E-09    1.706E-09
     1.752E-09    1.793E-09    1.829E-09    1.861E-09    1.889E-09    1.912E-09    1.931E-09    1.946E-09    1.957E-09    1.964E-09
     1.967E-09    1.967E-09    1.963E-09    1.955E-09    1.944E-09    1.929E-09    1.911E-09    1.890E-09    1.866E-09    1.839E-09
     1.809E-09    1.776E-09    1.740E-09    1.702E-09    1.661E-09    1.618E-09    1.573E-09    1.525E-09    1.475E-09    1.423E-09
     1.369E-09    1.313E-09    1.256E-09    1.196E-09    1.135E-09    1.073E-09    1.010E-09    9.446E-10    8.786E-10    8.114E-10
     7.432E-10    6.741E-10    6.043E-10    5.338E-10    4.627E-10    3.911E-10    3.191E-10    2.469E-10    1.744E-10    1.018E-10
     2.927E-11   -4.316E-11   -1.154E-10   -1.874E-10   -2.592E-10   -3.306E-10   -4.017E-10   -4.724E-10   -5.427E-10   -6.125E-10
    -6.819E-10   -7.508E-10   -8.191E-10   -8.868E-10   -9.539E-10   -1.020E-09   -1.086E-09   -1.151E-09   -1.215E-09   -1.279E-09
    -1.342E-09   -1.403E-09   -1.464E-09   -1.524E-09   -1.583E-09   -1.641E-09   -1.698E-09   -1.754E-09   -1.809E-09   -1.863E-09
    -1.916E-09   -1.967E-09   -2.017E-09   -2.066E-09   -2.114E-09   -2.160E-09   -2.205E-09   -2.248E-09   -2.290E-09   -2.331E-09
    -2.370E-09   -2.408E-09   -2.444E-09   -2.479E-09   -2.511E-09   -2.543E-09   -2.572E-09   -2.600E-09   -2.626E-09   -2.651E-09
    -2.673E-09   -2.694E-09   -2.713E-09   -2.730E-09   -2.745E-09   -2.758E-09   -2.769E-09   -2.778E-09   -2.785E-09   -2.790E-09
    -2.793E-09   -2.794E-09   -2.792E-09   -2.789E-09   -2.783E-09   -2.776E-09   -2.766E-09   -2.754E-09   -2.741E-09   -2.725E-09
    -2.708E-09   -2.689E-09   -2.668E-09   -2.646E-09   -2.621E-09   -2.596E-09   -2.568E-09   -2.539E-09   -2.509E-09   -2.477E-09
    -2.444E-09   -2.409E-09   -2.373E-09   -2.336E-09   -2.298E-09   -2.258E-09   -2.217E-09   -2.175E-09   -2.132E-09   -2.088E-09
    -2.043E-09   -1.998E-09   -1.951E-09   -1.903E-09   -1.855E-09   -1.806E-09   -1.756E-09   -1.705E-09   -1.654E-09   -1.602E-09
    -1.550E-09   -1.497E-09   -1.443E-09   -1.390E-09   -1.335E-09   -1.281E-09   -1.226E-09   -1.171E-09   -1.116E-09   -1.060E-09
    -1.004E-09   -9.487E-10   -8.929E-10   -8.370E-10   -7.812E-10   -7.254E-10   -6.697E-10   -6.142E-10   -5.588E-10   -5.036E-10
    -4.487E-10   -3.941E-10   -3.398E-10   -2.859E-10   -2.323E-10   -1.790E-10   -1.261E-10   -7.351E-11   -2.123E-11    3.072E-11
     8.236E-11    1.337E-10    1.847E-10    2.355E-10    2.859E-10    3.361E-10    3.860E-10    4.356E-10    4.850E-10    5.341E-10
     5.829E-10    6.315E-10    6.799E-10    7.280E-10    7.759E-10    8.236E-10    8.710E-10    9.182E-10    9.652E-10    1.012E-09
     1.059E-09    1.105E-09    1.151E-09    1.197E-09    1.243E-09    1.289E-09    1.334E-09    1.380E-09    1.425E-09    1.470E-09
     1.515E-09    1.560E-09    1.604E-09    1.649E-09    1.693E-09    1.737E-09    1.781E-09    1.825E-09    1.869E-09    1.913E-09
     1.956E-09    2.000E-09    2.043E-09    2.087E-09    2.130E-09    2.173E-09    2.216E-09    2.259E-09    2.302E-09    2.345E-09
     2.388E-09    2.431E-09    2.474E-09
 Ala      Conc. = 6.72E-10
  -2.22730E-08 -2.21924E-08 -2.19620E-08 -2.17968E-08 -2.17011E-08 -2.15212E-08 -2.13257E-08 -2.13492E-08 -2.11790E-08 -2.08868E-08
  -2.08916E-08 -2.07722E-08 -2.05306E-08 -2.03916E-08 -2.02311E-08 -2.00481E-08 -1.98569E-08 -1.96616E-08 -1.94640E-08 -1.92647E-08
  -1.90641E-08 -1.88623E-08 -1.86596E-08 -1.84559E-08 -1.82514E-08 -1.80460E-08 -1.78397E-08 -1.76325E-08 -1.74245E-08 -1.72157E-08
  -1.70060E-08 -1.67954E-08 -1.65840E-08 -1.63719E-08 -1.61589E-08 -1.59450E-08 -1.57303E-08 -1.55149E-08 -1.52986E-08 -1.50815E-08
  -1.48636E-08 -1.46449E-08 -1.44254E-08 -1.42052E-08 -1.39841E-08 -1.37624E-08 -1.35398E-08 -1.33164E-08 -1.30924E-08 -1.28676E-08
  -1.26420E-08 -1.24156E-08 -1.21886E-08 -1.19609E-08 -1.17323E-08 -1.15031E-08 -1.12731E-08 -1.10425E-08 -1.08111E-08 -1.05792E-08
  -1.03465E-08 -1.01131E-08 -9.87901E-09 -9.64443E-09 -9.40937E-09 -9.17394E-09 -8.93821E-09 -8.70230E-09 -8.46624E-09 -8.23013E-09
  -7.99408E-09 -7.75814E-09 -7.52241E-09 -7.28692E-09 -7.05180E-09 -6.81711E-09 -6.58286E-09 -6.34922E-09 -6.11610E-09 -5.88370E-09
  -5.65196E-09 -5.42093E-09 -5.19061E-09 -4.96105E-09 -4.73221E-09 -4.50394E-09 -4.27627E-09 -4.04894E-09 -3.82174E-09 -3.59433E-09
  -3.36616E-09 -3.13652E-09 -2.90417E-09 -2.66725E-09 -2.42274E-09 -2.16529E-09 -1.88458E-09 -1.55775E-09 -1.12218E-09 -3.54090E-10
   2.97402E-10  3.59842E-11  6.45061E-10  1.49121E-09  1.47740E-09  1.49507E-09  1.60159E-09  1.71352E-09  1.81992E-09  1.96143E-09
   1.64224E-09  9.30322E-10  1.34274E-09  1.32237E-09  6.95742E-10  6.26949E-10  6.77979E-10  7.62558E-10  8.57545E-10  9.54456E-10
   1.04997E-09  1.14202E-09  1.22976E-09  1.31275E-09  1.39082E-09  1.46387E-09  1.53191E-09  1.59494E-09  1.65300E-09  1.70619E-09
   1.75456E-09  1.79819E-09  1.83720E-09  1.87164E-09  1.90163E-09  1.92724E-09  1.94859E-09  1.96576E-09  1.97883E-09  1.98793E-09
   1.99314E-09  1.99456E-09  1.99230E-09  1.98640E-09  1.97706E-09  1.96432E-09  1.94829E-09  1.92907E-09  1.90680E-09  1.88153E-09
   1.85340E-09  1.82257E-09  1.78911E-09  1.75314E-09  1.71487E-09  1.67444E-09  1.63198E-09  1.58778E-09  1.54213E-09  1.49540E-09
   1.44825E-09  1.40162E-09  1.35737E-09  1.31942E-09  1.29803E-09  1.32933E-09  1.61205E-09  2.13254E-09  1.90805E-09  1.75599E-09
   1.72223E-09  1.68735E-09  1.62929E-09  1.53708E-09  1.44049E-09  1.35546E-09  1.38298E-09  1.23956E-09  4.89526E-10  2.66183E-10
   1.44796E-10  5.04011E-11 -3.36614E-11 -1.12726E-10 -1.88978E-10 -2.63426E-10 -3.36590E-10 -4.08761E-10 -4.80092E-10 -5.50673E-10
  -6.20560E-10 -6.89764E-10 -7.58301E-10 -8.26153E-10 -8.93316E-10 -9.59778E-10 -1.02550E-09 -1.09047E-09 -1.15466E-09 -1.21803E-09
  -1.28056E-09 -1.34222E-09 -1.40299E-09 -1.46281E-09 -1.52167E-09 -1.57954E-09 -1.63638E-09 -1.69214E-09 -1.74682E-09 -1.80037E-09
  -1.85277E-09 -1.90396E-09 -1.95393E-09 -2.00264E-09 -2.05007E-09 -2.09618E-09 -2.14092E-09 -2.18428E-09 -2.22623E-09 -2.26671E-09
  -2.30571E-09 -2.34319E-09 -2.37913E-09 -2.41349E-09 -2.44625E-09 -2.47734E-09 -2.50678E-09 -2.53451E-09 -2.56050E-09 -2.58472E-09
  -2.60714E-09 -2.62774E-09 -2.64647E-09 -2.66332E-09 -2.67825E-09 -2.69123E-09 -2.70223E-09 -2.71122E-09 -2.71818E-09 -2.72306E-09
  -2.72586E-09 -2.72652E-09 -2.72504E-09 -2.72142E-09 -2.71571E-09 -2.70795E-09 -2.69819E-09 -2.68646E-09 -2.67282E-09 -2.65730E-09
  -2.63994E-09 -2.62080E-09 -2.59990E-09 -2.57731E-09 -2.55305E-09 -2.52718E-09 -2.49973E-09 -2.47075E-09 -2.44029E-09 -2.40838E-09
  -2.37506E-09 -2.34039E-09 -2.30440E-09 -2.26714E-09 -2.22865E-09 -2.18897E-09 -2.14815E-09 -2.10623E-09 -2.06324E-09 -2.01924E-09
  -1.97427E-09 -1.92836E-09 -1.88157E-09 -1.83393E-09 -1.78548E-09 -1.73627E-09 -1.68634E-09 -1.63574E-09 -1.58450E-09 -1.53266E-09
  -1.48027E-09 -1.42737E-09 -1.37400E-09 -1.32020E-09 -1.26601E-09 -1.21148E-09 -1.15664E-09 -1.10154E-09 -1.04622E-09 -9.90713E-10
  -9.35061E-10 -8.79308E-10 -8.23492E-10 -7.67657E-10 -7.11836E-10 -6.56075E-10 -6.00410E-10 -5.44882E-10 -4.89528E-10 -4.34387E-10
  -3.79501E-10 -3.24905E-10 -2.70640E-10 -2.16726E-10 -1.63161E-10 -1.09937E-10 -5.70460E-11 -4.48866E-12  4.77494E-11  9.96646E-11
   1.51267E-10  2.02565E-10  2.53563E-10  3.04260E-10  3.54671E-10  4.04799E-10  4.54651E-10  5.04227E-10  5.53539E-10  6.02585E-10
   6.51380E-10  6.99925E-10  7.48223E-10  7.96280E-10  8.44103E-10  8.91703E-10  9.39081E-10  9.86239E-10  1.03318E-09  1.07992E-09
   1.12646E-09  1.17279E-09  1.21895E-09  1.26491E-09  1.31069E-09  1.35630E-09  1.40174E-09  1.44700E-09  1.49211E-09  1.53707E-09
   1.58186E-09  1.62653E-09  1.67104E-09  1.71542E-09  1.75966E-09  1.80378E-09  1.84778E-09  1.89166E-09  1.93543E-09  1.97909E-09
   2.02265E-09  2.06610E-09  2.10946E-09  2.15273E-09  2.19592E-09  2.23902E-09  2.28204E-09  2.32499E-09  2.36786E-09  2.41067E-09
   2.45342E-09  2.49611E-09  2.53875E-09
 Asp      Conc. = 5.22E-09
  -1.92319E-08 -1.99649E-08 -2.05140E-08 -2.04702E-08 -2.11165E-08 -2.09773E-08 -2.16969E-08 -2.16554E-08 -2.14492E-08 -2.12020E-08
  -2.09445E-08 -2.06866E-08 -2.04201E-08 -2.01516E-08 -1.98922E-08 -1.96352E-08 -1.93789E-08 -1.91226E-08 -1.88657E-08 -1.86075E-08
  -1.83474E-08 -1.80847E-08 -1.78188E-08 -1.75488E-08 -1.72737E-08 -1.69925E-08 -1.67036E-08 -1.64053E-08 -1.60952E-08 -1.57698E-08
  -1.54245E-08 -1.50517E-08 -1.46394E-08 -1.41654E-08 -1.35823E-08 -1.27929E-08 -1.23844E-08 -1.17980E-08 -1.18215E-08 -1.16121E-08
  -1.10145E-08 -9.98756E-09 -8.17797E-09 -7.53001E-09 -5.31616E-09 -6.55738E-09 -7.40450E-09 -6.16608E-09 -6.01338E-09 -6.30596E-09
  -6.06705E-09 -5.62339E-09 -6.04415E-09 -7.35639E-09 -6.75041E-09 -9.58811E-09 -9.60008E-09 -8.71191E-09 -9.14191E-09 -9.83579E-09
  -9.63510E-09 -9.61620E-09 -9.87447E-09 -9.46981E-09 -8.72295E-09 -9.02698E-09 -9.06311E-09 -8.94261E-09 -8.76207E-09 -8.55340E-09
  -8.32983E-09 -8.09780E-09 -7.86086E-09 -7.62106E-09 -7.37978E-09 -7.13790E-09 -6.89596E-09 -6.65454E-09 -6.41381E-09 -6.17418E-09
  -5.93576E-09 -5.69875E-09 -5.46329E-09 -5.22957E-09 -4.99770E-09 -4.76770E-09 -4.53981E-09 -4.31402E-09 -4.09048E-09 -3.86929E-09
  -3.65051E-09 -3.43431E-09 -3.22072E-09 -3.00983E-09 -2.80175E-09 -2.59656E-09 -2.39438E-09 -2.19528E-09 -1.99936E-09 -1.80675E-09
  -1.61746E-09 -1.43165E-09 -1.24941E-09 -1.07080E-09 -8.95947E-10 -7.24946E-10 -5.57845E-10 -3.94829E-10 -2.35953E-10 -8.12588E-11
   6.90620E-11  2.15034E-10  3.56421E-10  4.93252E-10  6.25324E-10  7.52604E-10  8.74960E-10  9.92304E-10  1.10455E-09  1.21148E-09
   1.31331E-09  1.40967E-09  1.50063E-09  1.58623E-09  1.66658E-09  1.74177E-09  1.81191E-09  1.87706E-09  1.93733E-09  1.99281E-09
   2.04360E-09  2.08978E-09  2.13148E-09  2.16877E-09  2.20177E-09  2.23057E-09  2.25529E-09  2.27604E-09  2.29290E-09  2.30602E-09
   2.31550E-09  2.32148E-09  2.32408E-09  2.32340E-09  2.31966E-09  2.31298E-09  2.30352E-09  2.29145E-09  2.27703E-09  2.26043E-09
   2.24194E-09  2.22191E-09  2.20068E-09  2.17870E-09  2.15663E-09  2.13523E-09  2.11550E-09  2.09898E-09  2.08788E-09  2.08556E-09
   2.09776E-09  2.13457E-09  2.21635E-09  2.39011E-09  2.79189E-09  3.97914E-09  8.85020E-09  9.54197E-09  8.39138E-09  8.23125E-09
   8.41920E-09  8.52209E-09  8.34663E-09  8.08474E-09  7.72209E-09  7.95306E-09  8.82249E-09  4.55515E-09  1.69105E-09  9.53981E-10
   6.36220E-10  4.47661E-10  3.12102E-10  2.02488E-10  1.07156E-10  2.04081E-11 -6.08174E-11 -1.38280E-10 -2.13035E-10 -2.85746E-10
  -3.56849E-10 -4.26606E-10 -4.95219E-10 -5.62795E-10 -6.29420E-10 -6.95152E-10 -7.60007E-10 -8.24000E-10 -8.87138E-10 -9.49407E-10
  -1.01080E-09 -1.07130E-09 -1.13089E-09 -1.18953E-09 -1.24721E-09 -1.30390E-09 -1.35957E-09 -1.41418E-09 -1.46772E-09 -1.52015E-09
  -1.57144E-09 -1.62155E-09 -1.67045E-09 -1.71811E-09 -1.76452E-09 -1.80961E-09 -1.85337E-09 -1.89576E-09 -1.93676E-09 -1.97632E-09
  -2.01441E-09 -2.05101E-09 -2.08608E-09 -2.11959E-09 -2.15152E-09 -2.18181E-09 -2.21045E-09 -2.23741E-09 -2.26264E-09 -2.28613E-09
