 LCModel (Version 6.3-1R) Copyright: S.W. Provencher.          Ref.: Magn. Reson. Med. 30:672-679 (1993).                
 onepulse 24x16_ftSpec_smooth_lcm
 26 lines in following concentration table = NCONC+1
    Conc.  %SD /Cr+PCr  Metabolite                                         
    0.000 999%   0.000 Ala                                                 
    0.000 999%   0.000 Asp                                                 
    0.000 999%   0.000 Cr                                                  
 6.32E-10  91%   2.249 GABA                                                
 1.06E-09  40%   3.763 Glc                                                 
    0.000 999%   0.000 Gln                                                 
 2.37E-09  21%   8.447 Glu                                                 
    0.000 999%   0.000 Glyc                                                
    0.000 999%   0.000 GPC                                                 
 1.50E-10 158%   0.533 GSH                                                 
    0.000 999%   0.000 Ins                                                 
    0.000 999%   0.000 Lac                                                 
    0.000 999%   0.000 NAAG                                                
 2.10E-10  99%   0.747 NAA                                                 
 1.07E-10  63%   0.382 PCh                                                 
 2.81E-10  85%   1.000 PCr                                                 
    0.000 999%   0.000 PE                                                  
 3.94E-11 283%   0.140 Scyllo                                              
    0.000 999%   0.000 Ser                                                 
    0.000 999%   0.000 Tau                                                 
 1.07E-10  63%   0.382 GPC+PCh                                             
 2.10E-10  99%   0.747 NAA+NAAG                                            
    0.000 999%   0.000 Ins+Glyc                                            
 2.81E-10  85%   1.000 Cr+PCr                                              
 2.37E-09  21%   8.447 Glu+Gln                                             
   6 lines in following misc. output table
  FWHM = 0.045 ppm    S/N =   3                                            
  Data shift = 0.257 ppm                                                   
  Ph: -39 deg       2.3 deg/ppm                                            
  alphaB,S = 2.0E-01,   6.4E+00                                            
   10 spline knots.   Ns = 5(1)                                            
  ( 8) 3 infls.   (11) 3 extrs.                                            
  363 points on ppm-axis = NY
      4.250000     4.238821     4.227641     4.216462     4.205282     4.194103     4.182923     4.171744     4.160564     4.149385
      4.138206     4.127026     4.115847     4.104667     4.093488     4.082308     4.071129     4.059949     4.048770     4.037591
      4.026411     4.015232     4.004052     3.992873     3.981693     3.970514     3.959334     3.948155     3.936975     3.925796
      3.914617     3.903437     3.892258     3.881078     3.869899     3.858719     3.847540     3.836360     3.825181     3.814002
      3.802822     3.791643     3.780463     3.769284     3.758104     3.746925     3.735745     3.724566     3.713387     3.702207
      3.691028     3.679848     3.668669     3.657489     3.646310     3.635130     3.623951     3.612772     3.601592     3.590413
      3.579233     3.568054     3.556874     3.545695     3.534515     3.523336     3.512156     3.500977     3.489798     3.478618
      3.467439     3.456259     3.445080     3.433900     3.422721     3.411541     3.400362     3.389183     3.378003     3.366824
      3.355644     3.344465     3.333285     3.322106     3.310926     3.299747     3.288568     3.277388     3.266209     3.255029
      3.243850     3.232670     3.221491     3.210311     3.199132     3.187953     3.176773     3.165594     3.154414     3.143235
      3.132055     3.120876     3.109696     3.098517     3.087337     3.076158     3.064979     3.053799     3.042620     3.031440
      3.020261     3.009081     2.997902     2.986722     2.975543     2.964364     2.953184     2.942005     2.930825     2.919646
      2.908466     2.897287     2.886107     2.874928     2.863749     2.852569     2.841390     2.830210     2.819031     2.807851
      2.796672     2.785492     2.774313     2.763134     2.751954     2.740775     2.729595     2.718416     2.707236     2.696057
      2.684877     2.673698     2.662519     2.651339     2.640160     2.628980     2.617801     2.606621     2.595442     2.584262
      2.573083     2.561903     2.550724     2.539545     2.528365     2.517186     2.506006     2.494827     2.483647     2.472468
      2.461288     2.450109     2.438930     2.427750     2.416571     2.405391     2.394212     2.383032     2.371853     2.360673
      2.349494     2.338315     2.327135     2.315956     2.304776     2.293597     2.282417     2.271238     2.260058     2.248879
      2.237700     2.226520     2.215341     2.204161     2.192982     2.181802     2.170623     2.159443     2.148264     2.137084
      2.125905     2.114726     2.103546     2.092367     2.081187     2.070008     2.058828     2.047649     2.036469     2.025290
      2.014111     2.002931     1.991752     1.980572     1.969393     1.958213     1.947034     1.935854     1.924675     1.913496
      1.902316     1.891137     1.879957     1.868778     1.857598     1.846419     1.835239     1.824060     1.812881     1.801701
      1.790522     1.779342     1.768163     1.756983     1.745804     1.734624     1.723445     1.712265     1.701086     1.689907
      1.678727     1.667548     1.656368     1.645189     1.634009     1.622830     1.611650     1.600471     1.589292     1.578112
      1.566933     1.555753     1.544574     1.533394     1.522215     1.511035     1.499856     1.488677     1.477497     1.466318
      1.455138     1.443959     1.432779     1.421600     1.410420     1.399241     1.388062     1.376882     1.365703     1.354523
      1.343344     1.332164     1.320985     1.309805     1.298626     1.287446     1.276267     1.265088     1.253908     1.242729
      1.231549     1.220370     1.209190     1.198011     1.186831     1.175652     1.164473     1.153293     1.142114     1.130934
      1.119755     1.108575     1.097396     1.086216     1.075037     1.063858     1.052678     1.041499     1.030319     1.019140
      1.007960     0.996781     0.985601     0.974422     0.963243     0.952063     0.940884     0.929704     0.918525     0.907345
      0.896166     0.884986     0.873807     0.862628     0.851448     0.840269     0.829089     0.817910     0.806730     0.795551
      0.784371     0.773192     0.762012     0.750833     0.739654     0.728474     0.717295     0.706115     0.694936     0.683756
      0.672577     0.661397     0.650218     0.639039     0.627859     0.616680     0.605500     0.594321     0.583141     0.571962
      0.560782     0.549603     0.538424     0.527244     0.516065     0.504885     0.493706     0.482526     0.471347     0.460167
      0.448988     0.437809     0.426629     0.415450     0.404270     0.393091     0.381911     0.370732     0.359552     0.348373
      0.337193     0.326014     0.314835     0.303655     0.292476     0.281296     0.270117     0.258937     0.247758     0.236578
      0.225399     0.214220     0.203040
 NY phased data points follow
   9.51002E-09  9.80796E-09  1.01585E-08  1.16383E-08  1.20235E-08  1.41005E-08  1.47243E-08  1.55747E-08  1.50878E-08  1.40189E-08
   1.12191E-08  9.22038E-09  7.99151E-09  7.76647E-09  6.71024E-09  7.65180E-09  7.15900E-09  7.80615E-09  7.62757E-09  8.06408E-09
   8.69173E-09  8.13497E-09  7.96860E-09  8.95945E-09  6.91866E-09  7.72869E-09  7.04588E-09  7.41171E-09  6.92451E-09  5.95335E-09
   6.07272E-09  7.76754E-09  7.54144E-09  7.90754E-09  6.67057E-09  6.35213E-09  5.69248E-09  6.62964E-09  6.91367E-09  8.02440E-09
   8.16168E-09  6.61185E-09  4.30313E-09  3.61914E-09  2.64884E-09  1.52980E-09  1.87065E-09  2.38984E-09  1.85637E-09  1.54707E-09
   1.80590E-09  2.38534E-09  1.17983E-09  1.86408E-09  2.51781E-09  1.55546E-09  2.12311E-09  2.33712E-09  2.81040E-09  3.61218E-09
   2.78401E-09  2.80467E-09  2.81010E-09  2.32223E-09  3.74214E-09  4.58787E-09  3.98446E-09  5.30363E-09  6.44695E-09  8.19755E-09
   1.02040E-08  1.12686E-08  9.76921E-09  5.64030E-09  3.57958E-09  1.67461E-09  1.60375E-09  1.24521E-09  1.18632E-09  1.21309E-09
   1.10962E-09  1.54814E-09  2.03314E-09  2.78390E-09  3.60792E-09  5.48999E-09  7.86385E-09  1.01880E-08  9.65308E-09  7.79076E-09
   5.23302E-09  3.39617E-09  2.02948E-09  1.39354E-09  1.11873E-09  3.97486E-10 -1.87098E-11 -1.51921E-10 -2.26552E-10 -7.03617E-10
  -1.20102E-09 -7.02710E-10 -1.27868E-09 -1.05280E-09 -1.29482E-09 -1.08227E-09 -4.40978E-10 -1.24727E-09 -6.58636E-10 -7.55825E-10
  -7.63369E-10  1.70893E-11 -1.36049E-09 -7.74021E-10 -3.90074E-10 -1.16340E-09 -1.24983E-09 -1.60560E-09 -1.15907E-09 -9.99954E-10
  -3.55615E-10  1.88414E-10  3.49299E-10  1.57376E-11  3.46475E-10  3.03033E-10  6.84201E-10  7.47456E-10  1.20179E-10 -5.15183E-10
  -7.22010E-10 -1.04155E-09 -1.56740E-09 -9.83428E-10 -1.25537E-09 -2.74005E-10  3.41149E-10  4.25705E-10 -4.55456E-10 -1.41475E-10
  -1.35081E-10  3.11183E-11 -7.54831E-10  1.10567E-11 -3.24034E-11  3.36597E-10  2.22728E-10  1.65185E-09  1.83413E-09  2.11013E-09
   1.18902E-09  1.18504E-09  1.35968E-09  2.00985E-09  2.35969E-09  1.85811E-09  1.86045E-09  1.20909E-09  1.14165E-09  1.52450E-09
   4.51437E-10  5.71933E-10  1.17059E-09  9.08730E-10  1.27557E-09  1.43392E-09  1.37278E-09  1.60356E-09  1.51596E-09  1.53147E-09
   1.49773E-09  9.95396E-10  1.82652E-09  2.80022E-09  4.05646E-09  5.29977E-09  5.99219E-09  7.60861E-09  9.54696E-09  1.02552E-08
   6.22916E-09  2.13349E-09 -1.01153E-09 -2.43041E-09 -3.46700E-09 -4.73158E-09 -5.06402E-09 -5.74214E-09 -6.54177E-09 -7.17903E-09
  -7.01239E-09 -7.83203E-09 -8.52115E-09 -9.03930E-09 -9.69002E-09 -1.00627E-08 -1.09659E-08 -1.13616E-08 -1.19204E-08 -1.22795E-08
  -1.34342E-08 -1.36850E-08 -1.44140E-08 -1.49221E-08 -1.55216E-08 -1.54938E-08 -1.59660E-08 -1.49023E-08 -1.45906E-08 -1.40664E-08
  -1.28339E-08 -1.18702E-08 -1.01883E-08 -9.47648E-09 -7.38846E-09 -6.69153E-09 -5.12100E-09 -3.01261E-09 -2.36043E-09 -3.31316E-10
  -8.29412E-10  4.34489E-10  1.09506E-09  1.10860E-09  2.12301E-10  9.42869E-10 -2.98376E-10  1.29608E-10 -1.06142E-09 -6.10996E-10
  -4.28697E-10 -1.47413E-09 -1.17507E-09 -2.34304E-10 -6.58129E-10 -3.72869E-10 -4.01179E-10 -9.01174E-10 -5.85346E-10 -1.20518E-09
  -1.03357E-09 -1.36840E-09 -1.06529E-09 -1.11453E-09 -7.72928E-10 -3.92842E-10 -4.35313E-10 -4.23845E-10 -5.39613E-10 -1.16691E-09
  -4.70372E-10 -8.16957E-10 -1.05226E-09 -1.31597E-09 -1.16579E-09 -6.63162E-10 -8.37752E-10  1.72892E-10 -4.24666E-10 -1.05455E-10
  -1.89036E-10  1.06860E-10 -4.97604E-10 -3.54937E-10 -5.82848E-10 -1.25259E-09 -8.98080E-10 -1.43170E-09 -7.61350E-10 -1.33830E-09
  -1.46038E-09 -9.72843E-10 -5.86166E-10 -7.67280E-10 -2.50246E-10 -1.88734E-10  9.79126E-11  9.81265E-10  2.15637E-10  3.52157E-10
   9.81803E-12  3.45523E-10  5.98347E-10 -9.36873E-11 -1.33712E-10 -1.09588E-10 -6.07461E-10 -5.22154E-10 -1.29393E-09 -7.69898E-10
  -9.95498E-10 -9.49567E-10 -6.76498E-10 -9.21950E-10 -3.99910E-10 -6.80077E-10 -7.56771E-10 -1.20809E-10 -8.52030E-10 -7.10973E-10
  -3.58500E-10 -2.95817E-10 -1.97565E-10 -2.19709E-11 -1.22241E-10 -8.44096E-10 -6.88009E-10 -3.77855E-10 -1.07955E-10 -7.31070E-10
  -3.22619E-10 -3.44853E-10 -2.32529E-10 -3.94064E-10 -9.26790E-10  7.86777E-12 -4.65026E-10 -6.86033E-10 -1.34808E-10 -1.58386E-10
  -1.16900E-13 -1.85127E-10  5.97367E-10 -5.39996E-10  3.49526E-10 -3.14834E-10  5.04267E-10  1.86638E-10 -4.63204E-10  2.78318E-10
   3.16492E-10  3.84729E-10  2.91280E-10  2.36234E-11 -2.76876E-11  2.03463E-10  2.47973E-10  7.07406E-10  2.58927E-10  1.36313E-10
   3.00542E-10  3.83556E-10  4.07922E-11  5.74539E-10  5.99149E-11  2.58965E-11  5.30927E-10  2.46536E-10  5.66673E-10  3.72802E-10
   3.31516E-10  4.74680E-10  1.06483E-09  9.18288E-11  6.20745E-10  1.33867E-10  4.02006E-10  6.52410E-10  2.66461E-10  7.55677E-10
   2.59382E-10  1.89400E-10  1.19801E-09
 NY points of the fit to the data follow
   1.13410E-08  1.13267E-08  1.03941E-08  1.07874E-08  1.14760E-08  1.22974E-08  1.28251E-08  1.35624E-08  1.33471E-08  1.17967E-08
   1.14357E-08  1.02522E-08  9.25360E-09  8.95566E-09  8.29834E-09  7.91871E-09  7.57514E-09  7.48030E-09  7.54438E-09  7.70544E-09
   8.01436E-09  8.32682E-09  8.61526E-09  9.12544E-09  8.87224E-09  7.55376E-09  6.72499E-09  6.36582E-09  6.19172E-09  6.25147E-09
   6.39513E-09  6.89960E-09  7.78863E-09  7.94140E-09  6.47570E-09  5.36462E-09  5.46720E-09  5.69874E-09  5.91861E-09  6.14713E-09
   6.40104E-09  6.77243E-09  5.39555E-09  3.78681E-09  3.49440E-09  3.28296E-09  2.75535E-09  2.32803E-09  2.08320E-09  1.96865E-09
   1.91500E-09  1.88133E-09  1.84381E-09  1.78776E-09  1.72987E-09  1.70486E-09  1.77792E-09  1.92968E-09  2.14545E-09  2.45938E-09
   2.75869E-09  2.82250E-09  3.21338E-09  3.75393E-09  4.13609E-09  4.75719E-09  5.46441E-09  6.27637E-09  7.28913E-09  7.97252E-09
   7.90964E-09  7.93039E-09  8.36321E-09  7.03913E-09  5.34405E-09  4.56543E-09  3.31239E-09  3.01947E-09  3.15619E-09  3.33862E-09
   3.78079E-09  4.33404E-09  5.07686E-09  5.89587E-09  6.00201E-09  6.08665E-09  6.22902E-09  5.63640E-09  4.01917E-09  2.81426E-09
   2.31707E-09  1.80071E-09  1.76773E-09  1.40495E-09  9.31718E-10  1.02863E-09  8.62471E-10  4.77641E-10  3.76929E-10  2.64651E-10
   1.14588E-10  1.17667E-11 -6.11828E-11 -1.14314E-10 -1.52469E-10 -1.81345E-10 -2.02897E-10 -2.18486E-10 -2.29168E-10 -2.35598E-10
  -2.38700E-10 -2.39274E-10 -2.37708E-10 -2.34422E-10 -2.29711E-10 -2.23589E-10 -2.16525E-10 -2.08817E-10 -2.00688E-10 -1.92367E-10
  -1.84061E-10 -1.75887E-10 -1.68051E-10 -1.60737E-10 -1.54111E-10 -1.48319E-10 -1.43536E-10 -1.39920E-10 -1.37599E-10 -1.36733E-10
  -1.37467E-10 -1.39937E-10 -1.44280E-10 -1.50636E-10 -1.59142E-10 -1.69932E-10 -1.83141E-10 -1.98910E-10 -2.17366E-10 -2.38638E-10
  -2.62852E-10 -2.90129E-10 -3.20598E-10 -3.54402E-10 -3.91658E-10 -4.32485E-10 -4.77005E-10 -5.25324E-10 -5.77561E-10 -6.33827E-10
  -6.94224E-10 -7.58853E-10 -8.27793E-10 -9.01107E-10 -9.78850E-10 -1.06104E-09 -1.14761E-09 -1.23818E-09 -1.33215E-09 -1.42874E-09
  -1.52689E-09 -1.62491E-09 -1.71994E-09 -1.80630E-09 -1.87053E-09 -1.87077E-09 -1.60499E-09 -5.09251E-10  3.93610E-10  3.60137E-10
   1.76985E-10  4.81027E-10  1.52073E-09  2.96747E-09  4.77418E-09  7.37452E-09  1.03496E-08  1.06504E-08  4.76753E-09 -9.02619E-10
  -2.49799E-09 -3.18465E-09 -3.59374E-09 -3.88564E-09 -4.11729E-09 -4.31353E-09 -4.48666E-09 -4.64339E-09 -4.78759E-09 -4.92162E-09
  -5.04693E-09 -5.16443E-09 -5.27468E-09 -5.37803E-09 -5.47465E-09 -5.56463E-09 -5.64793E-09 -5.72453E-09 -5.79430E-09 -5.85711E-09
  -5.91281E-09 -5.96120E-09 -6.00211E-09 -6.03533E-09 -6.06063E-09 -6.07781E-09 -6.08663E-09 -6.08685E-09 -6.07839E-09 -6.06147E-09
  -6.03639E-09 -6.00343E-09 -5.96289E-09 -5.91504E-09 -5.86018E-09 -5.79858E-09 -5.73053E-09 -5.65631E-09 -5.57619E-09 -5.49046E-09
  -5.39940E-09 -5.30327E-09 -5.20237E-09 -5.09696E-09 -4.98732E-09 -4.87373E-09 -4.75646E-09 -4.63578E-09 -4.51198E-09 -4.38532E-09
  -4.25609E-09 -4.12455E-09 -3.99098E-09 -3.85566E-09 -3.71885E-09 -3.58083E-09 -3.44187E-09 -3.30225E-09 -3.16224E-09 -3.02212E-09
  -2.88214E-09 -2.74259E-09 -2.60375E-09 -2.46587E-09 -2.32924E-09 -2.19413E-09 -2.06081E-09 -1.92954E-09 -1.80061E-09 -1.67429E-09
  -1.55083E-09 -1.43053E-09 -1.31366E-09 -1.20046E-09 -1.09124E-09 -9.86239E-10 -8.85753E-10 -7.90045E-10 -6.99375E-10 -6.14032E-10
  -5.34076E-10 -4.59389E-10 -3.89837E-10 -3.25258E-10 -2.65514E-10 -2.10469E-10 -1.59969E-10 -1.13882E-10 -7.20477E-11 -3.43348E-11
  -6.06015E-13  2.93010E-11  5.55060E-11  7.81803E-11  9.74611E-11  1.13467E-10  1.26370E-10  1.36298E-10  1.43414E-10  1.47828E-10
   1.49721E-10  1.49194E-10  1.46444E-10  1.41583E-10  1.34738E-10  1.26072E-10  1.15747E-10  1.03884E-10  9.06169E-11  7.60924E-11
   6.04727E-11  4.39022E-11  2.65182E-11  8.43026E-12 -1.01639E-11 -2.91713E-11 -4.84036E-11 -6.77423E-11 -8.70333E-11 -1.06158E-10
  -1.24962E-10 -1.43259E-10 -1.60981E-10 -1.77922E-10 -1.93965E-10 -2.08989E-10 -2.22825E-10 -2.35301E-10 -2.46352E-10 -2.55755E-10
  -2.63426E-10 -2.69236E-10 -2.73112E-10 -2.75150E-10 -2.75405E-10 -2.73935E-10 -2.70797E-10 -2.66051E-10 -2.59752E-10 -2.51959E-10
  -2.42727E-10 -2.32118E-10 -2.20188E-10 -2.06993E-10 -1.92591E-10 -1.77040E-10 -1.60398E-10 -1.42722E-10 -1.24070E-10 -1.04500E-10
  -8.40663E-11 -6.28286E-11 -4.08469E-11 -1.81737E-11  5.12995E-12  2.90078E-11  5.34039E-11  7.82587E-11  1.03515E-10  1.29117E-10
   1.55007E-10  1.81125E-10  2.07417E-10  2.33826E-10  2.60290E-10  2.86757E-10  3.13170E-10  3.39465E-10  3.65592E-10  3.91487E-10
   4.17102E-10  4.42372E-10  4.67244E-10  4.91658E-10  5.15555E-10  5.38887E-10  5.61591E-10  5.83605E-10  6.04880E-10  6.25356E-10
   6.44974E-10  6.63679E-10  6.81414E-10
 NY background values follow
     5.610E-09    5.506E-09    5.400E-09    5.295E-09    5.189E-09    5.083E-09    4.976E-09    4.869E-09    4.762E-09    4.655E-09
     4.548E-09    4.440E-09    4.333E-09    4.226E-09    4.118E-09    4.011E-09    3.904E-09    3.797E-09    3.691E-09    3.584E-09
     3.479E-09    3.373E-09    3.268E-09    3.163E-09    3.059E-09    2.955E-09    2.852E-09    2.749E-09    2.648E-09    2.546E-09
     2.446E-09    2.347E-09    2.248E-09    2.150E-09    2.053E-09    1.957E-09    1.862E-09    1.769E-09    1.676E-09    1.585E-09
     1.494E-09    1.405E-09    1.317E-09    1.231E-09    1.146E-09    1.062E-09    9.799E-10    8.991E-10    8.200E-10    7.425E-10
     6.665E-10    5.922E-10    5.197E-10    4.489E-10    3.799E-10    3.126E-10    2.470E-10    1.831E-10    1.210E-10    6.059E-11
     1.873E-12   -5.515E-11   -1.105E-10   -1.641E-10   -2.161E-10   -2.664E-10   -3.151E-10   -3.621E-10   -4.075E-10   -4.512E-10
    -4.933E-10   -5.337E-10   -5.726E-10   -6.098E-10   -6.454E-10   -6.795E-10   -7.119E-10   -7.428E-10   -7.721E-10   -7.998E-10
    -8.260E-10   -8.506E-10   -8.736E-10   -8.952E-10   -9.151E-10   -9.336E-10   -9.506E-10   -9.660E-10   -9.799E-10   -9.924E-10
    -1.003E-09   -1.013E-09   -1.021E-09   -1.027E-09   -1.032E-09   -1.036E-09   -1.038E-09   -1.039E-09   -1.038E-09   -1.036E-09
    -1.032E-09   -1.027E-09   -1.021E-09   -1.013E-09   -1.004E-09   -9.938E-10   -9.821E-10   -9.694E-10   -9.557E-10   -9.413E-10
    -9.261E-10   -9.103E-10   -8.942E-10   -8.777E-10   -8.610E-10   -8.442E-10   -8.275E-10   -8.110E-10   -7.947E-10   -7.789E-10
    -7.637E-10   -7.491E-10   -7.353E-10   -7.225E-10   -7.107E-10   -7.001E-10   -6.907E-10   -6.828E-10   -6.765E-10   -6.718E-10
    -6.689E-10   -6.679E-10   -6.690E-10   -6.723E-10   -6.778E-10   -6.857E-10   -6.962E-10   -7.094E-10   -7.254E-10   -7.442E-10
    -7.661E-10   -7.912E-10   -8.196E-10   -8.514E-10   -8.867E-10   -9.256E-10   -9.684E-10   -1.015E-09   -1.066E-09   -1.121E-09
    -1.180E-09   -1.243E-09   -1.311E-09   -1.384E-09   -1.462E-09   -1.544E-09   -1.631E-09   -1.724E-09   -1.820E-09   -1.921E-09
    -2.026E-09   -2.135E-09   -2.248E-09   -2.363E-09   -2.482E-09   -2.603E-09   -2.727E-09   -2.852E-09   -2.980E-09   -3.110E-09
    -3.241E-09   -3.372E-09   -3.505E-09   -3.639E-09   -3.772E-09   -3.906E-09   -4.040E-09   -4.173E-09   -4.305E-09   -4.437E-09
    -4.567E-09   -4.696E-09   -4.823E-09   -4.948E-09   -5.070E-09   -5.190E-09   -5.307E-09   -5.421E-09   -5.532E-09   -5.639E-09
    -5.742E-09   -5.842E-09   -5.936E-09   -6.026E-09   -6.111E-09   -6.191E-09   -6.266E-09   -6.334E-09   -6.397E-09   -6.454E-09
    -6.504E-09   -6.547E-09   -6.583E-09   -6.612E-09   -6.633E-09   -6.647E-09   -6.652E-09   -6.649E-09   -6.638E-09   -6.618E-09
    -6.590E-09   -6.555E-09   -6.512E-09   -6.462E-09   -6.405E-09   -6.341E-09   -6.272E-09   -6.196E-09   -6.114E-09   -6.026E-09
    -5.934E-09   -5.836E-09   -5.734E-09   -5.627E-09   -5.516E-09   -5.401E-09   -5.283E-09   -5.161E-09   -5.036E-09   -4.909E-09
    -4.778E-09   -4.646E-09   -4.511E-09   -4.375E-09   -4.237E-09   -4.098E-09   -3.958E-09   -3.818E-09   -3.677E-09   -3.536E-09
    -3.396E-09   -3.255E-09   -3.116E-09   -2.977E-09   -2.840E-09   -2.704E-09   -2.570E-09   -2.438E-09   -2.308E-09   -2.182E-09
    -2.057E-09   -1.937E-09   -1.819E-09   -1.705E-09   -1.595E-09   -1.490E-09   -1.389E-09   -1.293E-09   -1.201E-09   -1.116E-09
    -1.035E-09   -9.599E-10   -8.898E-10   -8.247E-10   -7.645E-10   -7.090E-10   -6.580E-10   -6.114E-10   -5.691E-10   -5.309E-10
    -4.967E-10   -4.664E-10   -4.397E-10   -4.166E-10   -3.969E-10   -3.804E-10   -3.671E-10   -3.568E-10   -3.492E-10   -3.444E-10
    -3.421E-10   -3.422E-10   -3.445E-10   -3.490E-10   -3.554E-10   -3.637E-10   -3.736E-10   -3.851E-10   -3.979E-10   -4.121E-10
    -4.273E-10   -4.435E-10   -4.605E-10   -4.782E-10   -4.964E-10   -5.150E-10   -5.339E-10   -5.528E-10   -5.717E-10   -5.905E-10
    -6.089E-10   -6.269E-10   -6.442E-10   -6.608E-10   -6.765E-10   -6.911E-10   -7.046E-10   -7.167E-10   -7.274E-10   -7.364E-10
    -7.437E-10   -7.492E-10   -7.527E-10   -7.544E-10   -7.543E-10   -7.524E-10   -7.489E-10   -7.438E-10   -7.372E-10   -7.290E-10
    -7.194E-10   -7.085E-10   -6.962E-10   -6.826E-10   -6.679E-10   -6.519E-10   -6.349E-10   -6.169E-10   -5.979E-10   -5.780E-10
    -5.572E-10   -5.356E-10   -5.132E-10   -4.902E-10   -4.666E-10   -4.423E-10   -4.176E-10   -3.923E-10   -3.667E-10   -3.408E-10
    -3.145E-10   -2.880E-10   -2.614E-10   -2.346E-10   -2.078E-10   -1.810E-10   -1.542E-10   -1.275E-10   -1.010E-10   -7.476E-11
    -4.877E-11   -2.313E-11    2.107E-12    2.689E-11    5.116E-11    7.486E-11    9.794E-11    1.203E-10    1.420E-10    1.628E-10
     1.828E-10    2.019E-10    2.200E-10
 GABA     Conc. = 6.32E-10
   5.68562E-09  5.58170E-09  5.47737E-09  5.37270E-09  5.26770E-09  5.16247E-09  5.05702E-09  4.95142E-09  4.84573E-09  4.74000E-09
   4.63430E-09  4.52869E-09  4.42323E-09  4.31798E-09  4.21308E-09  4.10853E-09  4.00445E-09  3.90105E-09  3.79841E-09  3.69662E-09
   3.59595E-09  3.49670E-09  3.39908E-09  3.30374E-09  3.21146E-09  3.12321E-09  3.04199E-09  2.97322E-09  2.93171E-09  2.93900E-09
   2.84387E-09  2.79616E-09  2.89928E-09  2.90257E-09  2.87794E-09  2.94952E-09  3.06603E-09  3.22335E-09  3.27898E-09  3.10082E-09
   2.82224E-09  3.13097E-09  2.93460E-09  2.06653E-09  2.01274E-09  2.01302E-09  1.51237E-09  1.25088E-09  1.08762E-09  9.64315E-10
   8.61548E-10  7.70984E-10  6.89031E-10  6.14095E-10  5.45064E-10  4.81143E-10  4.22545E-10  3.69769E-10  3.24657E-10  2.91963E-10
   2.79716E-10  3.16280E-10  3.27335E-10  2.86725E-10  3.72431E-10  4.60737E-10  4.82839E-10  5.49307E-10  6.74968E-10  8.62723E-10
   1.02164E-09  9.90012E-10  7.10349E-10  6.81892E-10  7.75486E-10  1.36481E-10 -2.57390E-10 -1.82571E-10 -3.47749E-10 -5.18320E-10
  -5.86294E-10 -6.58077E-10 -6.49254E-10 -5.88910E-10 -5.92947E-10 -5.67599E-10 -5.02876E-10 -4.35145E-10 -3.01554E-10 -2.07970E-10
  -2.59850E-10 -1.79163E-10  8.78746E-11 -7.14319E-11 -2.96964E-10 -8.72368E-11 -1.78758E-10 -4.57194E-10 -4.83826E-10 -5.40604E-10
  -6.45152E-10 -7.09621E-10 -7.50232E-10 -7.76272E-10 -7.92521E-10 -8.02132E-10 -8.06718E-10 -8.07334E-10 -8.04737E-10 -7.99325E-10
  -7.91809E-10 -7.82820E-10 -7.72599E-10 -7.61450E-10 -7.49567E-10 -7.36877E-10 -7.23778E-10 -7.10508E-10 -6.97236E-10 -6.84145E-10
  -6.71404E-10 -6.59096E-10 -6.47395E-10 -6.36459E-10 -6.26430E-10 -6.17432E-10 -6.09625E-10 -6.03150E-10 -5.98119E-10 -5.94678E-10
  -5.92963E-10 -5.93100E-10 -5.95216E-10 -5.99442E-10 -6.05908E-10 -6.14740E-10 -6.26070E-10 -6.40032E-10 -6.56749E-10 -6.76347E-10
  -6.98951E-10 -7.24678E-10 -7.53659E-10 -7.86034E-10 -8.21924E-10 -8.61452E-10 -9.04744E-10 -9.51910E-10 -1.00308E-09 -1.05838E-09
  -1.11794E-09 -1.18187E-09 -1.25030E-09 -1.32334E-09 -1.40109E-09 -1.48368E-09 -1.57117E-09 -1.66334E-09 -1.75989E-09 -1.86047E-09
  -1.96468E-09 -2.07200E-09 -2.18169E-09 -2.29239E-09 -2.40092E-09 -2.49641E-09 -2.51706E-09 -2.43831E-09 -2.53055E-09 -2.67636E-09
  -2.79081E-09 -2.80496E-09 -2.74159E-09 -2.65287E-09 -2.48236E-09 -2.19293E-09 -2.00826E-09 -2.54451E-09 -3.73877E-09 -4.12934E-09
  -4.35209E-09 -4.52576E-09 -4.67863E-09 -4.82018E-09 -4.95427E-09 -5.08267E-09 -5.20621E-09 -5.32527E-09 -5.44000E-09 -5.55039E-09
  -5.65635E-09 -5.75776E-09 -5.85442E-09 -5.94616E-09 -6.03274E-09 -6.11396E-09 -6.18957E-09 -6.25934E-09 -6.32301E-09 -6.38036E-09
  -6.43111E-09 -6.47503E-09 -6.51185E-09 -6.54133E-09 -6.56320E-09 -6.57720E-09 -6.58308E-09 -6.58058E-09 -6.56958E-09 -6.55029E-09
  -6.52298E-09 -6.48794E-09 -6.44544E-09 -6.39574E-09 -6.33913E-09 -6.27588E-09 -6.20626E-09 -6.13055E-09 -6.04902E-09 -5.96194E-09
  -5.86958E-09 -5.77222E-09 -5.67013E-09 -5.56359E-09 -5.45286E-09 -5.33823E-09 -5.21995E-09 -5.09831E-09 -4.97358E-09 -4.84602E-09
  -4.71591E-09 -4.58354E-09 -4.44915E-09 -4.31304E-09 -4.17547E-09 -4.03670E-09 -3.89702E-09 -3.75670E-09 -3.61601E-09 -3.47522E-09
  -3.33459E-09 -3.19441E-09 -3.05495E-09 -2.91647E-09 -2.77926E-09 -2.64357E-09 -2.50969E-09 -2.37787E-09 -2.24840E-09 -2.12154E-09
  -1.99757E-09 -1.87677E-09 -1.75939E-09 -1.64571E-09 -1.53600E-09 -1.43053E-09 -1.32957E-09 -1.23341E-09 -1.14229E-09 -1.05650E-09
  -9.76105E-10 -9.00985E-10 -8.31007E-10 -7.66007E-10 -7.05849E-10 -6.50394E-10 -5.99490E-10 -5.53002E-10 -5.10773E-10 -4.72669E-10
  -4.38553E-10 -4.08264E-10 -3.81680E-10 -3.58630E-10 -3.38978E-10 -3.22604E-10 -3.09337E-10 -2.99047E-10 -2.91572E-10 -2.86802E-10
  -2.84557E-10 -2.84734E-10 -2.87135E-10 -2.91651E-10 -2.98153E-10 -3.06478E-10 -3.16464E-10 -3.27991E-10 -3.40923E-10 -3.55114E-10
  -3.70403E-10 -3.86644E-10 -4.03700E-10 -4.21461E-10 -4.39730E-10 -4.58413E-10 -4.77323E-10 -4.96341E-10 -5.15312E-10 -5.34117E-10
  -5.52604E-10 -5.70584E-10 -5.87990E-10 -6.04616E-10 -6.20344E-10 -6.35055E-10 -6.48578E-10 -6.60743E-10 -6.71483E-10 -6.80575E-10
  -6.87935E-10 -6.93435E-10 -6.97002E-10 -6.98730E-10 -6.98677E-10 -6.96899E-10 -6.93453E-10 -6.88398E-10 -6.81792E-10 -6.73691E-10
  -6.64151E-10 -6.53236E-10 -6.40997E-10 -6.27495E-10 -6.12786E-10 -5.96928E-10 -5.79978E-10 -5.61994E-10 -5.43033E-10 -5.23155E-10
  -5.02413E-10 -4.80867E-10 -4.58577E-10 -4.35594E-10 -4.11981E-10 -3.87793E-10 -3.63087E-10 -3.37921E-10 -3.12354E-10 -2.86440E-10
  -2.60238E-10 -2.33807E-10 -2.07201E-10 -1.80478E-10 -1.53700E-10 -1.26918E-10 -1.00189E-10 -7.35771E-11 -4.71330E-11 -2.09192E-11
   5.01461E-12  3.06046E-11  5.57967E-11  8.05316E-11  1.04752E-10  1.28407E-10  1.51435E-10  1.73774E-10  1.95375E-10  2.16178E-10
   2.36124E-10  2.55159E-10  2.73223E-10
 Glc      Conc. = 1.06E-09
   7.97990E-09  7.87194E-09  7.77746E-09  8.06704E-09  8.41178E-09  8.70167E-09  8.53359E-09  8.56399E-09  8.09329E-09  7.21601E-09
   6.79731E-09  6.51030E-09  6.21690E-09  6.33303E-09  6.61795E-09  6.61798E-09  6.46522E-09  6.50234E-09  6.59800E-09  6.79876E-09
   7.13157E-09  7.42287E-09  7.60493E-09  7.79295E-09  7.23209E-09  5.76767E-09  4.78337E-09  4.24142E-09  4.00470E-09  3.95636E-09
   3.74405E-09  3.45973E-09  3.39221E-09  3.27026E-09  2.89027E-09  2.67587E-09  2.57384E-09  2.34437E-09  2.09899E-09  1.92774E-09
   1.79206E-09  1.67037E-09  1.55931E-09  1.45492E-09  1.35557E-09  1.26047E-09  1.16888E-09  1.08038E-09  9.94643E-10  9.11481E-10
   8.30682E-10  7.52203E-10  6.75962E-10  6.01920E-10  5.30000E-10  4.60124E-10  3.92251E-10  3.26332E-10  2.62333E-10  2.00216E-10
   1.39962E-10  8.15388E-11  2.49202E-11 -2.99053E-11 -8.29526E-11 -1.34259E-10 -1.83822E-10 -2.31668E-10 -2.77801E-10 -3.22236E-10
  -3.64991E-10 -4.06073E-10 -4.45496E-10 -4.83271E-10 -5.19404E-10 -5.53912E-10 -5.86796E-10 -6.18066E-10 -6.47757E-10 -6.75840E-10
  -7.02344E-10 -7.27269E-10 -7.50645E-10 -7.72452E-10 -7.92703E-10 -8.11430E-10 -8.28615E-10 -8.44287E-10 -8.58441E-10 -8.71080E-10
  -8.82228E-10 -8.91871E-10 -9.00050E-10 -9.06736E-10 -9.11952E-10 -9.15721E-10 -9.18037E-10 -9.18904E-10 -9.18325E-10 -9.16324E-10
  -9.12876E-10 -9.08042E-10 -9.01796E-10 -8.94132E-10 -8.85108E-10 -8.74748E-10 -8.63194E-10 -8.50570E-10 -8.37002E-10 -8.22613E-10
  -8.07530E-10 -7.91875E-10 -7.75774E-10 -7.59351E-10 -7.42731E-10 -7.26039E-10 -7.09399E-10 -6.92935E-10 -6.76773E-10 -6.61036E-10
  -6.45848E-10 -6.31336E-10 -6.17623E-10 -6.04834E-10 -5.93092E-10 -5.82522E-10 -5.73249E-10 -5.65397E-10 -5.59089E-10 -5.54452E-10
  -5.51608E-10 -5.50681E-10 -5.51797E-10 -5.55078E-10 -5.60650E-10 -5.68634E-10 -5.79157E-10 -5.92340E-10 -6.08309E-10 -6.27186E-10
  -6.49094E-10 -6.74157E-10 -7.02496E-10 -7.34237E-10 -7.69498E-10 -8.08401E-10 -8.51070E-10 -8.97622E-10 -9.48178E-10 -1.00286E-09
  -1.06177E-09 -1.12504E-09 -1.19277E-09 -1.26506E-09 -1.34203E-09 -1.42376E-09 -1.51030E-09 -1.60141E-09 -1.69675E-09 -1.79590E-09
  -1.89840E-09 -2.00362E-09 -2.11062E-09 -2.21778E-09 -2.32161E-09 -2.41200E-09 -2.44427E-09 -2.19685E-09 -2.18590E-09 -2.33015E-09
  -2.47402E-09 -2.46868E-09 -2.29887E-09 -2.08400E-09 -1.77648E-09 -1.25576E-09 -6.68075E-10 -9.06329E-10 -2.92311E-09 -3.83006E-09
  -4.17955E-09 -4.40098E-09 -4.57689E-09 -4.73131E-09 -4.87331E-09 -5.00691E-09 -5.13405E-09 -5.25569E-09 -5.37232E-09 -5.48415E-09
  -5.59123E-09 -5.69351E-09 -5.79086E-09 -5.88315E-09 -5.97019E-09 -6.05177E-09 -6.12768E-09 -6.19769E-09 -6.26157E-09 -6.31909E-09
  -6.36998E-09 -6.41402E-09 -6.45094E-09 -6.48049E-09 -6.50242E-09 -6.51648E-09 -6.52241E-09 -6.51995E-09 -6.50897E-09 -6.48970E-09
  -6.46242E-09 -6.42739E-09 -6.38489E-09 -6.33520E-09 -6.27859E-09 -6.21534E-09 -6.14572E-09 -6.07000E-09 -5.98846E-09 -5.90137E-09
  -5.80900E-09 -5.71164E-09 -5.60954E-09 -5.50299E-09 -5.39225E-09 -5.27760E-09 -5.15931E-09 -5.03766E-09 -4.91291E-09 -4.78535E-09
