 LCModel (Version 6.3-1R) Copyright: S.W. Provencher.          Ref.: Magn. Reson. Med. 30:672-679 (1993).                
 onepulse 24x20_ftSpec_smooth_lcm
 26 lines in following concentration table = NCONC+1
    Conc.  %SD   /Cr    Metabolite                                         
    0.000 999%   0.000 Ala                                                 
    0.000 999%   0.000 Asp                                                 
    0.000 999%   0.000 Cr                                                  
 3.09E-09  14%   0.000 GABA                                                
 2.10E-09  20%   0.000 Glc                                                 
    0.000 999%   0.000 Gln                                                 
    0.000 999%   0.000 Glu                                                 
    0.000 999%   0.000 Glyc                                                
 1.60E-10  49%   0.000 GPC                                                 
 3.34E-10  77%   0.000 GSH                                                 
 4.97E-10  68%   0.000 Ins                                                 
    0.000 999%   0.000 Lac                                                 
    0.000 999%   0.000 NAAG                                                
 7.59E-10  28%   0.000 NAA                                                 
    0.000 999%   0.000 PCh                                                 
    0.000 999%   0.000 PCr                                                 
    0.000 999%   0.000 PE                                                  
    0.000 999%   0.000 Scyllo                                              
    0.000 999%   0.000 Ser                                                 
    0.000 999%   0.000 Tau                                                 
 1.60E-10  49%   0.000 GPC+PCh                                             
 7.59E-10  28%   0.000 NAA+NAAG                                            
 4.97E-10  68%   0.000 Ins+Glyc                                            
    0.000 999%   0.000 Cr+PCr                                              
    0.000 999%   0.000 Glu+Gln                                             
   6 lines in following misc. output table
  FWHM = 0.067 ppm    S/N =   3                                            
  Data shift = 0.291 ppm                                                   
  Ph:  32 deg      23.2 deg/ppm                                            
  alphaB,S = 6.1E-01,   2.9E+01                                            
    8 spline knots.   Ns = 5(1)                                            
  ( 9) 4 infls.   ( 5) 1 extrs.                                            
  363 points on ppm-axis = NY
      4.250000     4.238821     4.227641     4.216462     4.205282     4.194103     4.182923     4.171744     4.160564     4.149385
      4.138206     4.127026     4.115847     4.104667     4.093488     4.082308     4.071129     4.059949     4.048770     4.037591
      4.026411     4.015232     4.004052     3.992873     3.981693     3.970514     3.959334     3.948155     3.936975     3.925796
      3.914617     3.903437     3.892258     3.881078     3.869899     3.858719     3.847540     3.836360     3.825181     3.814002
      3.802822     3.791643     3.780463     3.769284     3.758104     3.746925     3.735745     3.724566     3.713387     3.702207
      3.691028     3.679848     3.668669     3.657489     3.646310     3.635130     3.623951     3.612772     3.601592     3.590413
      3.579233     3.568054     3.556874     3.545695     3.534515     3.523336     3.512156     3.500977     3.489798     3.478618
      3.467439     3.456259     3.445080     3.433900     3.422721     3.411541     3.400362     3.389183     3.378003     3.366824
      3.355644     3.344465     3.333285     3.322106     3.310926     3.299747     3.288568     3.277388     3.266209     3.255029
      3.243850     3.232670     3.221491     3.210311     3.199132     3.187953     3.176773     3.165594     3.154414     3.143235
      3.132055     3.120876     3.109696     3.098517     3.087337     3.076158     3.064979     3.053799     3.042620     3.031440
      3.020261     3.009081     2.997902     2.986722     2.975543     2.964364     2.953184     2.942005     2.930825     2.919646
      2.908466     2.897287     2.886107     2.874928     2.863749     2.852569     2.841390     2.830210     2.819031     2.807851
      2.796672     2.785492     2.774313     2.763134     2.751954     2.740775     2.729595     2.718416     2.707236     2.696057
      2.684877     2.673698     2.662519     2.651339     2.640160     2.628980     2.617801     2.606621     2.595442     2.584262
      2.573083     2.561903     2.550724     2.539545     2.528365     2.517186     2.506006     2.494827     2.483647     2.472468
      2.461288     2.450109     2.438930     2.427750     2.416571     2.405391     2.394212     2.383032     2.371853     2.360673
      2.349494     2.338315     2.327135     2.315956     2.304776     2.293597     2.282417     2.271238     2.260058     2.248879
      2.237700     2.226520     2.215341     2.204161     2.192982     2.181802     2.170623     2.159443     2.148264     2.137084
      2.125905     2.114726     2.103546     2.092367     2.081187     2.070008     2.058828     2.047649     2.036469     2.025290
      2.014111     2.002931     1.991752     1.980572     1.969393     1.958213     1.947034     1.935854     1.924675     1.913496
      1.902316     1.891137     1.879957     1.868778     1.857598     1.846419     1.835239     1.824060     1.812881     1.801701
      1.790522     1.779342     1.768163     1.756983     1.745804     1.734624     1.723445     1.712265     1.701086     1.689907
      1.678727     1.667548     1.656368     1.645189     1.634009     1.622830     1.611650     1.600471     1.589292     1.578112
      1.566933     1.555753     1.544574     1.533394     1.522215     1.511035     1.499856     1.488677     1.477497     1.466318
      1.455138     1.443959     1.432779     1.421600     1.410420     1.399241     1.388062     1.376882     1.365703     1.354523
      1.343344     1.332164     1.320985     1.309805     1.298626     1.287446     1.276267     1.265088     1.253908     1.242729
      1.231549     1.220370     1.209190     1.198011     1.186831     1.175652     1.164473     1.153293     1.142114     1.130934
      1.119755     1.108575     1.097396     1.086216     1.075037     1.063858     1.052678     1.041499     1.030319     1.019140
      1.007960     0.996781     0.985601     0.974422     0.963243     0.952063     0.940884     0.929704     0.918525     0.907345
      0.896166     0.884986     0.873807     0.862628     0.851448     0.840269     0.829089     0.817910     0.806730     0.795551
      0.784371     0.773192     0.762012     0.750833     0.739654     0.728474     0.717295     0.706115     0.694936     0.683756
      0.672577     0.661397     0.650218     0.639039     0.627859     0.616680     0.605500     0.594321     0.583141     0.571962
      0.560782     0.549603     0.538424     0.527244     0.516065     0.504885     0.493706     0.482526     0.471347     0.460167
      0.448988     0.437809     0.426629     0.415450     0.404270     0.393091     0.381911     0.370732     0.359552     0.348373
      0.337193     0.326014     0.314835     0.303655     0.292476     0.281296     0.270117     0.258937     0.247758     0.236578
      0.225399     0.214220     0.203040
 NY phased data points follow
   1.19470E-08  1.28031E-08  1.38762E-08  1.65303E-08  1.64935E-08  1.78522E-08  1.73804E-08  1.67310E-08  1.40452E-08  1.25297E-08
   1.14419E-08  1.04848E-08  9.62501E-09  1.02953E-08  8.82302E-09  1.04571E-08  1.03048E-08  1.05605E-08  1.05135E-08  1.12139E-08
   1.09932E-08  1.04072E-08  1.03025E-08  1.00138E-08  9.30711E-09  9.44633E-09  9.12427E-09  8.50269E-09  8.91593E-09  9.18924E-09
   9.66317E-09  1.02338E-08  8.64131E-09  8.61094E-09  8.32203E-09  9.06084E-09  9.79038E-09  1.05106E-08  1.09419E-08  9.39887E-09
   8.05616E-09  5.94141E-09  5.24326E-09  4.50235E-09  4.87824E-09  4.09416E-09  4.22301E-09  4.33036E-09  3.87210E-09  4.07686E-09
   3.94304E-09  3.61078E-09  3.35628E-09  3.28409E-09  3.77780E-09  4.81921E-09  4.52546E-09  5.34115E-09  4.56741E-09  4.09808E-09
   4.38170E-09  4.23553E-09  4.31467E-09  5.42100E-09  5.86646E-09  6.68843E-09  7.72947E-09  9.71564E-09  1.12134E-08  1.24967E-08
   1.10579E-08  8.70006E-09  6.54642E-09  4.79804E-09  4.00998E-09  3.70281E-09  2.65074E-09  3.18551E-09  3.28628E-09  2.94232E-09
   3.40738E-09  4.76218E-09  5.76844E-09  7.80214E-09  1.04424E-08  1.21566E-08  1.20872E-08  9.90934E-09  7.77367E-09  6.04692E-09
   4.92152E-09  4.76009E-09  4.25609E-09  3.52908E-09  3.56776E-09  2.65641E-09  2.37725E-09  2.08883E-09  2.34753E-09  1.66337E-09
   1.05265E-09  1.78630E-09  1.07708E-09  1.27509E-09  1.25822E-09  1.16456E-09  1.60641E-09  1.27966E-09  1.78660E-09  1.20229E-09
   1.62615E-09  1.32178E-09  1.05793E-09  1.02050E-09  6.10664E-10  2.97200E-10  2.46984E-11  7.32891E-10  1.70177E-09  1.95587E-09
   1.38212E-09  1.62410E-09  2.14763E-09  2.03507E-09  2.44237E-09  1.98299E-09  1.56904E-09  1.08407E-09  8.42759E-10 -1.12223E-10
   5.81551E-10 -4.87586E-10  2.97398E-10  5.00592E-10  1.91383E-09  8.93098E-10  1.17207E-09  1.46060E-09  1.60939E-09  7.54534E-10
   1.03311E-09  8.39122E-10  1.29295E-09  9.44343E-10  2.29573E-09  2.65304E-09  2.95339E-09  3.25246E-09  3.16561E-09  2.54606E-09
   3.33645E-09  3.42944E-09  3.46394E-09  3.49410E-09  3.97244E-09  2.62771E-09  3.62844E-09  3.32454E-09  2.88895E-09  3.38189E-09
   3.38617E-09  3.51879E-09  4.09891E-09  4.13549E-09  4.46454E-09  4.03794E-09  4.47333E-09  4.27698E-09  4.16908E-09  4.39437E-09
   5.36612E-09  5.74172E-09  7.25322E-09  9.12768E-09  1.10772E-08  1.27292E-08  1.40411E-08  1.34502E-08  1.09358E-08  7.44267E-09
   4.66849E-09  2.98330E-09  1.48282E-09  1.23324E-09  2.01122E-10 -1.44722E-10 -1.03153E-09 -1.73155E-09 -2.11582E-09 -3.08848E-09
  -3.00224E-09 -4.16224E-09 -4.26014E-09 -5.28302E-09 -5.98356E-09 -6.68309E-09 -7.14318E-09 -8.70955E-09 -8.55822E-09 -1.08131E-08
  -1.11093E-08 -1.27203E-08 -1.37791E-08 -1.45062E-08 -1.52444E-08 -1.61259E-08 -1.66184E-08 -1.70357E-08 -1.66726E-08 -1.66023E-08
  -1.62015E-08 -1.46810E-08 -1.39613E-08 -1.24176E-08 -1.09664E-08 -8.80418E-09 -6.86856E-09 -6.02860E-09 -3.78069E-09 -2.76524E-09
  -1.31376E-09 -4.56021E-10  7.70615E-10  9.41250E-10  9.62449E-10  6.04556E-10  3.17353E-10  6.68542E-11 -5.38133E-10 -1.67594E-09
  -8.22432E-10 -1.18885E-09 -7.95908E-10 -2.64715E-10 -1.71281E-10 -4.19357E-10 -8.49930E-10  2.00480E-11 -9.63905E-10 -1.32852E-09
  -1.28724E-09 -1.22712E-09 -9.93778E-10 -4.46931E-10 -6.56006E-10 -4.60659E-10  1.36181E-11 -6.10496E-10 -7.19097E-10 -3.74223E-10
  -1.09809E-09 -1.15228E-09 -9.88987E-10 -8.30917E-10 -7.33975E-10 -5.69415E-10 -2.81238E-10 -4.00160E-10 -4.52629E-10  1.68822E-10
  -2.66310E-10 -5.81158E-11 -2.72179E-10 -3.22812E-10 -5.68573E-10 -8.15415E-10 -9.67418E-10 -1.52741E-09 -1.33765E-09 -1.08246E-09
  -5.57746E-10 -9.14214E-10 -6.09974E-10 -1.22314E-10  3.75876E-10  1.93526E-10  6.52085E-10  3.79752E-10  9.68535E-11  3.34760E-10
   4.57154E-10 -1.00208E-10 -8.45274E-11 -2.41239E-10 -4.77781E-10 -7.69901E-10 -6.26401E-10 -2.13810E-10 -8.45280E-10 -8.19606E-10
  -6.10179E-10 -6.37938E-10 -3.77376E-10 -8.14891E-10  3.41334E-10 -6.33147E-10 -2.05109E-10 -2.87635E-10  1.77155E-10 -7.78783E-10
   4.28827E-10 -1.53987E-10 -6.47233E-10 -9.69042E-10 -2.95564E-10 -9.72419E-10 -3.11496E-10 -3.59934E-10 -2.42472E-10 -1.43797E-10
  -6.49642E-10 -3.41437E-10 -1.65254E-11 -5.31440E-10 -2.49139E-10 -2.23130E-10 -3.90231E-10  7.78566E-11 -1.47766E-10  1.80901E-10
  -5.11782E-11 -2.70205E-10 -1.24256E-10 -6.44513E-11  2.92433E-10 -6.99725E-10 -1.47361E-10 -5.54783E-11  3.90934E-10 -1.01922E-10
  -8.61122E-11  1.40460E-11 -1.37630E-10 -7.63320E-10  1.00107E-09 -1.20237E-12 -2.39019E-10  2.99326E-11  4.26450E-10  4.27810E-10
   4.66500E-10 -4.09062E-10  4.07458E-10  1.92233E-12 -1.53016E-10  6.84961E-11  5.40047E-10  6.33579E-10 -5.15023E-10  7.10255E-10
   8.85002E-11 -9.38028E-11  3.08455E-10 -2.26973E-11  8.51285E-10  1.77724E-10  4.72603E-10  3.28217E-10  5.87610E-10  3.54771E-10
   6.45195E-10  1.07352E-10  7.78233E-10
 NY points of the fit to the data follow
   1.42297E-08  1.42314E-08  1.44032E-08  1.48623E-08  1.51953E-08  1.51673E-08  1.44722E-08  1.33981E-08  1.19259E-08  1.06674E-08
   1.05687E-08  1.07739E-08  1.10934E-08  1.15370E-08  1.17875E-08  1.18516E-08  1.19090E-08  1.17805E-08  1.13676E-08  1.12166E-08
   1.14946E-08  1.16051E-08  1.12005E-08  1.04525E-08  9.13545E-09  7.87975E-09  7.58283E-09  8.09457E-09  8.98852E-09  9.97468E-09
   1.05043E-08  1.04124E-08  1.00586E-08  9.26074E-09  8.40941E-09  8.80827E-09  9.41294E-09  9.66215E-09  9.49235E-09  9.05118E-09
   8.51486E-09  8.02471E-09  6.80027E-09  4.99553E-09  4.24837E-09  3.80435E-09  2.87090E-09  2.36269E-09  2.48937E-09  2.77274E-09
   3.08193E-09  3.32795E-09  3.49751E-09  3.64905E-09  3.86535E-09  4.16817E-09  4.57859E-09  4.93032E-09  5.14604E-09  5.22609E-09
   5.29035E-09  5.45804E-09  5.95403E-09  6.33873E-09  6.79018E-09  7.58070E-09  8.12674E-09  8.44291E-09  8.90789E-09  9.32310E-09
   9.41918E-09  8.92500E-09  8.02836E-09  7.19740E-09  6.61065E-09  5.23891E-09  4.28143E-09  5.20605E-09  5.60662E-09  5.43411E-09
   5.71900E-09  6.24314E-09  6.97072E-09  8.00010E-09  8.90876E-09  9.03302E-09  8.17460E-09  6.41344E-09  4.71667E-09  4.73853E-09
   4.88826E-09  5.07203E-09  5.30521E-09  4.88884E-09  4.19479E-09  4.16486E-09  3.77662E-09  2.90518E-09  2.57523E-09  2.37035E-09
   2.02220E-09  1.81229E-09  1.70202E-09  1.63999E-09  1.60382E-09  1.58203E-09  1.56874E-09  1.56115E-09  1.55740E-09  1.55598E-09
   1.55557E-09  1.55448E-09  1.55266E-09  1.55003E-09  1.54663E-09  1.54253E-09  1.53757E-09  1.53117E-09  1.52327E-09  1.51387E-09
   1.50293E-09  1.49053E-09  1.47661E-09  1.46112E-09  1.44403E-09  1.42534E-09  1.40498E-09  1.38297E-09  1.35931E-09  1.33399E-09
   1.30698E-09  1.27828E-09  1.24790E-09  1.21583E-09  1.18207E-09  1.14659E-09  1.10943E-09  1.07053E-09  1.02991E-09  9.87568E-10
   9.43553E-10  8.97865E-10  8.50510E-10  8.01459E-10  7.50753E-10  6.98431E-10  6.44570E-10  5.89326E-10  5.32859E-10  4.75329E-10
   4.16938E-10  3.57921E-10  2.98547E-10  2.39146E-10  1.80101E-10  1.21889E-10  6.51179E-11  1.05776E-11 -4.06551E-11 -8.70817E-11
  -1.26507E-10 -1.55524E-10 -1.68504E-10 -1.55184E-10 -9.41803E-11  6.96977E-11  5.41561E-10  2.08101E-09  3.85791E-09  5.08378E-09
   5.93707E-09  6.99059E-09  8.71641E-09  1.11740E-08  1.38494E-08  1.54619E-08  1.42930E-08  9.47983E-09  2.87471E-09 -4.85509E-10
  -1.42315E-09 -1.84331E-09 -2.09249E-09 -2.26750E-09 -2.40459E-09 -2.51999E-09 -2.62185E-09 -2.71462E-09 -2.80092E-09 -2.88229E-09
  -2.95972E-09 -3.03385E-09 -3.10506E-09 -3.17364E-09 -3.23973E-09 -3.30343E-09 -3.36482E-09 -3.42389E-09 -3.48064E-09 -3.53508E-09
  -3.58715E-09 -3.63681E-09 -3.68402E-09 -3.72873E-09 -3.77088E-09 -3.81040E-09 -3.84724E-09 -3.88134E-09 -3.91262E-09 -3.94101E-09
  -3.96647E-09 -3.98891E-09 -4.00827E-09 -4.02448E-09 -4.03748E-09 -4.04720E-09 -4.05357E-09 -4.05653E-09 -4.05601E-09 -4.05207E-09
  -4.04478E-09 -4.03424E-09 -4.02051E-09 -4.00369E-09 -3.98385E-09 -3.96109E-09 -3.93548E-09 -3.90710E-09 -3.87605E-09 -3.84240E-09
  -3.80625E-09 -3.76766E-09 -3.72673E-09 -3.68354E-09 -3.63817E-09 -3.59071E-09 -3.54124E-09 -3.48985E-09 -3.43661E-09 -3.38162E-09
  -3.32494E-09 -3.26669E-09 -3.20692E-09 -3.14573E-09 -3.08319E-09 -3.01940E-09 -2.95443E-09 -2.88836E-09 -2.82129E-09 -2.75328E-09
  -2.68443E-09 -2.61480E-09 -2.54451E-09 -2.47360E-09 -2.40216E-09 -2.33029E-09 -2.25805E-09 -2.18553E-09 -2.11281E-09 -2.03996E-09
  -1.96707E-09 -1.89421E-09 -1.82147E-09 -1.74891E-09 -1.67661E-09 -1.60466E-09 -1.53313E-09 -1.46209E-09 -1.39162E-09 -1.32179E-09
  -1.25268E-09 -1.18436E-09 -1.11691E-09 -1.05039E-09 -9.84885E-10 -9.20455E-10 -8.57174E-10 -7.95125E-10 -7.34356E-10 -6.74947E-10
  -6.16969E-10 -5.60486E-10 -5.05569E-10 -4.52272E-10 -4.00672E-10 -3.50831E-10 -3.02816E-10 -2.56670E-10 -2.12486E-10 -1.70308E-10
  -1.30190E-10 -9.21663E-11 -5.61723E-11 -2.21635E-11  9.91707E-12  4.01010E-11  6.84679E-11  9.50433E-11  1.19889E-10  1.43054E-10
   1.64581E-10  1.84530E-10  2.02937E-10  2.19861E-10  2.35354E-10  2.49459E-10  2.62217E-10  2.73680E-10  2.83906E-10  2.92938E-10
   3.00815E-10  3.07597E-10  3.13311E-10  3.18028E-10  3.21775E-10  3.24608E-10  3.26564E-10  3.27702E-10  3.28053E-10  3.27666E-10
   3.26580E-10  3.24864E-10  3.22526E-10  3.19625E-10  3.16209E-10  3.12328E-10  3.07990E-10  3.03266E-10  2.98179E-10  2.92793E-10
   2.87123E-10  2.81223E-10  2.75139E-10  2.68900E-10  2.62535E-10  2.56096E-10  2.49612E-10  2.43134E-10  2.36674E-10  2.30312E-10
   2.24029E-10  2.17905E-10  2.11942E-10  2.06187E-10  2.00705E-10  1.95465E-10  1.90553E-10  1.85967E-10  1.81768E-10  1.77963E-10
   1.74589E-10  1.71688E-10  1.69274E-10  1.67389E-10  1.66044E-10  1.65289E-10  1.65118E-10  1.65594E-10  1.66726E-10  1.68531E-10
   1.71052E-10  1.74299E-10  1.78287E-10
 NY background values follow
     3.514E-09    3.504E-09    3.495E-09    3.485E-09    3.474E-09    3.464E-09    3.453E-09    3.442E-09    3.430E-09    3.419E-09
     3.407E-09    3.395E-09    3.382E-09    3.369E-09    3.356E-09    3.343E-09    3.330E-09    3.316E-09    3.302E-09    3.288E-09
     3.274E-09    3.259E-09    3.245E-09    3.230E-09    3.215E-09    3.199E-09    3.184E-09    3.168E-09    3.152E-09    3.137E-09
     3.120E-09    3.104E-09    3.088E-09    3.071E-09    3.055E-09    3.038E-09    3.021E-09    3.004E-09    2.987E-09    2.970E-09
     2.953E-09    2.936E-09    2.918E-09    2.901E-09    2.884E-09    2.866E-09    2.849E-09    2.831E-09    2.814E-09    2.796E-09
     2.778E-09    2.761E-09    2.743E-09    2.726E-09    2.708E-09    2.691E-09    2.673E-09    2.656E-09    2.638E-09    2.621E-09
     2.604E-09    2.586E-09    2.569E-09    2.552E-09    2.535E-09    2.519E-09    2.502E-09    2.485E-09    2.469E-09    2.453E-09
     2.436E-09    2.420E-09    2.404E-09    2.389E-09    2.373E-09    2.358E-09    2.343E-09    2.327E-09    2.312E-09    2.297E-09
     2.282E-09    2.267E-09    2.252E-09    2.237E-09    2.222E-09    2.206E-09    2.191E-09    2.175E-09    2.160E-09    2.144E-09
     2.128E-09    2.111E-09    2.095E-09    2.078E-09    2.060E-09    2.043E-09    2.025E-09    2.006E-09    1.987E-09    1.968E-09
     1.948E-09    1.928E-09    1.907E-09    1.886E-09    1.864E-09    1.841E-09    1.818E-09    1.794E-09    1.769E-09    1.744E-09
     1.718E-09    1.691E-09    1.663E-09    1.634E-09    1.605E-09    1.575E-09    1.543E-09    1.511E-09    1.478E-09    1.443E-09
     1.408E-09    1.372E-09    1.334E-09    1.295E-09    1.256E-09    1.215E-09    1.172E-09    1.129E-09    1.084E-09    1.038E-09
     9.906E-10    9.418E-10    8.917E-10    8.401E-10    7.870E-10    7.325E-10    6.764E-10    6.189E-10    5.597E-10    4.990E-10
     4.366E-10    3.726E-10    3.069E-10    2.395E-10    1.703E-10    9.939E-11    2.671E-11   -4.767E-11   -1.237E-10   -2.013E-10
    -2.803E-10   -3.608E-10   -4.426E-10   -5.257E-10   -6.100E-10   -6.954E-10   -7.819E-10   -8.693E-10   -9.576E-10   -1.047E-09
    -1.137E-09   -1.227E-09   -1.318E-09   -1.410E-09   -1.502E-09   -1.595E-09   -1.687E-09   -1.780E-09   -1.874E-09   -1.967E-09
    -2.060E-09   -2.153E-09   -2.246E-09   -2.339E-09   -2.431E-09   -2.523E-09   -2.614E-09   -2.705E-09   -2.796E-09   -2.885E-09
    -2.974E-09   -3.062E-09   -3.149E-09   -3.235E-09   -3.320E-09   -3.403E-09   -3.486E-09   -3.567E-09   -3.647E-09   -3.725E-09
    -3.802E-09   -3.877E-09   -3.950E-09   -4.022E-09   -4.091E-09   -4.159E-09   -4.225E-09   -4.289E-09   -4.350E-09   -4.409E-09
    -4.466E-09   -4.521E-09   -4.573E-09   -4.623E-09   -4.670E-09   -4.714E-09   -4.756E-09   -4.795E-09   -4.831E-09   -4.864E-09
    -4.894E-09   -4.921E-09   -4.944E-09   -4.965E-09   -4.982E-09   -4.996E-09   -5.006E-09   -5.013E-09   -5.017E-09   -5.017E-09
    -5.013E-09   -5.006E-09   -4.996E-09   -4.983E-09   -4.966E-09   -4.947E-09   -4.925E-09   -4.899E-09   -4.871E-09   -4.841E-09
    -4.808E-09   -4.772E-09   -4.734E-09   -4.694E-09   -4.651E-09   -4.606E-09   -4.559E-09   -4.510E-09   -4.459E-09   -4.407E-09
    -4.352E-09   -4.296E-09   -4.239E-09   -4.180E-09   -4.119E-09   -4.057E-09   -3.994E-09   -3.930E-09   -3.865E-09   -3.799E-09
    -3.731E-09   -3.664E-09   -3.595E-09   -3.525E-09   -3.455E-09   -3.385E-09   -3.314E-09   -3.243E-09   -3.171E-09   -3.100E-09
    -3.028E-09   -2.956E-09   -2.885E-09   -2.813E-09   -2.742E-09   -2.671E-09   -2.600E-09   -2.530E-09   -2.460E-09   -2.391E-09
    -2.322E-09   -2.255E-09   -2.188E-09   -2.122E-09   -2.057E-09   -1.993E-09   -1.930E-09   -1.868E-09   -1.807E-09   -1.748E-09
    -1.691E-09   -1.634E-09   -1.579E-09   -1.526E-09   -1.475E-09   -1.425E-09   -1.377E-09   -1.330E-09   -1.286E-09   -1.244E-09
    -1.203E-09   -1.165E-09   -1.129E-09   -1.094E-09   -1.062E-09   -1.031E-09   -1.002E-09   -9.753E-10   -9.499E-10   -9.262E-10
    -9.040E-10   -8.834E-10   -8.643E-10   -8.466E-10   -8.304E-10   -8.154E-10   -8.018E-10   -7.895E-10   -7.783E-10   -7.683E-10
    -7.595E-10   -7.517E-10   -7.449E-10   -7.391E-10   -7.342E-10   -7.302E-10   -7.271E-10   -7.247E-10   -7.231E-10   -7.222E-10
    -7.219E-10   -7.223E-10   -7.232E-10   -7.247E-10   -7.266E-10   -7.290E-10   -7.318E-10   -7.350E-10   -7.385E-10   -7.422E-10
    -7.462E-10   -7.505E-10   -7.548E-10   -7.593E-10   -7.639E-10   -7.685E-10   -7.732E-10   -7.778E-10   -7.824E-10   -7.868E-10
    -7.911E-10   -7.953E-10   -7.992E-10   -8.029E-10   -8.063E-10   -8.095E-10   -8.123E-10   -8.147E-10   -8.167E-10   -8.183E-10
    -8.195E-10   -8.201E-10   -8.202E-10   -8.198E-10   -8.188E-10   -8.172E-10   -8.149E-10   -8.121E-10   -8.085E-10   -8.042E-10
    -7.992E-10   -7.934E-10   -7.869E-10
 GABA     Conc. = 3.09E-09
   4.84702E-09  4.85846E-09  4.87059E-09  4.88350E-09  4.89728E-09  4.91206E-09  4.92795E-09  4.94510E-09  4.96367E-09  4.98388E-09
   5.00590E-09  5.03000E-09  5.05653E-09  5.08572E-09  5.11810E-09  5.15408E-09  5.19411E-09  5.23908E-09  5.28986E-09  5.34732E-09
   5.41292E-09  5.48846E-09  5.57605E-09  5.67895E-09  5.80181E-09  5.95089E-09  6.13684E-09  6.37653E-09  6.70183E-09  7.17525E-09
   7.59683E-09  7.94141E-09  8.59480E-09  9.30291E-09  9.77517E-09  1.02424E-08  1.06545E-08  1.07767E-08  1.04703E-08  9.80570E-09
   9.03195E-09  8.33830E-09  6.98815E-09  5.18645E-09  4.54157E-09  4.19655E-09  3.30354E-09  2.84758E-09  2.83922E-09  2.92701E-09
   3.04104E-09  3.16295E-09  3.28778E-09  3.41583E-09  3.54855E-09  3.68806E-09  3.83892E-09  4.00748E-09  4.20295E-09  4.44040E-09
   4.74455E-09  5.16660E-09  5.74588E-09  6.15356E-09  6.57792E-09  7.34806E-09  7.97466E-09  8.41513E-09  8.87680E-09  9.18189E-09
   9.08801E-09  8.47056E-09  7.49981E-09  6.56824E-09  5.81523E-09  4.20267E-09  2.85553E-09  3.01587E-09  2.83668E-09  2.37670E-09
   2.48784E-09  2.67783E-09  2.89277E-09  3.35959E-09  3.79116E-09  4.09550E-09  4.55103E-09  5.05948E-09  5.47919E-09  5.78155E-09
   5.86716E-09  5.95769E-09  6.10394E-09  5.61086E-09  4.84943E-09  4.75997E-09  4.31867E-09  3.39942E-09  3.02596E-09  2.78114E-09
   2.39612E-09  2.15205E-09  2.00993E-09  1.91805E-09  1.85375E-09  1.80537E-09  1.76687E-09  1.73532E-09  1.70872E-09  1.68547E-09
   1.66415E-09  1.64299E-09  1.62187E-09  1.60065E-09  1.57931E-09  1.55789E-09  1.53617E-09  1.51353E-09  1.48988E-09  1.46518E-09
   1.43937E-09  1.41250E-09  1.38448E-09  1.35525E-09  1.32475E-09  1.29294E-09  1.25977E-09  1.22521E-09  1.18926E-09  1.15188E-09
   1.11304E-09  1.07270E-09  1.03088E-09  9.87548E-10  9.42682E-10  8.96248E-10  8.48256E-10  7.98635E-10  7.47387E-10  6.94502E-10
   6.39998E-10  5.83859E-10  5.26067E-10  4.66570E-10  4.05380E-10  3.42503E-10  2.77983E-10  2.11932E-10  1.44461E-10  7.56736E-11
   5.69744E-12 -6.53148E-11 -1.37202E-10 -2.09766E-10 -2.82791E-10 -3.56020E-10 -4.29135E-10 -5.01737E-10 -5.73295E-10 -6.43094E-10
  -7.10114E-10 -7.72798E-10 -8.28645E-10 -8.73189E-10 -8.97418E-10 -8.79172E-10 -7.43032E-10 -1.21298E-10  6.25726E-10  1.12535E-09
   1.44675E-09  1.84434E-09  2.53458E-09  3.55470E-09  4.69355E-09  5.39861E-09  4.90035E-09  2.76656E-09 -2.67475E-10 -1.87305E-09
  -2.34801E-09 -2.58491E-09 -2.74347E-09 -2.86808E-09 -2.97520E-09 -3.07213E-09 -3.16247E-09 -3.24815E-09 -3.33028E-09 -3.40949E-09
  -3.48616E-09 -3.56052E-09 -3.63271E-09 -3.70278E-09 -3.77075E-09 -3.83663E-09 -3.90040E-09 -3.96200E-09 -4.02140E-09 -4.07856E-09
  -4.13341E-09 -4.18588E-09 -4.23591E-09 -4.28344E-09 -4.32840E-09 -4.37072E-09 -4.41034E-09 -4.44718E-09 -4.48119E-09 -4.51226E-09
  -4.54037E-09 -4.56542E-09 -4.58735E-09 -4.60609E-09 -4.62159E-09 -4.63375E-09 -4.64251E-09 -4.64783E-09 -4.64963E-09 -4.64796E-09
  -4.64290E-09 -4.63453E-09 -4.62294E-09 -4.60821E-09 -4.59042E-09 -4.56967E-09 -4.54602E-09 -4.51957E-09 -4.49040E-09 -4.45859E-09
  -4.42423E-09 -4.38740E-09 -4.34818E-09 -4.30666E-09 -4.26293E-09 -4.21706E-09 -4.16915E-09 -4.11927E-09 -4.06751E-09 -4.01395E-09
  -3.95868E-09 -3.90178E-09 -3.84334E-09 -3.78344E-09 -3.72215E-09 -3.65957E-09 -3.59578E-09 -3.53086E-09 -3.46489E-09 -3.39796E-09
  -3.33015E-09 -3.26153E-09 -3.19220E-09 -3.12222E-09 -3.05169E-09 -2.98069E-09 -2.90929E-09 -2.83757E-09 -2.76562E-09 -2.69351E-09
  -2.62133E-09 -2.54915E-09 -2.47705E-09 -2.40510E-09 -2.33339E-09 -2.26198E-09 -2.19098E-09 -2.12043E-09 -2.05042E-09 -1.98102E-09
  -1.91231E-09 -1.84437E-09 -1.77726E-09 -1.71106E-09 -1.64584E-09 -1.58167E-09 -1.51862E-09 -1.45677E-09 -1.39618E-09 -1.33692E-09
  -1.27906E-09 -1.22267E-09 -1.16782E-09 -1.11456E-09 -1.06297E-09 -1.01312E-09 -9.65062E-10 -9.18850E-10 -8.74575E-10 -8.32279E-10
  -7.92019E-10 -7.53826E-10 -7.17639E-10 -6.83412E-10 -6.51088E-10 -6.20636E-10 -5.91977E-10 -5.65085E-10 -5.39898E-10 -5.16369E-10
  -4.94454E-10 -4.74092E-10 -4.55249E-10 -4.37866E-10 -4.21890E-10 -4.07280E-10 -3.93993E-10 -3.81979E-10 -3.71178E-10 -3.61551E-10
  -3.53054E-10 -3.45631E-10 -3.39254E-10 -3.33852E-10 -3.29398E-10 -3.25835E-10 -3.23129E-10 -3.21219E-10 -3.20074E-10 -3.19648E-10
  -3.19898E-10 -3.20758E-10 -3.22219E-10 -3.24222E-10 -3.26719E-10 -3.29662E-10 -3.33042E-10 -3.36787E-10 -3.40875E-10 -3.45241E-10
  -3.49872E-10 -3.54714E-10 -3.59720E-10 -3.64862E-10 -3.70110E-10 -3.75413E-10 -3.80742E-10 -3.86046E-10 -3.91314E-10 -3.96464E-10
  -4.01516E-10 -4.06392E-10 -4.11088E-10 -4.15557E-10 -4.19736E-10 -4.23654E-10 -4.27228E-10 -4.30457E-10 -4.33281E-10 -4.35693E-10
  -4.37658E-10 -4.39131E-10 -4.40100E-10 -4.40523E-10 -4.40389E-10 -4.39649E-10 -4.38306E-10 -4.36301E-10 -4.33624E-10 -4.30257E-10
  -4.26157E-10 -4.21315E-10 -4.15716E-10
 Glc      Conc. = 2.10E-09
   9.78754E-09  9.76441E-09  9.89872E-09  1.01622E-08  1.01478E-08  9.79969E-09  9.03851E-09  8.16578E-09  7.10650E-09  6.26470E-09
   6.11176E-09  6.23402E-09  6.54535E-09  7.09000E-09  7.65249E-09  8.01219E-09  8.25341E-09  8.49285E-09  8.64554E-09  8.80527E-09
   8.96958E-09  8.77497E-09  8.01350E-09  6.66481E-09  4.79152E-09  3.09331E-09  2.36236E-09  2.31473E-09  2.46265E-09  2.55052E-09
   2.45640E-09  2.33696E-09  2.28618E-09  2.12433E-09  1.89645E-09  1.80963E-09  1.76678E-09  1.64689E-09  1.55972E-09  1.57463E-09
   1.61641E-09  1.66094E-09  1.70467E-09  1.74560E-09  1.78335E-09  1.81797E-09  1.84950E-09  1.87807E-09  1.90389E-09  1.92719E-09
   1.94815E-09  1.96700E-09  1.98388E-09  1.99899E-09  2.01247E-09  2.02444E-09  2.03504E-09  2.04440E-09  2.05255E-09  2.05966E-09
   2.06580E-09  2.07101E-09  2.07541E-09  2.07903E-09  2.08196E-09  2.08424E-09  2.08592E-09  2.08705E-09  2.08768E-09  2.08787E-09
   2.08763E-09  2.08701E-09  2.08607E-09  2.08480E-09  2.08325E-09  2.08141E-09  2.07927E-09  2.07684E-09  2.07410E-09  2.07106E-09
   2.06771E-09  2.06403E-09  2.06002E-09  2.05567E-09  2.05097E-09  2.04590E-09  2.04045E-09  2.03461E-09  2.02836E-09  2.02169E-09
   2.01457E-09  2.00700E-09  1.99895E-09  1.99042E-09  1.98136E-09  1.97177E-09  1.96163E-09  1.95092E-09  1.93962E-09  1.92770E-09
   1.91515E-09  1.90194E-09  1.88805E-09  1.87347E-09  1.85815E-09  1.84209E-09  1.82525E-09  1.80763E-09  1.78918E-09  1.76988E-09
   1.74973E-09  1.72867E-09  1.70670E-09  1.68378E-09  1.65989E-09  1.63502E-09  1.60912E-09  1.58219E-09  1.55418E-09  1.52509E-09
   1.49486E-09  1.46349E-09  1.43095E-09  1.39721E-09  1.36225E-09  1.32604E-09  1.28854E-09  1.24975E-09  1.20964E-09  1.16817E-09
   1.12532E-09  1.08107E-09  1.03539E-09  9.88266E-10  9.39662E-10  8.89546E-10  8.37930E-10  7.84754E-10  7.30015E-10  6.73676E-10
   6.15734E-10  5.56163E-10  4.94948E-10  4.32054E-10  3.67490E-10  3.01233E-10  2.33301E-10  1.63776E-10  9.27564E-11  2.03442E-11
  -5.33551E-11 -1.28221E-10 -2.04133E-10 -2.80943E-10 -3.58498E-10 -4.36607E-10 -5.15049E-10 -5.93556E-10 -6.71776E-10 -7.49246E-10
  -8.25325E-10 -8.99042E-10 -9.68874E-10 -1.03214E-09 -1.08356E-09 -1.11056E-09 -1.07258E-09 -7.69555E-10 -2.81538E-10  6.50491E-11
   2.68090E-10  4.85310E-10  8.76690E-10  1.49722E-09  2.24166E-09  2.78848E-09  2.63448E-09  1.40595E-09 -6.02997E-10 -2.03017E-09
  -2.44583E-09 -2.65643E-09 -2.80233E-09 -2.92058E-09 -3.02456E-09 -3.12009E-09 -3.21004E-09 -3.29593E-09 -3.37864E-09 -3.45864E-09
  -3.53624E-09 -3.61160E-09 -3.68482E-09 -3.75595E-09 -3.82497E-09 -3.89188E-09 -3.95667E-09 -4.01927E-09 -4.07964E-09 -4.13774E-09
  -4.19350E-09 -4.24685E-09 -4.29774E-09 -4.34610E-09 -4.39187E-09 -4.43497E-09 -4.47533E-09 -4.51290E-09 -4.54761E-09 -4.57937E-09
  -4.60813E-09 -4.63382E-09 -4.65636E-09 -4.67569E-09 -4.69176E-09 -4.70447E-09 -4.71378E-09 -4.71962E-09 -4.72192E-09 -4.72073E-09
  -4.71614E-09 -4.70823E-09 -4.69709E-09 -4.68279E-09 -4.66541E-09 -4.64506E-09 -4.62180E-09 -4.59573E-09 -4.56692E-09 -4.53546E-09
