 LCModel (Version 6.3-1R) Copyright: S.W. Provencher.          Ref.: Magn. Reson. Med. 30:672-679 (1993).                
 onepulse 24x21_ftSpec_smooth_lcm
 26 lines in following concentration table = NCONC+1
    Conc.  %SD /Cr+PCr  Metabolite                                         
    0.000 999%   0.000 Ala                                                 
    0.000 999%   0.000 Asp                                                 
 2.71E-10 175%   1.000 Cr                                                  
 1.16E-09  99%   4.266 GABA                                                
 2.39E-09  28%   8.807 Glc                                                 
    0.000 999%   0.000 Gln                                                 
 1.81E-09  54%   6.681 Glu                                                 
    0.000 999%   0.000 Glyc                                                
 1.50E-10  74%   0.551 GPC                                                 
 5.18E-10  79%   1.911 GSH                                                 
 7.89E-11 607%   0.291 Ins                                                 
    0.000 999%   0.000 Lac                                                 
    0.000 999%   0.000 NAAG                                                
 1.80E-10 210%   0.662 NAA                                                 
    0.000 999%   0.000 PCh                                                 
    0.000 999%   0.000 PCr                                                 
    0.000 999%   0.000 PE                                                  
    0.000 999%   0.000 Scyllo                                              
 7.03E-11 999%   0.259 Ser                                                 
    0.000 999%   0.000 Tau                                                 
 1.50E-10  74%   0.551 GPC+PCh                                             
 1.80E-10 210%   0.662 NAA+NAAG                                            
 7.89E-11 607%   0.291 Ins+Glyc                                            
 2.71E-10 175%   1.000 Cr+PCr                                              
 1.81E-09  54%   6.681 Glu+Gln                                             
   6 lines in following misc. output table
  FWHM = 0.045 ppm    S/N =   2                                            
  Data shift = 0.268 ppm                                                   
  Ph: -34 deg      -3.9 deg/ppm                                            
  alphaB,S = 4.5E+00,   1.3E+01                                            
    7 spline knots.   Ns = 5(1)                                            
  ( 8) 3 infls.   ( 5) 3 extrs.                                            
  363 points on ppm-axis = NY
      4.250000     4.238821     4.227641     4.216462     4.205282     4.194103     4.182923     4.171744     4.160564     4.149385
      4.138206     4.127026     4.115847     4.104667     4.093488     4.082308     4.071129     4.059949     4.048770     4.037591
      4.026411     4.015232     4.004052     3.992873     3.981693     3.970514     3.959334     3.948155     3.936975     3.925796
      3.914617     3.903437     3.892258     3.881078     3.869899     3.858719     3.847540     3.836360     3.825181     3.814002
      3.802822     3.791643     3.780463     3.769284     3.758104     3.746925     3.735745     3.724566     3.713387     3.702207
      3.691028     3.679848     3.668669     3.657489     3.646310     3.635130     3.623951     3.612772     3.601592     3.590413
      3.579233     3.568054     3.556874     3.545695     3.534515     3.523336     3.512156     3.500977     3.489798     3.478618
      3.467439     3.456259     3.445080     3.433900     3.422721     3.411541     3.400362     3.389183     3.378003     3.366824
      3.355644     3.344465     3.333285     3.322106     3.310926     3.299747     3.288568     3.277388     3.266209     3.255029
      3.243850     3.232670     3.221491     3.210311     3.199132     3.187953     3.176773     3.165594     3.154414     3.143235
      3.132055     3.120876     3.109696     3.098517     3.087337     3.076158     3.064979     3.053799     3.042620     3.031440
      3.020261     3.009081     2.997902     2.986722     2.975543     2.964364     2.953184     2.942005     2.930825     2.919646
      2.908466     2.897287     2.886107     2.874928     2.863749     2.852569     2.841390     2.830210     2.819031     2.807851
      2.796672     2.785492     2.774313     2.763134     2.751954     2.740775     2.729595     2.718416     2.707236     2.696057
      2.684877     2.673698     2.662519     2.651339     2.640160     2.628980     2.617801     2.606621     2.595442     2.584262
      2.573083     2.561903     2.550724     2.539545     2.528365     2.517186     2.506006     2.494827     2.483647     2.472468
      2.461288     2.450109     2.438930     2.427750     2.416571     2.405391     2.394212     2.383032     2.371853     2.360673
      2.349494     2.338315     2.327135     2.315956     2.304776     2.293597     2.282417     2.271238     2.260058     2.248879
      2.237700     2.226520     2.215341     2.204161     2.192982     2.181802     2.170623     2.159443     2.148264     2.137084
      2.125905     2.114726     2.103546     2.092367     2.081187     2.070008     2.058828     2.047649     2.036469     2.025290
      2.014111     2.002931     1.991752     1.980572     1.969393     1.958213     1.947034     1.935854     1.924675     1.913496
      1.902316     1.891137     1.879957     1.868778     1.857598     1.846419     1.835239     1.824060     1.812881     1.801701
      1.790522     1.779342     1.768163     1.756983     1.745804     1.734624     1.723445     1.712265     1.701086     1.689907
      1.678727     1.667548     1.656368     1.645189     1.634009     1.622830     1.611650     1.600471     1.589292     1.578112
      1.566933     1.555753     1.544574     1.533394     1.522215     1.511035     1.499856     1.488677     1.477497     1.466318
      1.455138     1.443959     1.432779     1.421600     1.410420     1.399241     1.388062     1.376882     1.365703     1.354523
      1.343344     1.332164     1.320985     1.309805     1.298626     1.287446     1.276267     1.265088     1.253908     1.242729
      1.231549     1.220370     1.209190     1.198011     1.186831     1.175652     1.164473     1.153293     1.142114     1.130934
      1.119755     1.108575     1.097396     1.086216     1.075037     1.063858     1.052678     1.041499     1.030319     1.019140
      1.007960     0.996781     0.985601     0.974422     0.963243     0.952063     0.940884     0.929704     0.918525     0.907345
      0.896166     0.884986     0.873807     0.862628     0.851448     0.840269     0.829089     0.817910     0.806730     0.795551
      0.784371     0.773192     0.762012     0.750833     0.739654     0.728474     0.717295     0.706115     0.694936     0.683756
      0.672577     0.661397     0.650218     0.639039     0.627859     0.616680     0.605500     0.594321     0.583141     0.571962
      0.560782     0.549603     0.538424     0.527244     0.516065     0.504885     0.493706     0.482526     0.471347     0.460167
      0.448988     0.437809     0.426629     0.415450     0.404270     0.393091     0.381911     0.370732     0.359552     0.348373
      0.337193     0.326014     0.314835     0.303655     0.292476     0.281296     0.270117     0.258937     0.247758     0.236578
      0.225399     0.214220     0.203040
 NY phased data points follow
   1.08148E-08  1.17059E-08  1.11612E-08  1.23833E-08  1.29442E-08  1.59576E-08  1.65723E-08  1.85468E-08  1.86085E-08  1.87323E-08
   1.63680E-08  1.48100E-08  1.33150E-08  1.27255E-08  1.10414E-08  1.18274E-08  1.04343E-08  1.14595E-08  1.16950E-08  1.17562E-08
   1.17414E-08  1.27508E-08  1.27081E-08  1.22307E-08  1.20088E-08  1.16816E-08  1.09731E-08  1.10032E-08  1.05882E-08  1.01014E-08
   1.01576E-08  1.05881E-08  1.07841E-08  1.18970E-08  1.05172E-08  1.00135E-08  9.60796E-09  1.02635E-08  1.09845E-08  1.17548E-08
   1.29572E-08  1.17475E-08  1.07218E-08  8.50510E-09  7.39477E-09  6.40452E-09  6.61564E-09  6.06672E-09  5.74072E-09  6.25218E-09
   5.20556E-09  5.50522E-09  5.21515E-09  4.85598E-09  4.58040E-09  4.33472E-09  4.35753E-09  5.64545E-09  5.42044E-09  6.20029E-09
   5.55302E-09  5.12485E-09  5.23091E-09  4.87558E-09  4.81899E-09  5.95464E-09  6.24825E-09  7.04267E-09  7.59631E-09  9.85142E-09
   1.17204E-08  1.32530E-08  1.26776E-08  1.07987E-08  8.48289E-09  6.52694E-09  5.76316E-09  5.27647E-09  4.05337E-09  4.21934E-09
   4.50819E-09  3.93730E-09  3.97203E-09  5.17374E-09  6.05523E-09  8.07760E-09  1.09789E-08  1.33313E-08  1.37894E-08  1.21894E-08
   1.01985E-08  8.18004E-09  6.89868E-09  6.59470E-09  6.10862E-09  5.23295E-09  5.26044E-09  4.54790E-09  3.99939E-09  3.62012E-09
   3.66584E-09  3.09301E-09  2.31729E-09  2.72632E-09  2.47684E-09  2.10104E-09  2.28700E-09  2.30481E-09  2.18224E-09  2.30731E-09
   2.71712E-09  2.37732E-09  2.30705E-09  2.36516E-09  1.86150E-09  1.68339E-09  1.50282E-09  1.00248E-09  5.56572E-10  8.84728E-10
   2.05321E-09  2.50977E-09  2.03486E-09  2.08206E-09  2.39684E-09  2.32685E-09  2.76404E-09  2.42125E-09  2.13394E-09  1.66920E-09
   1.41102E-09  4.53381E-10  7.75310E-10  2.61670E-10  4.17209E-10  6.28419E-10  1.90565E-09  1.36834E-09  1.47026E-09  1.71119E-09
   1.80549E-09  1.38197E-09  1.44921E-09  1.15605E-09  1.39665E-09  1.14286E-09  2.36447E-09  3.17915E-09  3.25201E-09  3.51920E-09
   3.44338E-09  3.06239E-09  3.46511E-09  3.91730E-09  3.58783E-09  3.86499E-09  4.29318E-09  3.10437E-09  3.95099E-09  3.86974E-09
   3.30939E-09  3.71035E-09  3.75083E-09  3.87083E-09  4.18005E-09  4.45299E-09  4.61307E-09  4.57641E-09  4.99122E-09  4.85047E-09
   4.77259E-09  4.91696E-09  5.55143E-09  5.97094E-09  7.38681E-09  9.18411E-09  1.10616E-08  1.32918E-08  1.45628E-08  1.47951E-08
   1.22653E-08  8.76881E-09  5.60213E-09  4.10547E-09  2.39989E-09  1.85539E-09  7.04366E-10  2.62114E-10 -4.69758E-10 -1.36207E-09
  -1.96635E-09 -2.78653E-09 -2.95233E-09 -4.07122E-09 -4.43204E-09 -5.56430E-09 -6.24548E-09 -7.19718E-09 -7.82920E-09 -9.19482E-09
  -9.45639E-09 -1.13832E-08 -1.22474E-08 -1.35309E-08 -1.51257E-08 -1.57297E-08 -1.66732E-08 -1.75036E-08 -1.82782E-08 -1.84315E-08
  -1.82733E-08 -1.79603E-08 -1.79175E-08 -1.60647E-08 -1.50174E-08 -1.32292E-08 -1.19364E-08 -9.32322E-09 -7.64338E-09 -6.10246E-09
  -3.88129E-09 -2.35507E-09 -1.18949E-09 -2.16052E-10  1.07197E-09  1.43721E-09  1.31466E-09  1.27786E-09  4.19306E-10  3.12103E-10
   9.87592E-11 -1.36016E-09 -7.86592E-10 -1.04266E-09 -7.32829E-10  1.09975E-11  1.18387E-11 -1.32061E-10 -8.04058E-10  3.36392E-10
  -8.45313E-10 -1.40212E-09 -9.03009E-10 -9.46030E-10 -9.92393E-10 -4.26088E-10 -3.25256E-10 -3.62991E-10  1.81534E-10 -4.29113E-10
  -7.42541E-10 -2.19310E-10 -8.78874E-10 -9.59300E-10 -8.36170E-10 -6.30897E-10 -5.87925E-10 -4.14351E-10 -2.86474E-10 -2.49197E-10
  -3.55453E-10  2.60157E-10 -1.28610E-10  1.72270E-10  3.23703E-11 -3.67153E-10 -1.60225E-10 -8.97063E-10 -8.38352E-10 -1.30618E-09
  -1.12361E-09 -1.06799E-09 -4.40980E-10 -6.95335E-10 -4.86586E-10  1.05295E-10  4.89506E-10  2.57140E-10  5.43269E-10  6.06342E-10
   4.36600E-10  3.43216E-10  6.91188E-10  1.96858E-10 -7.01121E-11 -4.80334E-11 -2.68403E-10 -6.70278E-10 -5.28085E-10 -1.74396E-10
  -5.33669E-10 -4.25986E-10 -3.71014E-10 -6.75222E-10 -3.07763E-10 -5.99438E-10  2.82898E-10 -4.45385E-10 -1.14215E-10 -1.62252E-10
   7.91197E-11 -4.90201E-10  4.51979E-10  4.57004E-12 -5.66605E-10 -4.99177E-10 -4.06525E-10 -8.44280E-10 -6.39242E-11 -2.80260E-10
   2.44082E-11  4.87615E-11 -3.19241E-10 -1.46373E-10  2.11389E-10 -5.45400E-10 -1.20962E-10  7.96532E-12 -8.88118E-11  2.41963E-10
   5.88818E-11  3.33037E-11  2.58673E-10 -1.10298E-11  1.37008E-10  1.62883E-10  2.91312E-10 -3.11632E-10 -2.33788E-11  1.14167E-10
   4.83942E-10 -1.10132E-10  3.33173E-10  3.73650E-10  9.16217E-11 -5.72913E-10  1.04947E-09  2.84976E-10  7.09289E-11  3.31856E-10
   8.19651E-10  8.91202E-10  6.25253E-10 -1.44272E-10  5.34998E-10  2.09219E-10  2.15806E-10  4.12450E-10  8.55692E-10  9.41842E-10
   1.34799E-10  1.04157E-09  3.70288E-10  2.17769E-10  6.56885E-10  4.08453E-10  1.27988E-09  5.10057E-10  1.04051E-09  6.28260E-10
   8.91505E-10  6.41484E-10  1.00274E-09
 NY points of the fit to the data follow
   1.04338E-08  1.14569E-08  1.15547E-08  1.16569E-08  1.25396E-08  1.40133E-08  1.54231E-08  1.66626E-08  1.72129E-08  1.54802E-08
   1.36431E-08  1.23768E-08  1.15016E-08  1.11214E-08  1.11940E-08  1.13825E-08  1.13055E-08  1.13264E-08  1.13381E-08  1.12628E-08
   1.17248E-08  1.24836E-08  1.33505E-08  1.44218E-08  1.47237E-08  1.32859E-08  1.12085E-08  1.00283E-08  9.58578E-09  9.80061E-09
   1.01623E-08  1.06565E-08  1.18365E-08  1.23127E-08  1.10679E-08  9.91352E-09  9.89829E-09  1.01383E-08  1.02508E-08  1.04421E-08
   1.07350E-08  1.13156E-08  1.09233E-08  9.35859E-09  8.67426E-09  8.13096E-09  7.41298E-09  6.52380E-09  5.82409E-09  5.45026E-09
   5.25301E-09  5.15486E-09  5.03758E-09  4.93159E-09  4.88765E-09  4.82338E-09  4.82567E-09  4.93942E-09  5.13749E-09  5.47040E-09
   5.77876E-09  5.90388E-09  6.42125E-09  6.95727E-09  7.13961E-09  7.67617E-09  8.38662E-09  8.92233E-09  9.49287E-09  9.96147E-09
   1.01951E-08  1.04487E-08  1.03396E-08  9.35311E-09  8.91797E-09  8.20140E-09  6.91075E-09  6.96022E-09  7.22384E-09  7.29836E-09
   7.50117E-09  7.70217E-09  8.08910E-09  8.46898E-09  8.49548E-09  8.60647E-09  8.56416E-09  8.07759E-09  7.02548E-09  6.34959E-09
   5.93123E-09  5.54822E-09  5.59539E-09  5.28241E-09  4.70651E-09  4.71910E-09  4.54655E-09  3.99678E-09  3.74645E-09  3.55449E-09
   3.27389E-09  3.04717E-09  2.86308E-09  2.70735E-09  2.57157E-09  2.44951E-09  2.33794E-09  2.23483E-09  2.13875E-09  2.04871E-09
   1.96373E-09  1.88253E-09  1.80466E-09  1.72967E-09  1.65729E-09  1.58747E-09  1.51989E-09  1.45417E-09  1.39016E-09  1.32766E-09
   1.26655E-09  1.20679E-09  1.14825E-09  1.09083E-09  1.03446E-09  9.79087E-10  9.24631E-10  8.71023E-10  8.18257E-10  7.66281E-10
   7.15031E-10  6.64500E-10  6.14656E-10  5.65482E-10  5.16951E-10  4.69051E-10  4.21740E-10  3.75019E-10  3.28870E-10  2.83279E-10
   2.38256E-10  1.93797E-10  1.49895E-10  1.06540E-10  6.37165E-11  2.14457E-11 -2.02583E-11 -6.13768E-11 -1.01886E-10 -1.41780E-10
  -1.80993E-10 -2.19494E-10 -2.57210E-10 -2.94028E-10 -3.29823E-10 -3.64417E-10 -3.97541E-10 -4.28806E-10 -4.57630E-10 -4.83123E-10
  -5.03833E-10 -5.17259E-10 -5.18766E-10 -4.98865E-10 -4.34787E-10 -2.57855E-10  3.40922E-10  2.68684E-09  4.87519E-09  5.68011E-09
   5.79989E-09  6.02644E-09  6.72152E-09  8.16783E-09  1.07156E-08  1.40378E-08  1.61832E-08  1.37401E-08  6.07832E-09  1.72627E-09
   4.92786E-10 -4.51200E-11 -3.45032E-10 -5.38130E-10 -6.74753E-10 -7.78074E-10 -8.60147E-10 -9.27830E-10 -9.85292E-10 -1.03521E-09
  -1.07937E-09 -1.11901E-09 -1.15502E-09 -1.18804E-09 -1.21857E-09 -1.24696E-09 -1.27352E-09 -1.29846E-09 -1.32195E-09 -1.34416E-09
  -1.36519E-09 -1.38516E-09 -1.40412E-09 -1.42217E-09 -1.43935E-09 -1.45571E-09 -1.47131E-09 -1.48616E-09 -1.50032E-09 -1.51380E-09
  -1.52663E-09 -1.53883E-09 -1.55043E-09 -1.56144E-09 -1.57187E-09 -1.58175E-09 -1.59108E-09 -1.59988E-09 -1.60815E-09 -1.61592E-09
  -1.62318E-09 -1.62995E-09 -1.63624E-09 -1.64205E-09 -1.64739E-09 -1.65227E-09 -1.65669E-09 -1.66066E-09 -1.66419E-09 -1.66728E-09
  -1.66993E-09 -1.67216E-09 -1.67397E-09 -1.67536E-09 -1.67634E-09 -1.67691E-09 -1.67707E-09 -1.67684E-09 -1.67621E-09 -1.67518E-09
  -1.67378E-09 -1.67198E-09 -1.66981E-09 -1.66726E-09 -1.66435E-09 -1.66106E-09 -1.65741E-09 -1.65339E-09 -1.64902E-09 -1.64429E-09
  -1.63922E-09 -1.63379E-09 -1.62802E-09 -1.62191E-09 -1.61546E-09 -1.60868E-09 -1.60157E-09 -1.59412E-09 -1.58636E-09 -1.57827E-09
  -1.56986E-09 -1.56114E-09 -1.55211E-09 -1.54276E-09 -1.53311E-09 -1.52315E-09 -1.51290E-09 -1.50235E-09 -1.49150E-09 -1.48036E-09
  -1.46894E-09 -1.45723E-09 -1.44523E-09 -1.43296E-09 -1.42042E-09 -1.40760E-09 -1.39452E-09 -1.38119E-09 -1.36759E-09 -1.35375E-09
  -1.33966E-09 -1.32533E-09 -1.31077E-09 -1.29597E-09 -1.28095E-09 -1.26570E-09 -1.25024E-09 -1.23456E-09 -1.21867E-09 -1.20259E-09
  -1.18630E-09 -1.16981E-09 -1.15314E-09 -1.13628E-09 -1.11924E-09 -1.10202E-09 -1.08464E-09 -1.06708E-09 -1.04936E-09 -1.03149E-09
  -1.01346E-09 -9.95278E-10 -9.76955E-10 -9.58489E-10 -9.39891E-10 -9.21158E-10 -9.02300E-10 -8.83317E-10 -8.64219E-10 -8.45007E-10
  -8.25685E-10 -8.06258E-10 -7.86733E-10 -7.67110E-10 -7.47398E-10 -7.27598E-10 -7.07717E-10 -6.87754E-10 -6.67717E-10 -6.47615E-10
  -6.27449E-10 -6.07216E-10 -5.86931E-10 -5.66590E-10 -5.46204E-10 -5.25772E-10 -5.05303E-10 -4.84799E-10 -4.64264E-10 -4.43702E-10
  -4.23115E-10 -4.02517E-10 -3.81901E-10 -3.61274E-10 -3.40644E-10 -3.20013E-10 -2.99383E-10 -2.78760E-10 -2.58149E-10 -2.37555E-10
  -2.16981E-10 -1.96429E-10 -1.75904E-10 -1.55414E-10 -1.34951E-10 -1.14539E-10 -9.41687E-11 -7.38444E-11 -5.35734E-11 -3.33552E-11
  -1.31978E-11  6.88946E-12  2.69134E-11  4.68643E-11  6.67396E-11  8.65329E-11  1.06246E-10  1.25868E-10  1.45397E-10  1.64836E-10
   1.84172E-10  2.03408E-10  2.22534E-10
 NY background values follow
     4.328E-09    4.296E-09    4.264E-09    4.232E-09    4.200E-09    4.168E-09    4.136E-09    4.104E-09    4.071E-09    4.039E-09
     4.007E-09    3.974E-09    3.942E-09    3.909E-09    3.877E-09    3.844E-09    3.811E-09    3.779E-09    3.746E-09    3.713E-09
     3.680E-09    3.647E-09    3.614E-09    3.581E-09    3.548E-09    3.515E-09    3.481E-09    3.448E-09    3.415E-09    3.381E-09
     3.348E-09    3.314E-09    3.280E-09    3.247E-09    3.213E-09    3.179E-09    3.145E-09    3.112E-09    3.078E-09    3.043E-09
     3.009E-09    2.975E-09    2.941E-09    2.907E-09    2.872E-09    2.838E-09    2.804E-09    2.769E-09    2.735E-09    2.700E-09
     2.665E-09    2.631E-09    2.596E-09    2.561E-09    2.526E-09    2.491E-09    2.456E-09    2.421E-09    2.386E-09    2.350E-09
     2.315E-09    2.280E-09    2.244E-09    2.209E-09    2.173E-09    2.138E-09    2.102E-09    2.066E-09    2.030E-09    1.995E-09
     1.959E-09    1.923E-09    1.887E-09    1.850E-09    1.814E-09    1.778E-09    1.742E-09    1.705E-09    1.669E-09    1.632E-09
     1.596E-09    1.559E-09    1.522E-09    1.486E-09    1.449E-09    1.412E-09    1.375E-09    1.338E-09    1.301E-09    1.264E-09
     1.226E-09    1.189E-09    1.152E-09    1.114E-09    1.077E-09    1.039E-09    1.001E-09    9.638E-10    9.262E-10    8.885E-10
     8.508E-10    8.131E-10    7.754E-10    7.376E-10    6.999E-10    6.622E-10    6.245E-10    5.868E-10    5.492E-10    5.116E-10
     4.740E-10    4.364E-10    3.990E-10    3.615E-10    3.242E-10    2.869E-10    2.496E-10    2.125E-10    1.754E-10    1.385E-10
     1.016E-10    6.482E-11    2.816E-11   -8.385E-12   -4.481E-11   -8.111E-11   -1.173E-10   -1.533E-10   -1.892E-10   -2.249E-10
    -2.605E-10   -2.959E-10   -3.312E-10   -3.662E-10   -4.011E-10   -4.358E-10   -4.703E-10   -5.047E-10   -5.388E-10   -5.727E-10
    -6.064E-10   -6.398E-10   -6.731E-10   -7.061E-10   -7.388E-10   -7.713E-10   -8.036E-10   -8.356E-10   -8.674E-10   -8.988E-10
    -9.300E-10   -9.610E-10   -9.916E-10   -1.022E-09   -1.052E-09   -1.082E-09   -1.111E-09   -1.140E-09   -1.169E-09   -1.198E-09
    -1.226E-09   -1.253E-09   -1.281E-09   -1.308E-09   -1.335E-09   -1.361E-09   -1.387E-09   -1.413E-09   -1.438E-09   -1.463E-09
    -1.487E-09   -1.511E-09   -1.535E-09   -1.558E-09   -1.581E-09   -1.604E-09   -1.626E-09   -1.647E-09   -1.668E-09   -1.689E-09
    -1.709E-09   -1.729E-09   -1.748E-09   -1.767E-09   -1.785E-09   -1.803E-09   -1.821E-09   -1.838E-09   -1.854E-09   -1.871E-09
    -1.886E-09   -1.901E-09   -1.916E-09   -1.931E-09   -1.945E-09   -1.958E-09   -1.971E-09   -1.984E-09   -1.996E-09   -2.008E-09
    -2.019E-09   -2.030E-09   -2.040E-09   -2.050E-09   -2.060E-09   -2.069E-09   -2.078E-09   -2.086E-09   -2.094E-09   -2.102E-09
    -2.109E-09   -2.116E-09   -2.122E-09   -2.128E-09   -2.133E-09   -2.139E-09   -2.143E-09   -2.148E-09   -2.152E-09   -2.155E-09
    -2.158E-09   -2.161E-09   -2.163E-09   -2.165E-09   -2.167E-09   -2.168E-09   -2.169E-09   -2.170E-09   -2.170E-09   -2.170E-09
    -2.169E-09   -2.168E-09   -2.167E-09   -2.165E-09   -2.163E-09   -2.161E-09   -2.158E-09   -2.155E-09   -2.152E-09   -2.148E-09
    -2.144E-09   -2.139E-09   -2.135E-09   -2.129E-09   -2.124E-09   -2.118E-09   -2.112E-09   -2.106E-09   -2.099E-09   -2.092E-09
    -2.084E-09   -2.077E-09   -2.069E-09   -2.060E-09   -2.052E-09   -2.043E-09   -2.034E-09   -2.024E-09   -2.014E-09   -2.004E-09
    -1.994E-09   -1.983E-09   -1.972E-09   -1.961E-09   -1.949E-09   -1.937E-09   -1.925E-09   -1.913E-09   -1.900E-09   -1.887E-09
    -1.874E-09   -1.860E-09   -1.846E-09   -1.832E-09   -1.818E-09   -1.804E-09   -1.789E-09   -1.774E-09   -1.759E-09   -1.743E-09
    -1.727E-09   -1.712E-09   -1.695E-09   -1.679E-09   -1.662E-09   -1.646E-09   -1.629E-09   -1.612E-09   -1.594E-09   -1.577E-09
    -1.559E-09   -1.541E-09   -1.523E-09   -1.504E-09   -1.486E-09   -1.467E-09   -1.449E-09   -1.430E-09   -1.411E-09   -1.391E-09
    -1.372E-09   -1.353E-09   -1.333E-09   -1.313E-09   -1.293E-09   -1.273E-09   -1.253E-09   -1.233E-09   -1.213E-09   -1.192E-09
    -1.172E-09   -1.151E-09   -1.130E-09   -1.109E-09   -1.088E-09   -1.068E-09   -1.046E-09   -1.025E-09   -1.004E-09   -9.829E-10
    -9.616E-10   -9.403E-10   -9.189E-10   -8.974E-10   -8.760E-10   -8.544E-10   -8.329E-10   -8.113E-10   -7.897E-10   -7.681E-10
    -7.465E-10   -7.248E-10   -7.032E-10   -6.815E-10   -6.599E-10   -6.382E-10   -6.166E-10   -5.950E-10   -5.734E-10   -5.518E-10
    -5.303E-10   -5.087E-10   -4.873E-10   -4.658E-10   -4.444E-10   -4.230E-10   -4.017E-10   -3.805E-10   -3.593E-10   -3.382E-10
    -3.171E-10   -2.961E-10   -2.752E-10   -2.543E-10   -2.336E-10   -2.129E-10   -1.923E-10   -1.718E-10   -1.514E-10   -1.311E-10
    -1.109E-10   -9.081E-11   -7.083E-11
 Cr       Conc. = 2.71E-10
   5.50374E-09  5.78480E-09  5.63530E-09  4.92909E-09  4.60648E-09  4.45088E-09  4.34958E-09  4.27233E-09  4.20788E-09  4.15105E-09
   4.09911E-09  4.05049E-09  4.00418E-09  3.95952E-09  3.91606E-09  3.87345E-09  3.83146E-09  3.78984E-09  3.74846E-09  3.70713E-09
   3.66575E-09  3.62415E-09  3.58221E-09  3.53976E-09  3.49662E-09  3.45263E-09  3.40758E-09  3.36137E-09  3.31423E-09  3.26824E-09
   3.23628E-09  3.33231E-09  3.62713E-09  3.79853E-09  3.83041E-09  3.82348E-09  3.84709E-09  3.94053E-09  4.16151E-09  4.55753E-09
   5.02821E-09  5.20795E-09  4.65326E-09  3.75514E-09  3.43553E-09  3.26800E-09  3.15576E-09  3.06976E-09  2.99832E-09  2.93583E-09
   2.87931E-09  2.82690E-09  2.77747E-09  2.73031E-09  2.68484E-09  2.64072E-09  2.59767E-09  2.55550E-09  2.51401E-09  2.47310E-09
   2.43268E-09  2.39266E-09  2.35300E-09  2.31361E-09  2.27446E-09  2.23553E-09  2.19678E-09  2.15816E-09  2.11968E-09  2.08130E-09
   2.04301E-09  2.00481E-09  1.96665E-09  1.92856E-09  1.89051E-09  1.85249E-09  1.81449E-09  1.77651E-09  1.73853E-09  1.70056E-09
   1.66259E-09  1.62461E-09  1.58664E-09  1.54865E-09  1.51063E-09  1.47261E-09  1.43454E-09  1.39644E-09  1.35835E-09  1.32020E-09
   1.28202E-09  1.24377E-09  1.20552E-09  1.16724E-09  1.12893E-09  1.09060E-09  1.05225E-09  1.01389E-09  9.75513E-10  9.37139E-10
   8.98762E-10  8.60390E-10  8.22029E-10  7.83683E-10  7.45354E-10  7.07057E-10  6.68784E-10  6.30548E-10  5.92353E-10  5.54205E-10
   5.16104E-10  4.78060E-10  4.40078E-10  4.02164E-10  3.64324E-10  3.26561E-10  2.88884E-10  2.51285E-10  2.13792E-10  1.76393E-10
   1.39098E-10  1.01920E-10  6.48553E-11  2.79116E-11 -8.90028E-12 -4.55821E-11 -8.21255E-11 -1.18526E-10 -1.54773E-10 -1.90859E-10
  -2.26793E-10 -2.62554E-10 -2.98144E-10 -3.33552E-10 -3.68776E-10 -4.03805E-10 -4.38652E-10 -4.73288E-10 -5.07713E-10 -5.41931E-10
  -5.75924E-10 -6.09693E-10 -6.43230E-10 -6.76523E-10 -7.09583E-10 -7.42390E-10 -7.74940E-10 -8.07231E-10 -8.39250E-10 -8.71004E-10
  -9.02460E-10 -9.33633E-10 -9.64511E-10 -9.95076E-10 -1.02532E-09 -1.05524E-09 -1.08481E-09 -1.11401E-09 -1.14280E-09 -1.17115E-09
  -1.19900E-09 -1.22620E-09 -1.25254E-09 -1.27754E-09 -1.29990E-09 -1.31540E-09 -1.30165E-09 -1.20368E-09 -1.15548E-09 -1.16356E-09
  -1.18536E-09 -1.19381E-09 -1.17854E-09 -1.12605E-09 -1.02335E-09 -9.01619E-10 -8.70657E-10 -1.07800E-09 -1.45638E-09 -1.57240E-09
  -1.62617E-09 -1.66234E-09 -1.69124E-09 -1.71634E-09 -1.73912E-09 -1.76030E-09 -1.78029E-09 -1.79931E-09 -1.81752E-09 -1.83500E-09
  -1.85184E-09 -1.86806E-09 -1.88372E-09 -1.89884E-09 -1.91343E-09 -1.92752E-09 -1.94111E-09 -1.95422E-09 -1.96686E-09 -1.97903E-09
  -1.99074E-09 -2.00200E-09 -2.01281E-09 -2.02318E-09 -2.03311E-09 -2.04259E-09 -2.05166E-09 -2.06029E-09 -2.06850E-09 -2.07628E-09
  -2.08365E-09 -2.09060E-09 -2.09714E-09 -2.10327E-09 -2.10900E-09 -2.11431E-09 -2.11923E-09 -2.12375E-09 -2.12787E-09 -2.13159E-09
  -2.13493E-09 -2.13787E-09 -2.14043E-09 -2.14260E-09 -2.14439E-09 -2.14580E-09 -2.14683E-09 -2.14749E-09 -2.14777E-09 -2.14769E-09
  -2.14724E-09 -2.14642E-09 -2.14524E-09 -2.14370E-09 -2.14179E-09 -2.13954E-09 -2.13693E-09 -2.13397E-09 -2.13067E-09 -2.12701E-09
  -2.12301E-09 -2.11867E-09 -2.11400E-09 -2.10898E-09 -2.10364E-09 -2.09796E-09 -2.09195E-09 -2.08562E-09 -2.07896E-09 -2.07198E-09
  -2.06468E-09 -2.05706E-09 -2.04913E-09 -2.04090E-09 -2.03234E-09 -2.02349E-09 -2.01432E-09 -2.00486E-09 -1.99510E-09 -1.98504E-09
  -1.97469E-09 -1.96405E-09 -1.95311E-09 -1.94189E-09 -1.93039E-09 -1.91860E-09 -1.90654E-09 -1.89420E-09 -1.88159E-09 -1.86870E-09
  -1.85555E-09 -1.84213E-09 -1.82845E-09 -1.81451E-09 -1.80031E-09 -1.78586E-09 -1.77116E-09 -1.75623E-09 -1.74105E-09 -1.72564E-09
  -1.71000E-09 -1.69414E-09 -1.67805E-09 -1.66175E-09 -1.64524E-09 -1.62852E-09 -1.61159E-09 -1.59447E-09 -1.57715E-09 -1.55965E-09
  -1.54196E-09 -1.52408E-09 -1.50603E-09 -1.48781E-09 -1.46942E-09 -1.45086E-09 -1.43215E-09 -1.41328E-09 -1.39425E-09 -1.37509E-09
  -1.35578E-09 -1.33633E-09 -1.31674E-09 -1.29703E-09 -1.27720E-09 -1.25724E-09 -1.23717E-09 -1.21698E-09 -1.19669E-09 -1.17629E-09
  -1.15580E-09 -1.13520E-09 -1.11453E-09 -1.09376E-09 -1.07291E-09 -1.05198E-09 -1.03098E-09 -1.00991E-09 -9.88772E-10 -9.67578E-10
  -9.46329E-10 -9.25022E-10 -9.03670E-10 -8.82271E-10 -8.60834E-10 -8.39361E-10 -8.17857E-10 -7.96327E-10 -7.74773E-10 -7.53200E-10
  -7.31608E-10 -7.10013E-10 -6.88407E-10 -6.66798E-10 -6.45193E-10 -6.23594E-10 -6.02002E-10 -5.80424E-10 -5.58865E-10 -5.37330E-10
  -5.15821E-10 -4.94339E-10 -4.72892E-10 -4.51486E-10 -4.30114E-10 -4.08798E-10 -3.87529E-10 -3.66313E-10 -3.45155E-10 -3.24057E-10
  -3.03025E-10 -2.82068E-10 -2.61180E-10 -2.40371E-10 -2.19642E-10 -1.99001E-10 -1.78445E-10 -1.57985E-10 -1.37624E-10 -1.17358E-10
  -9.71985E-11 -7.71452E-11 -5.72069E-11
 GABA     Conc. = 1.16E-09
   4.18915E-09  4.15493E-09  4.12056E-09  4.08605E-09  4.05138E-09  4.01656E-09  3.98156E-09  3.94637E-09  3.91102E-09  3.87549E-09
   3.83976E-09  3.80382E-09  3.76773E-09  3.73140E-09  3.69492E-09  3.65827E-09  3.62131E-09  3.58423E-09  3.54712E-09  3.50982E-09
   3.47254E-09  3.43554E-09  3.39893E-09  3.36312E-09  3.32902E-09  3.29775E-09  3.27294E-09  3.26245E-09  3.29029E-09  3.45150E-09
   3.54197E-09  3.53851E-09  3.81087E-09  4.11422E-09  4.23511E-09  4.46177E-09  4.81274E-09  5.16889E-09  5.40550E-09  5.41843E-09
   5.31976E-09  5.65008E-09  5.62706E-09  4.78357E-09  4.51187E-09  4.50477E-09  4.00044E-09  3.60136E-09  3.36426E-09  3.20014E-09
   3.07530E-09  2.97394E-09  2.88797E-09  2.81352E-09  2.74803E-09  2.68950E-09  2.63749E-09  2.59248E-09  2.55652E-09  2.53598E-09
   2.54545E-09  2.63791E-09  2.83725E-09  2.88587E-09  2.97421E-09  3.29363E-09  3.47915E-09  3.57633E-09  3.80847E-09  4.12725E-09
   4.40290E-09  4.47513E-09  4.26785E-09  4.09016E-09  4.22794E-09  3.65762E-09  2.83793E-09  2.79465E-09  2.65075E-09  2.31288E-09
   2.19904E-09  2.07175E-09  1.98488E-09  2.10990E-09  2.16695E-09  2.14502E-09  2.26282E-09  2.41214E-09  2.55459E-09  2.70003E-09
   2.70493E-09  2.76004E-09  3.06878E-09  2.97965E-09  2.59889E-09  2.73899E-09  2.68420E-09  2.24514E-09  2.08408E-09  1.96805E-09
   1.75407E-09  1.58648E-09  1.45516E-09  1.34659E-09  1.25313E-09  1.16984E-09  1.09396E-09  1.02385E-09  9.58420E-10  8.96951E-10
   8.38711E-10  7.82621E-10  7.28390E-10  6.75730E-10  6.24487E-10  5.74714E-10  5.26209E-10  4.78674E-10  4.32015E-10  3.86110E-10
   3.40891E-10  2.96372E-10  2.52478E-10  2.09149E-10  1.66349E-10  1.24056E-10  8.22275E-11  4.08206E-11 -1.45439E-13 -4.06981E-11
  -8.08804E-11 -1.20680E-10 -1.60111E-10 -1.99174E-10 -2.37881E-10 -2.76231E-10 -3.14252E-10 -3.51936E-10 -3.89288E-10 -4.26315E-10
  -4.63001E-10 -4.99344E-10 -5.35348E-10 -5.71021E-10 -6.06379E-10 -6.41405E-10 -6.76089E-10 -7.10423E-10 -7.44396E-10 -7.78026E-10
  -8.11276E-10 -8.44158E-10 -8.76654E-10 -9.08730E-10 -9.40365E-10 -9.71530E-10 -1.00217E-09 -1.03222E-09 -1.06155E-09 -1.09000E-09
  -1.11730E-09 -1.14294E-09 -1.16597E-09 -1.18440E-09 -1.19310E-09 -1.17543E-09 -1.04752E-09 -5.47135E-10 -2.46106E-10 -1.92565E-10
  -2.06771E-10 -1.68738E-10 -3.31989E-11  2.56022E-10  7.59003E-10  1.35671E-09  1.59686E-09  8.32598E-10 -7.41025E-10 -1.20343E-09
  -1.37404E-09 -1.46597E-09 -1.52701E-09 -1.57290E-09 -1.61020E-09 -1.64212E-09 -1.67037E-09 -1.69597E-09 -1.71956E-09 -1.74155E-09
  -1.76221E-09 -1.78175E-09 -1.80032E-09 -1.81801E-09 -1.83490E-09 -1.85107E-09 -1.86655E-09 -1.88140E-09 -1.89563E-09 -1.90929E-09
  -1.92238E-09 -1.93493E-09 -1.94695E-09 -1.95846E-09 -1.96946E-09 -1.97998E-09 -1.99001E-09 -1.99957E-09 -2.00867E-09 -2.01730E-09
  -2.02548E-09 -2.03321E-09 -2.04050E-09 -2.04735E-09 -2.05378E-09 -2.05977E-09 -2.06533E-09 -2.07048E-09 -2.07522E-09 -2.07953E-09
  -2.08344E-09 -2.08695E-09 -2.09005E-09 -2.09275E-09 -2.09505E-09 -2.09697E-09 -2.09849E-09 -2.09962E-09 -2.10038E-09 -2.10075E-09
