 LCModel (Version 6.3-1R) Copyright: S.W. Provencher.          Ref.: Magn. Reson. Med. 30:672-679 (1993).                
 onepulse 24x26_ftSpec_smooth_lcm
 26 lines in following concentration table = NCONC+1
    Conc.  %SD /Cr+PCr  Metabolite                                         
    0.000 999%   0.000 Ala                                                 
    0.000 999%   0.000 Asp                                                 
 4.62E-11 999% 8.4E-02 Cr                                                  
 6.90E-11 999%   0.126 GABA                                                
 8.20E-10 108%   1.491 Glc                                                 
 1.23E-09  84%   2.239 Gln                                                 
 7.93E-10 156%   1.443 Glu                                                 
    0.000 999%   0.000 Glyc                                                
    0.000 999%   0.000 GPC                                                 
    0.000 999%   0.000 GSH                                                 
 1.45E-09  37%   2.638 Ins                                                 
    0.000 999%   0.000 Lac                                                 
    0.000 999%   0.000 NAAG                                                
 9.34E-10  37%   1.700 NAA                                                 
 2.34E-10  44%   0.425 PCh                                                 
 5.03E-10 634%   0.916 PCr                                                 
    0.000 999%   0.000 PE                                                  
 2.11E-10  98%   0.384 Scyllo                                              
 3.79E-09  20%   6.889 Ser                                                 
    0.000 999%   0.000 Tau                                                 
 2.34E-10  44%   0.425 GPC+PCh                                             
 9.34E-10  37%   1.700 NAA+NAAG                                            
 1.45E-09  37%   2.638 Ins+Glyc                                            
 5.50E-10  90%   1.000 Cr+PCr                                              
 2.02E-09  42%   3.682 Glu+Gln                                             
   6 lines in following misc. output table
  FWHM = 0.089 ppm    S/N =   3                                            
  Data shift = 0.347 ppm                                                   
  Ph: -22 deg     -13.6 deg/ppm                                            
  alphaB,S = 1.7E-01,   4.5E+01                                            
   16 spline knots.   Ns = 5(1)                                            
  (11) 4 infls.   (11) 1 extrs.                                            
  363 points on ppm-axis = NY
      4.250000     4.238821     4.227641     4.216462     4.205282     4.194103     4.182923     4.171744     4.160564     4.149385
      4.138206     4.127026     4.115847     4.104667     4.093488     4.082308     4.071129     4.059949     4.048770     4.037591
      4.026411     4.015232     4.004052     3.992873     3.981693     3.970514     3.959334     3.948155     3.936975     3.925796
      3.914617     3.903437     3.892258     3.881078     3.869899     3.858719     3.847540     3.836360     3.825181     3.814002
      3.802822     3.791643     3.780463     3.769284     3.758104     3.746925     3.735745     3.724566     3.713387     3.702207
      3.691028     3.679848     3.668669     3.657489     3.646310     3.635130     3.623951     3.612772     3.601592     3.590413
      3.579233     3.568054     3.556874     3.545695     3.534515     3.523336     3.512156     3.500977     3.489798     3.478618
      3.467439     3.456259     3.445080     3.433900     3.422721     3.411541     3.400362     3.389183     3.378003     3.366824
      3.355644     3.344465     3.333285     3.322106     3.310926     3.299747     3.288568     3.277388     3.266209     3.255029
      3.243850     3.232670     3.221491     3.210311     3.199132     3.187953     3.176773     3.165594     3.154414     3.143235
      3.132055     3.120876     3.109696     3.098517     3.087337     3.076158     3.064979     3.053799     3.042620     3.031440
      3.020261     3.009081     2.997902     2.986722     2.975543     2.964364     2.953184     2.942005     2.930825     2.919646
      2.908466     2.897287     2.886107     2.874928     2.863749     2.852569     2.841390     2.830210     2.819031     2.807851
      2.796672     2.785492     2.774313     2.763134     2.751954     2.740775     2.729595     2.718416     2.707236     2.696057
      2.684877     2.673698     2.662519     2.651339     2.640160     2.628980     2.617801     2.606621     2.595442     2.584262
      2.573083     2.561903     2.550724     2.539545     2.528365     2.517186     2.506006     2.494827     2.483647     2.472468
      2.461288     2.450109     2.438930     2.427750     2.416571     2.405391     2.394212     2.383032     2.371853     2.360673
      2.349494     2.338315     2.327135     2.315956     2.304776     2.293597     2.282417     2.271238     2.260058     2.248879
      2.237700     2.226520     2.215341     2.204161     2.192982     2.181802     2.170623     2.159443     2.148264     2.137084
      2.125905     2.114726     2.103546     2.092367     2.081187     2.070008     2.058828     2.047649     2.036469     2.025290
      2.014111     2.002931     1.991752     1.980572     1.969393     1.958213     1.947034     1.935854     1.924675     1.913496
      1.902316     1.891137     1.879957     1.868778     1.857598     1.846419     1.835239     1.824060     1.812881     1.801701
      1.790522     1.779342     1.768163     1.756983     1.745804     1.734624     1.723445     1.712265     1.701086     1.689907
      1.678727     1.667548     1.656368     1.645189     1.634009     1.622830     1.611650     1.600471     1.589292     1.578112
      1.566933     1.555753     1.544574     1.533394     1.522215     1.511035     1.499856     1.488677     1.477497     1.466318
      1.455138     1.443959     1.432779     1.421600     1.410420     1.399241     1.388062     1.376882     1.365703     1.354523
      1.343344     1.332164     1.320985     1.309805     1.298626     1.287446     1.276267     1.265088     1.253908     1.242729
      1.231549     1.220370     1.209190     1.198011     1.186831     1.175652     1.164473     1.153293     1.142114     1.130934
      1.119755     1.108575     1.097396     1.086216     1.075037     1.063858     1.052678     1.041499     1.030319     1.019140
      1.007960     0.996781     0.985601     0.974422     0.963243     0.952063     0.940884     0.929704     0.918525     0.907345
      0.896166     0.884986     0.873807     0.862628     0.851448     0.840269     0.829089     0.817910     0.806730     0.795551
      0.784371     0.773192     0.762012     0.750833     0.739654     0.728474     0.717295     0.706115     0.694936     0.683756
      0.672577     0.661397     0.650218     0.639039     0.627859     0.616680     0.605500     0.594321     0.583141     0.571962
      0.560782     0.549603     0.538424     0.527244     0.516065     0.504885     0.493706     0.482526     0.471347     0.460167
      0.448988     0.437809     0.426629     0.415450     0.404270     0.393091     0.381911     0.370732     0.359552     0.348373
      0.337193     0.326014     0.314835     0.303655     0.292476     0.281296     0.270117     0.258937     0.247758     0.236578
      0.225399     0.214220     0.203040
 NY phased data points follow
   1.00792E-08  1.27652E-08  1.50964E-08  1.40914E-08  1.39592E-08  1.26617E-08  1.20143E-08  1.15571E-08  1.13711E-08  1.04934E-08
   1.05472E-08  1.06816E-08  1.10862E-08  1.12253E-08  1.22995E-08  1.26117E-08  1.30728E-08  1.23886E-08  1.32921E-08  1.26023E-08
   1.31907E-08  1.24591E-08  1.17969E-08  1.13155E-08  1.14652E-08  1.20938E-08  1.32892E-08  1.31282E-08  1.28439E-08  1.16381E-08
   1.16578E-08  1.18997E-08  1.39628E-08  1.50470E-08  1.63388E-08  1.56278E-08  1.48222E-08  1.39084E-08  1.32486E-08  1.23217E-08
   1.18577E-08  1.14425E-08  1.13574E-08  1.08144E-08  1.06888E-08  1.05440E-08  1.04777E-08  8.57930E-09  8.76767E-09  8.31799E-09
   8.20647E-09  8.31181E-09  8.66024E-09  8.85871E-09  8.74289E-09  7.51570E-09  7.09806E-09  6.78823E-09  7.14466E-09  6.71376E-09
   7.44423E-09  7.12793E-09  8.22408E-09  1.06052E-08  1.39800E-08  1.44093E-08  1.43413E-08  1.29049E-08  1.20749E-08  9.89290E-09
   1.02568E-08  9.20326E-09  8.39854E-09  7.39278E-09  7.69720E-09  6.76395E-09  6.73141E-09  5.86930E-09  6.33886E-09  9.73609E-09
   1.42613E-08  1.74483E-08  1.89354E-08  1.70810E-08  1.59551E-08  1.51048E-08  1.42855E-08  1.35916E-08  1.31019E-08  1.27495E-08
   1.26536E-08  1.20349E-08  1.15225E-08  1.11320E-08  1.03038E-08  9.90483E-09  9.21537E-09  8.56117E-09  9.13303E-09  7.89690E-09
   8.18234E-09  7.69105E-09  8.59495E-09  8.24955E-09  8.43838E-09  8.02238E-09  7.97113E-09  7.93302E-09  7.78409E-09  6.24740E-09
   6.54053E-09  5.52803E-09  4.68458E-09  5.15928E-09  6.13512E-09  6.00552E-09  5.99716E-09  5.89214E-09  6.35007E-09  6.06974E-09
   6.43509E-09  5.95757E-09  5.94215E-09  5.23539E-09  5.04659E-09  3.90984E-09  3.46712E-09  3.21920E-09  3.66083E-09  3.81927E-09
   4.58749E-09  3.60083E-09  3.68156E-09  3.56522E-09  4.00443E-09  4.04268E-09  3.55589E-09  2.90678E-09  3.08071E-09  3.48550E-09
   4.87491E-09  5.99602E-09  6.43458E-09  5.28022E-09  5.45802E-09  5.52848E-09  7.23026E-09  6.63729E-09  6.99538E-09  6.84721E-09
   6.96370E-09  6.44688E-09  6.94156E-09  6.36710E-09  6.22414E-09  6.26212E-09  6.70616E-09  6.51628E-09  6.09224E-09  7.00234E-09
   6.63545E-09  7.00359E-09  7.01686E-09  7.30390E-09  7.58988E-09  7.55130E-09  7.71313E-09  9.13399E-09  9.32216E-09  1.02130E-08
   1.41508E-08  1.92986E-08  2.25382E-08  2.14361E-08  1.82116E-08  1.54791E-08  1.36323E-08  1.18116E-08  1.12475E-08  9.30204E-09
   8.22847E-09  7.59526E-09  6.44483E-09  5.25793E-09  4.46584E-09  3.06622E-09  1.98895E-09  4.83150E-10 -6.90637E-10 -1.82369E-09
  -3.17185E-09 -5.30080E-09 -6.90933E-09 -8.98786E-09 -1.05540E-08 -1.27023E-08 -1.42388E-08 -1.63204E-08 -1.77762E-08 -1.92219E-08
  -2.03985E-08 -2.12176E-08 -2.11258E-08 -2.14356E-08 -2.07429E-08 -1.96599E-08 -1.84280E-08 -1.67843E-08 -1.44949E-08 -1.26665E-08
  -1.01617E-08 -8.27792E-09 -6.15668E-09 -4.01480E-09 -2.36556E-09 -1.30881E-09 -5.41434E-10 -4.17297E-10  1.91444E-10  1.13105E-11
  -5.16777E-10 -3.67431E-10 -1.01312E-09 -1.09245E-09 -1.38298E-09 -9.17212E-10 -1.30915E-09 -1.01512E-09 -6.02286E-10 -5.90314E-10
  -6.67524E-10 -8.07469E-10 -2.48945E-10 -9.45343E-10 -1.42409E-09 -1.15654E-09 -9.54427E-10 -1.17749E-09 -9.31313E-10 -3.90001E-10
  -4.64120E-11 -7.10190E-12 -4.11572E-11 -6.78795E-10 -6.06310E-10 -8.18805E-10 -8.81065E-10 -8.33202E-10 -5.44599E-10 -9.71986E-10
  -2.35480E-10  1.61718E-10  1.64463E-10  3.27314E-10  4.85423E-10  5.76622E-10  3.73054E-10 -8.54649E-11  1.44965E-11 -4.21278E-10
  -8.74244E-10 -7.83073E-10 -5.73592E-10 -1.16366E-09 -1.17514E-09 -6.90784E-10 -4.52543E-10 -5.74198E-10  2.76489E-10  5.28261E-10
   6.82018E-10  9.98755E-10  8.57293E-10  1.33595E-09  1.13227E-09  1.24208E-09  6.28688E-10  3.92601E-10  7.95519E-10  2.82375E-12
   2.77690E-10  4.81591E-11 -1.36552E-10 -3.19905E-10 -5.67441E-10  9.78555E-11 -5.25812E-10 -3.35907E-10 -2.90299E-10 -1.87219E-10
  -9.34672E-11 -2.51891E-10 -5.97978E-10  3.20159E-12  1.26428E-10 -2.81787E-10  1.89033E-11 -2.40574E-10  1.92608E-10 -1.59513E-10
   8.81840E-11 -2.82256E-11  3.14556E-10  1.36620E-10  3.63979E-10 -2.05887E-10  4.58893E-10  1.04483E-10 -6.89582E-11 -9.36987E-11
   1.47974E-10  2.75592E-10  2.41808E-10  1.13045E-10  3.83627E-10  5.29357E-10  4.58411E-10  6.07772E-10  2.64255E-10  5.23616E-10
   1.00368E-09  8.21335E-10  8.11104E-10  1.42328E-10  8.69427E-10  7.05198E-10  7.07219E-10  4.87526E-10  7.94765E-10  4.26013E-10
   8.61286E-10  9.93616E-10  8.73350E-10  1.01538E-09  1.01057E-09  1.08162E-09  8.94413E-10  8.66233E-10  6.51221E-10  9.52367E-10
   1.53128E-09  1.06845E-09  1.04410E-09  1.31748E-09  1.05074E-09  1.30375E-09  1.26109E-09  1.10210E-09  1.45605E-09  1.28703E-09
   8.41607E-10  1.48009E-09  1.50471E-09  9.03938E-10  1.60848E-09  1.19258E-09  1.61467E-09  1.48612E-09  1.65443E-09  1.56052E-09
   1.99899E-09  1.16252E-09  1.69918E-09
 NY points of the fit to the data follow
   1.19258E-08  1.32566E-08  1.33903E-08  1.27566E-08  1.28119E-08  1.31616E-08  1.30011E-08  1.22024E-08  1.12210E-08  1.07357E-08
   1.06244E-08  1.05700E-08  1.08570E-08  1.14020E-08  1.21929E-08  1.27125E-08  1.26989E-08  1.28606E-08  1.32597E-08  1.30795E-08
   1.24290E-08  1.19522E-08  1.17881E-08  1.15596E-08  1.14946E-08  1.15430E-08  1.19403E-08  1.26710E-08  1.32957E-08  1.34441E-08
   1.35740E-08  1.36584E-08  1.39367E-08  1.41458E-08  1.40085E-08  1.33537E-08  1.32235E-08  1.32092E-08  1.31025E-08  1.29327E-08
   1.27517E-08  1.24074E-08  1.15827E-08  1.05540E-08  9.94503E-09  9.54771E-09  9.23950E-09  8.97564E-09  8.73595E-09  8.51937E-09
   8.31696E-09  8.14822E-09  8.03595E-09  7.93208E-09  7.82603E-09  7.82448E-09  7.88587E-09  8.01798E-09  8.34474E-09  8.78987E-09
   9.19920E-09  9.63783E-09  1.01881E-08  1.06928E-08  1.11112E-08  1.14007E-08  1.15236E-08  1.15500E-08  1.12939E-08  1.06638E-08
   1.01420E-08  9.76816E-09  9.24912E-09  8.66198E-09  8.34890E-09  8.22742E-09  8.21540E-09  8.92588E-09  1.01338E-08  1.15717E-08
   1.32106E-08  1.48870E-08  1.61594E-08  1.68107E-08  1.69654E-08  1.67496E-08  1.62076E-08  1.51491E-08  1.31858E-08  1.18053E-08
   1.10026E-08  1.04441E-08  1.00270E-08  9.67534E-09  9.37685E-09  9.13142E-09  8.90842E-09  8.70161E-09  8.52067E-09  8.35753E-09
   8.20580E-09  8.06627E-09  7.93713E-09  7.81672E-09  7.70367E-09  7.59696E-09  7.49569E-09  7.39913E-09  7.30676E-09  7.21809E-09
   7.13273E-09  7.05031E-09  6.97051E-09  6.89307E-09  6.81767E-09  6.74399E-09  6.67179E-09  6.60082E-09  6.53083E-09  6.46160E-09
   6.39294E-09  6.32464E-09  6.25652E-09  6.18841E-09  6.12012E-09  6.05150E-09  5.98237E-09  5.91260E-09  5.84203E-09  5.77050E-09
   5.69787E-09  5.62402E-09  5.54878E-09  5.47203E-09  5.39366E-09  5.31350E-09  5.23146E-09  5.14741E-09  5.06122E-09  4.97277E-09
   4.88192E-09  4.78861E-09  4.69270E-09  4.59408E-09  4.49264E-09  4.38828E-09  4.28092E-09  4.17046E-09  4.05684E-09  3.94000E-09
   3.81992E-09  3.69656E-09  3.56999E-09  3.44026E-09  3.30752E-09  3.17201E-09  3.03412E-09  2.89443E-09  2.75389E-09  2.61392E-09
   2.47691E-09  2.34685E-09  2.23097E-09  2.14336E-09  2.11598E-09  2.23884E-09  2.88920E-09  5.45434E-09  9.01630E-09  1.27472E-08
   1.65717E-08  1.99343E-08  2.17815E-08  2.15947E-08  1.99734E-08  1.77818E-08  1.48340E-08  1.00209E-08  3.89283E-09  7.82058E-10
  -3.48258E-10 -9.94767E-10 -1.45987E-09 -1.83586E-09 -2.16000E-09 -2.45005E-09 -2.71539E-09 -2.96129E-09 -3.19084E-09 -3.40588E-09
  -3.60748E-09 -3.79623E-09 -3.97237E-09 -4.13592E-09 -4.28679E-09 -4.42476E-09 -4.54972E-09 -4.66205E-09 -4.76225E-09 -4.85076E-09
  -4.92798E-09 -4.99431E-09 -5.05014E-09 -5.09583E-09 -5.13174E-09 -5.15823E-09 -5.17562E-09 -5.18428E-09 -5.18452E-09 -5.17667E-09
  -5.16108E-09 -5.13806E-09 -5.10793E-09 -5.07102E-09 -5.02765E-09 -4.97813E-09 -4.92277E-09 -4.86190E-09 -4.79582E-09 -4.72485E-09
  -4.64929E-09 -4.56945E-09 -4.48563E-09 -4.39815E-09 -4.30729E-09 -4.21331E-09 -4.11649E-09 -4.01707E-09 -3.91531E-09 -3.81148E-09
  -3.70583E-09 -3.59861E-09 -3.49007E-09 -3.38046E-09 -3.27001E-09 -3.15899E-09 -3.04763E-09 -2.93617E-09 -2.82482E-09 -2.71386E-09
  -2.60350E-09 -2.49395E-09 -2.38545E-09 -2.27823E-09 -2.17249E-09 -2.06845E-09 -1.96632E-09 -1.86631E-09 -1.76862E-09 -1.67347E-09
  -1.58103E-09 -1.49151E-09 -1.40498E-09 -1.32136E-09 -1.24060E-09 -1.16260E-09 -1.08729E-09 -1.01460E-09 -9.44441E-10 -8.76745E-10
  -8.11438E-10 -7.48436E-10 -6.87676E-10 -6.29074E-10 -5.72564E-10 -5.18071E-10 -4.65509E-10 -4.14834E-10 -3.65961E-10 -3.18815E-10
  -2.73327E-10 -2.29440E-10 -1.87071E-10 -1.46162E-10 -1.06656E-10 -6.84637E-11 -3.15480E-11  4.16914E-12  3.87426E-11  7.22417E-11
   1.04708E-10  1.36184E-10  1.66709E-10  1.96322E-10  2.25057E-10  2.52955E-10  2.80050E-10  3.06379E-10  3.31976E-10  3.56873E-10
   3.81105E-10  4.04703E-10  4.27700E-10  4.50124E-10  4.72006E-10  4.93375E-10  5.14258E-10  5.34682E-10  5.54671E-10  5.74255E-10
   5.93450E-10  6.12286E-10  6.30782E-10  6.48956E-10  6.66832E-10  6.84427E-10  7.01758E-10  7.18842E-10  7.35671E-10  7.52227E-10
   7.68491E-10  7.84447E-10  8.00075E-10  8.15357E-10  8.30276E-10  8.44814E-10  8.58954E-10  8.72678E-10  8.85970E-10  8.98812E-10
   9.11188E-10  9.23081E-10  9.34474E-10  9.45353E-10  9.55700E-10  9.65500E-10  9.74737E-10  9.83395E-10  9.91460E-10  9.98916E-10
   1.00575E-09  1.01194E-09  1.01749E-09  1.02236E-09  1.02656E-09  1.03006E-09  1.03285E-09  1.03491E-09  1.03623E-09  1.03679E-09
   1.03658E-09  1.03558E-09  1.03378E-09  1.03116E-09  1.02772E-09  1.02343E-09  1.01828E-09  1.01227E-09  1.00539E-09  9.97609E-10
   9.88932E-10  9.79347E-10  9.68842E-10  9.57410E-10  9.45041E-10  9.31728E-10  9.17462E-10  9.02237E-10  8.86046E-10  8.68883E-10
   8.50743E-10  8.31622E-10  8.11511E-10
 NY background values follow
     3.483E-09    3.540E-09    3.596E-09    3.651E-09    3.705E-09    3.758E-09    3.811E-09    3.862E-09    3.913E-09    3.962E-09
     4.011E-09    4.059E-09    4.106E-09    4.152E-09    4.197E-09    4.241E-09    4.284E-09    4.326E-09    4.368E-09    4.408E-09
     4.448E-09    4.486E-09    4.524E-09    4.561E-09    4.596E-09    4.631E-09    4.665E-09    4.698E-09    4.730E-09    4.761E-09
     4.792E-09    4.821E-09    4.849E-09    4.877E-09    4.903E-09    4.929E-09    4.954E-09    4.978E-09    5.001E-09    5.023E-09
     5.044E-09    5.065E-09    5.084E-09    5.103E-09    5.122E-09    5.139E-09    5.155E-09    5.171E-09    5.186E-09    5.201E-09
     5.215E-09    5.228E-09    5.240E-09    5.252E-09    5.263E-09    5.273E-09    5.283E-09    5.292E-09    5.301E-09    5.309E-09
     5.317E-09    5.324E-09    5.330E-09    5.336E-09    5.341E-09    5.345E-09    5.349E-09    5.353E-09    5.356E-09    5.358E-09
     5.360E-09    5.361E-09    5.361E-09    5.361E-09    5.361E-09    5.359E-09    5.358E-09    5.355E-09    5.352E-09    5.349E-09
     5.345E-09    5.340E-09    5.334E-09    5.328E-09    5.322E-09    5.315E-09    5.307E-09    5.299E-09    5.290E-09    5.280E-09
     5.270E-09    5.260E-09    5.249E-09    5.237E-09    5.225E-09    5.212E-09    5.199E-09    5.185E-09    5.171E-09    5.156E-09
     5.141E-09    5.125E-09    5.109E-09    5.093E-09    5.076E-09    5.059E-09    5.041E-09    5.023E-09    5.004E-09    4.985E-09
     4.966E-09    4.946E-09    4.926E-09    4.906E-09    4.885E-09    4.864E-09    4.841E-09    4.819E-09    4.795E-09    4.770E-09
     4.745E-09    4.718E-09    4.690E-09    4.661E-09    4.630E-09    4.598E-09    4.564E-09    4.529E-09    4.491E-09    4.452E-09
     4.411E-09    4.368E-09    4.323E-09    4.275E-09    4.225E-09    4.173E-09    4.118E-09    4.060E-09    4.000E-09    3.936E-09
     3.870E-09    3.800E-09    3.728E-09    3.652E-09    3.572E-09    3.490E-09    3.403E-09    3.313E-09    3.219E-09    3.120E-09
     3.018E-09    2.912E-09    2.801E-09    2.686E-09    2.566E-09    2.442E-09    2.313E-09    2.179E-09    2.041E-09    1.897E-09
     1.748E-09    1.594E-09    1.435E-09    1.270E-09    1.100E-09    9.235E-10    7.419E-10    5.544E-10    3.611E-10    1.625E-10
    -4.085E-11   -2.482E-10   -4.590E-10   -6.727E-10   -8.884E-10   -1.106E-09   -1.324E-09   -1.542E-09   -1.760E-09   -1.977E-09
    -2.193E-09   -2.406E-09   -2.616E-09   -2.822E-09   -3.025E-09   -3.222E-09   -3.414E-09   -3.600E-09   -3.779E-09   -3.951E-09
    -4.115E-09   -4.270E-09   -4.416E-09   -4.552E-09   -4.678E-09   -4.792E-09   -4.896E-09   -4.988E-09   -5.069E-09   -5.139E-09
    -5.200E-09   -5.249E-09   -5.290E-09   -5.320E-09   -5.342E-09   -5.354E-09   -5.358E-09   -5.353E-09   -5.341E-09   -5.321E-09
    -5.293E-09   -5.258E-09   -5.217E-09   -5.168E-09   -5.114E-09   -5.054E-09   -4.988E-09   -4.917E-09   -4.841E-09   -4.760E-09
    -4.674E-09   -4.585E-09   -4.492E-09   -4.395E-09   -4.295E-09   -4.192E-09   -4.086E-09   -3.978E-09   -3.868E-09   -3.755E-09
    -3.641E-09   -3.526E-09   -3.409E-09   -3.292E-09   -3.173E-09   -3.054E-09   -2.935E-09   -2.816E-09   -2.697E-09   -2.579E-09
    -2.461E-09   -2.344E-09   -2.229E-09   -2.114E-09   -2.002E-09   -1.891E-09   -1.782E-09   -1.675E-09   -1.570E-09   -1.469E-09
    -1.370E-09   -1.274E-09   -1.181E-09   -1.091E-09   -1.004E-09   -9.194E-10   -8.379E-10   -7.591E-10   -6.829E-10   -6.092E-10
    -5.380E-10   -4.691E-10   -4.026E-10   -3.382E-10   -2.760E-10   -2.159E-10   -1.577E-10   -1.015E-10   -4.720E-11    5.372E-12
     5.623E-11    1.054E-10    1.531E-10    1.992E-10    2.439E-10    2.872E-10    3.292E-10    3.699E-10    4.095E-10    4.479E-10
     4.853E-10    5.216E-10    5.569E-10    5.913E-10    6.247E-10    6.573E-10    6.890E-10    7.199E-10    7.500E-10    7.794E-10
     8.081E-10    8.361E-10    8.635E-10    8.902E-10    9.164E-10    9.420E-10    9.671E-10    9.917E-10    1.016E-09    1.040E-09
     1.063E-09    1.086E-09    1.108E-09    1.130E-09    1.152E-09    1.174E-09    1.195E-09    1.216E-09    1.236E-09    1.257E-09
     1.276E-09    1.296E-09    1.315E-09    1.334E-09    1.353E-09    1.371E-09    1.388E-09    1.406E-09    1.422E-09    1.439E-09
     1.454E-09    1.470E-09    1.484E-09    1.498E-09    1.512E-09    1.525E-09    1.538E-09    1.549E-09    1.561E-09    1.571E-09
     1.581E-09    1.590E-09    1.599E-09    1.607E-09    1.614E-09    1.620E-09    1.626E-09    1.631E-09    1.635E-09    1.638E-09
     1.641E-09    1.643E-09    1.643E-09    1.644E-09    1.643E-09    1.641E-09    1.639E-09    1.635E-09    1.631E-09    1.626E-09
     1.619E-09    1.612E-09    1.604E-09    1.595E-09    1.585E-09    1.574E-09    1.562E-09    1.549E-09    1.535E-09    1.521E-09
     1.505E-09    1.488E-09    1.470E-09
 Cr       Conc. = 4.62E-11
   3.60313E-09  3.67984E-09  3.73826E-09  3.75924E-09  3.78114E-09  3.81540E-09  3.85488E-09  3.89679E-09  3.93980E-09  3.98323E-09
   4.02667E-09  4.06984E-09  4.11257E-09  4.15471E-09  4.19617E-09  4.23687E-09  4.27674E-09  4.31572E-09  4.35375E-09  4.39076E-09
   4.42671E-09  4.46151E-09  4.49509E-09  4.52734E-09  4.55811E-09  4.58726E-09  4.61450E-09  4.63945E-09  4.66153E-09  4.67977E-09
   4.69274E-09  4.70464E-09  4.74766E-09  4.80728E-09  4.87986E-09  4.96869E-09  5.06745E-09  5.15781E-09  5.22584E-09  5.27541E-09
   5.31795E-09  5.34786E-09  5.33627E-09  5.28019E-09  5.25965E-09  5.25408E-09  5.25512E-09  5.25955E-09  5.26582E-09  5.27313E-09
   5.28102E-09  5.28913E-09  5.29730E-09  5.30537E-09  5.31332E-09  5.32095E-09  5.32826E-09  5.33527E-09  5.34191E-09  5.34814E-09
   5.35395E-09  5.35932E-09  5.36423E-09  5.36865E-09  5.37259E-09  5.37605E-09  5.37899E-09  5.38142E-09  5.38334E-09  5.38473E-09
   5.38558E-09  5.38591E-09  5.38569E-09  5.38493E-09  5.38361E-09  5.38176E-09  5.37935E-09  5.37637E-09  5.37283E-09  5.36874E-09
   5.36404E-09  5.35881E-09  5.35296E-09  5.34656E-09  5.33954E-09  5.33197E-09  5.32381E-09  5.31508E-09  5.30580E-09  5.29595E-09
   5.28558E-09  5.27464E-09  5.26319E-09  5.25122E-09  5.23873E-09  5.22572E-09  5.21223E-09  5.19824E-09  5.18378E-09  5.16886E-09
   5.15345E-09  5.13760E-09  5.12131E-09  5.10459E-09  5.08744E-09  5.06986E-09  5.05190E-09  5.03352E-09  5.01477E-09  4.99563E-09
   4.97614E-09  4.95629E-09  4.93605E-09  4.91544E-09  4.89436E-09  4.87270E-09  4.85040E-09  4.82735E-09  4.80347E-09  4.77866E-09
   4.75285E-09  4.72591E-09  4.69778E-09  4.66836E-09  4.63754E-09  4.60525E-09  4.57136E-09  4.53579E-09  4.49846E-09  4.45925E-09
   4.41805E-09  4.37479E-09  4.32936E-09  4.28163E-09  4.23155E-09  4.17898E-09  4.12384E-09  4.06602E-09  4.00543E-09  3.94196E-09
   3.87547E-09  3.80592E-09  3.73316E-09  3.65710E-09  3.57761E-09  3.49460E-09  3.40794E-09  3.31754E-09  3.22327E-09  3.12503E-09
   3.02272E-09  2.91621E-09  2.80542E-09  2.69023E-09  2.57055E-09  2.44624E-09  2.31724E-09  2.18342E-09  2.04470E-09  1.90097E-09
   1.75214E-09  1.59814E-09  1.43892E-09  1.27442E-09  1.10476E-09  9.30372E-10  7.53791E-10  5.82390E-10  4.07242E-10  2.27286E-10
   4.30451E-11 -1.48588E-10 -3.52274E-10 -5.68454E-10 -7.92160E-10 -1.01911E-09 -1.25156E-09 -1.49461E-09 -1.74062E-09 -1.96550E-09
  -2.18390E-09 -2.39857E-09 -2.60970E-09 -2.81693E-09 -3.01974E-09 -3.21760E-09 -3.40990E-09 -3.59605E-09 -3.77540E-09 -3.94737E-09
  -4.11134E-09 -4.26671E-09 -4.41287E-09 -4.54919E-09 -4.67509E-09 -4.78998E-09 -4.89343E-09 -4.98562E-09 -5.06684E-09 -5.13738E-09
  -5.19751E-09 -5.24754E-09 -5.28775E-09 -5.31844E-09 -5.33991E-09 -5.35245E-09 -5.35636E-09 -5.35195E-09 -5.33950E-09 -5.31932E-09
  -5.29172E-09 -5.25699E-09 -5.21543E-09 -5.16736E-09 -5.11306E-09 -5.05285E-09 -4.98702E-09 -4.91588E-09 -4.83973E-09 -4.75887E-09
  -4.67360E-09 -4.58421E-09 -4.49101E-09 -4.39430E-09 -4.29436E-09 -4.19144E-09 -4.08581E-09 -3.97771E-09 -3.86741E-09 -3.75515E-09
  -3.64119E-09 -3.52577E-09 -3.40914E-09 -3.29155E-09 -3.17323E-09 -3.05443E-09 -2.93539E-09 -2.81634E-09 -2.69751E-09 -2.57915E-09
  -2.46147E-09 -2.34469E-09 -2.22905E-09 -2.11477E-09 -2.00205E-09 -1.89111E-09 -1.78215E-09 -1.67539E-09 -1.57103E-09 -1.46928E-09
  -1.37030E-09 -1.27432E-09 -1.18140E-09 -1.09145E-09 -1.00443E-09 -9.20234E-10 -8.38791E-10 -7.60028E-10 -6.83861E-10 -6.10216E-10
  -5.39021E-10 -4.70188E-10 -4.03655E-10 -3.39337E-10 -2.77168E-10 -2.17070E-10 -1.58958E-10 -1.02787E-10 -4.84701E-11  4.06794E-12
   5.48958E-11  1.04071E-10  1.51678E-10  1.97776E-10  2.42421E-10  2.85704E-10  3.27663E-10  3.68376E-10  4.07899E-10  4.46301E-10
   4.83625E-10  5.19914E-10  5.55206E-10  5.89543E-10  6.22959E-10  6.55495E-10  6.87185E-10  7.18066E-10  7.48173E-10  7.77540E-10
   8.06200E-10  8.34186E-10  8.61530E-10  8.88263E-10  9.14413E-10  9.40011E-10  9.65084E-10  9.89660E-10  1.01376E-09  1.03742E-09
   1.06066E-09  1.08350E-09  1.10596E-09  1.12806E-09  1.14983E-09  1.17128E-09  1.19243E-09  1.21330E-09  1.23389E-09  1.25416E-09
   1.27411E-09  1.29371E-09  1.31295E-09  1.33181E-09  1.35028E-09  1.36833E-09  1.38596E-09  1.40313E-09  1.41984E-09  1.43606E-09
   1.45179E-09  1.46701E-09  1.48169E-09  1.49583E-09  1.50940E-09  1.52240E-09  1.53480E-09  1.54659E-09  1.55776E-09  1.56829E-09
   1.57817E-09  1.58738E-09  1.59590E-09  1.60374E-09  1.61086E-09  1.61726E-09  1.62292E-09  1.62782E-09  1.63195E-09  1.63530E-09
   1.63784E-09  1.63957E-09  1.64047E-09  1.64052E-09  1.63972E-09  1.63804E-09  1.63549E-09  1.63204E-09  1.62769E-09  1.62242E-09
   1.61622E-09  1.60909E-09  1.60101E-09  1.59198E-09  1.58198E-09  1.57102E-09  1.55907E-09  1.54614E-09  1.53222E-09  1.51730E-09
   1.50138E-09  1.48445E-09  1.46651E-09
 GABA     Conc. = 6.90E-11
   3.45200E-09  3.50830E-09  3.56367E-09  3.61812E-09  3.67165E-09  3.72424E-09  3.77590E-09  3.82661E-09  3.87639E-09  3.92520E-09
   3.97306E-09  4.01996E-09  4.06588E-09  4.11082E-09  4.15477E-09  4.19772E-09  4.23965E-09  4.28056E-09  4.32043E-09  4.35922E-09
   4.39692E-09  4.43349E-09  4.46891E-09  4.50311E-09  4.53605E-09  4.56768E-09  4.59793E-09  4.62681E-09  4.65481E-09  4.68638E-09
   4.72022E-09  4.75208E-09  4.79229E-09  4.84106E-09  4.88861E-09  4.93780E-09  4.99106E-09  5.04435E-09  5.09121E-09  5.12687E-09
   5.15292E-09  5.18126E-09  5.20238E-09  5.20114E-09  5.20330E-09  5.21337E-09  5.21481E-09  5.21556E-09  5.21975E-09  5.22575E-09
   5.23265E-09  5.23992E-09  5.24725E-09  5.25445E-09  5.26143E-09  5.26797E-09  5.27406E-09  5.27968E-09  5.28479E-09  5.28951E-09
   5.29422E-09  5.30114E-09  5.31494E-09  5.32871E-09  5.34505E-09  5.37345E-09  5.40282E-09  5.42801E-09  5.45337E-09  5.47737E-09
   5.49493E-09  5.50071E-09  5.49393E-09  5.48330E-09  5.47887E-09  5.45883E-09  5.42929E-09  5.41683E-09  5.40410E-09  5.38692E-09
   5.37622E-09  5.36622E-09  5.35678E-09  5.35530E-09  5.35510E-09  5.35313E-09  5.35588E-09  5.36129E-09  5.36610E-09  5.36919E-09
   5.36710E-09  5.36341E-09  5.36227E-09  5.34978E-09  5.32766E-09  5.31463E-09  5.29692E-09  5.26968E-09  5.24762E-09  5.22681E-09
   5.20389E-09  5.18197E-09  5.16087E-09  5.14022E-09  5.11982E-09  5.09947E-09  5.07913E-09  5.05867E-09  5.03809E-09  5.01733E-09
   4.99640E-09  4.97524E-09  4.95382E-09  4.93213E-09  4.91006E-09  4.88750E-09  4.86437E-09  4.84056E-09  4.81597E-09  4.79050E-09
   4.76406E-09  4.73655E-09  4.70789E-09  4.67796E-09  4.64667E-09  4.61392E-09  4.57961E-09  4.54365E-09  4.50594E-09  4.46637E-09
   4.42484E-09  4.38126E-09  4.33551E-09  4.28750E-09  4.23714E-09  4.18430E-09  4.12891E-09  4.07085E-09  4.01003E-09  3.94634E-09
   3.87964E-09  3.80988E-09  3.73693E-09  3.66068E-09  3.58102E-09  3.49783E-09  3.41101E-09  3.32045E-09  3.22603E-09  3.12764E-09
   3.02519E-09  2.91855E-09  2.80763E-09  2.69232E-09  2.57251E-09  2.44810E-09  2.31899E-09  2.18508E-09  2.04628E-09  1.90248E-09
   1.75361E-09  1.59958E-09  1.44040E-09  1.27602E-09  1.10666E-09  9.33038E-10  7.59131E-10  5.95700E-10  4.29453E-10  2.58664E-10
   8.37417E-11 -1.00313E-10 -3.00713E-10 -5.18305E-10 -7.45962E-10 -9.77736E-10 -1.21742E-09 -1.47277E-09 -1.73217E-09 -1.96075E-09
  -2.18066E-09 -2.39615E-09 -2.60781E-09 -2.81542E-09 -3.01852E-09 -3.21660E-09 -3.40909E-09 -3.59539E-09 -3.77488E-09 -3.94697E-09
  -4.11105E-09 -4.26652E-09 -4.41276E-09 -4.54916E-09 -4.67514E-09 -4.79009E-09 -4.89361E-09 -4.98587E-09 -5.06714E-09 -5.13773E-09
  -5.19791E-09 -5.24799E-09 -5.28825E-09 -5.31899E-09 -5.34050E-09 -5.35308E-09 -5.35704E-09 -5.35266E-09 -5.34025E-09 -5.32011E-09
  -5.29254E-09 -5.25784E-09 -5.21631E-09 -5.16827E-09 -5.11400E-09 -5.05382E-09 -4.98803E-09 -4.91691E-09 -4.84079E-09 -4.75995E-09
  -4.67471E-09 -4.58534E-09 -4.49217E-09 -4.39548E-09 -4.29556E-09 -4.19266E-09 -4.08705E-09 -3.97897E-09 -3.86869E-09 -3.75645E-09
