 LCModel (Version 6.3-1R) Copyright: S.W. Provencher.          Ref.: Magn. Reson. Med. 30:672-679 (1993).                
 onepulse 24x29_ftSpec_smooth_lcm
 26 lines in following concentration table = NCONC+1
    Conc.  %SD /Cr+PCr  Metabolite                                         
 2.70E-10 119%   0.544 Ala                                                 
 1.48E-09  47%   2.994 Asp                                                 
    0.000 999%   0.000 Cr                                                  
 5.35E-10 128%   1.080 GABA                                                
    0.000 999%   0.000 Glc                                                 
 5.97E-10 130%   1.204 Gln                                                 
    0.000 999%   0.000 Glu                                                 
    0.000 999%   0.000 Glyc                                                
    0.000 999%   0.000 GPC                                                 
 9.86E-10  44%   1.989 GSH                                                 
 1.81E-09  28%   3.650 Ins                                                 
    0.000 999%   0.000 Lac                                                 
 2.23E-10 163%   0.449 NAAG                                                
 3.12E-10 150%   0.630 NAA                                                 
    0.000 999%   0.000 PCh                                                 
 4.96E-10  74%   1.000 PCr                                                 
 1.99E-09  50%   4.016 PE                                                  
 2.38E-10 142%   0.480 Scyllo                                              
    0.000 999%   0.000 Ser                                                 
 4.48E-10 276%   0.903 Tau                                                 
    0.000 999%   0.000 GPC+PCh                                             
 5.35E-10  55%   1.079 NAA+NAAG                                            
 1.81E-09  28%   3.650 Ins+Glyc                                            
 4.96E-10  74%   1.000 Cr+PCr                                              
 5.97E-10 130%   1.204 Glu+Gln                                             
   6 lines in following misc. output table
  FWHM = 0.101 ppm    S/N =   3                                            
  Data shift = 0.447 ppm                                                   
  Ph: 103 deg      10.3 deg/ppm                                            
  alphaB,S = 5.4E+01,   6.2E+01                                            
    9 spline knots.   Ns = 5(1)                                            
  (10) 8 infls.   (11) 5 extrs.                                            
  363 points on ppm-axis = NY
      4.250000     4.238821     4.227641     4.216462     4.205282     4.194103     4.182923     4.171744     4.160564     4.149385
      4.138206     4.127026     4.115847     4.104667     4.093488     4.082308     4.071129     4.059949     4.048770     4.037591
      4.026411     4.015232     4.004052     3.992873     3.981693     3.970514     3.959334     3.948155     3.936975     3.925796
      3.914617     3.903437     3.892258     3.881078     3.869899     3.858719     3.847540     3.836360     3.825181     3.814002
      3.802822     3.791643     3.780463     3.769284     3.758104     3.746925     3.735745     3.724566     3.713387     3.702207
      3.691028     3.679848     3.668669     3.657489     3.646310     3.635130     3.623951     3.612772     3.601592     3.590413
      3.579233     3.568054     3.556874     3.545695     3.534515     3.523336     3.512156     3.500977     3.489798     3.478618
      3.467439     3.456259     3.445080     3.433900     3.422721     3.411541     3.400362     3.389183     3.378003     3.366824
      3.355644     3.344465     3.333285     3.322106     3.310926     3.299747     3.288568     3.277388     3.266209     3.255029
      3.243850     3.232670     3.221491     3.210311     3.199132     3.187953     3.176773     3.165594     3.154414     3.143235
      3.132055     3.120876     3.109696     3.098517     3.087337     3.076158     3.064979     3.053799     3.042620     3.031440
      3.020261     3.009081     2.997902     2.986722     2.975543     2.964364     2.953184     2.942005     2.930825     2.919646
      2.908466     2.897287     2.886107     2.874928     2.863749     2.852569     2.841390     2.830210     2.819031     2.807851
      2.796672     2.785492     2.774313     2.763134     2.751954     2.740775     2.729595     2.718416     2.707236     2.696057
      2.684877     2.673698     2.662519     2.651339     2.640160     2.628980     2.617801     2.606621     2.595442     2.584262
      2.573083     2.561903     2.550724     2.539545     2.528365     2.517186     2.506006     2.494827     2.483647     2.472468
      2.461288     2.450109     2.438930     2.427750     2.416571     2.405391     2.394212     2.383032     2.371853     2.360673
      2.349494     2.338315     2.327135     2.315956     2.304776     2.293597     2.282417     2.271238     2.260058     2.248879
      2.237700     2.226520     2.215341     2.204161     2.192982     2.181802     2.170623     2.159443     2.148264     2.137084
      2.125905     2.114726     2.103546     2.092367     2.081187     2.070008     2.058828     2.047649     2.036469     2.025290
      2.014111     2.002931     1.991752     1.980572     1.969393     1.958213     1.947034     1.935854     1.924675     1.913496
      1.902316     1.891137     1.879957     1.868778     1.857598     1.846419     1.835239     1.824060     1.812881     1.801701
      1.790522     1.779342     1.768163     1.756983     1.745804     1.734624     1.723445     1.712265     1.701086     1.689907
      1.678727     1.667548     1.656368     1.645189     1.634009     1.622830     1.611650     1.600471     1.589292     1.578112
      1.566933     1.555753     1.544574     1.533394     1.522215     1.511035     1.499856     1.488677     1.477497     1.466318
      1.455138     1.443959     1.432779     1.421600     1.410420     1.399241     1.388062     1.376882     1.365703     1.354523
      1.343344     1.332164     1.320985     1.309805     1.298626     1.287446     1.276267     1.265088     1.253908     1.242729
      1.231549     1.220370     1.209190     1.198011     1.186831     1.175652     1.164473     1.153293     1.142114     1.130934
      1.119755     1.108575     1.097396     1.086216     1.075037     1.063858     1.052678     1.041499     1.030319     1.019140
      1.007960     0.996781     0.985601     0.974422     0.963243     0.952063     0.940884     0.929704     0.918525     0.907345
      0.896166     0.884986     0.873807     0.862628     0.851448     0.840269     0.829089     0.817910     0.806730     0.795551
      0.784371     0.773192     0.762012     0.750833     0.739654     0.728474     0.717295     0.706115     0.694936     0.683756
      0.672577     0.661397     0.650218     0.639039     0.627859     0.616680     0.605500     0.594321     0.583141     0.571962
      0.560782     0.549603     0.538424     0.527244     0.516065     0.504885     0.493706     0.482526     0.471347     0.460167
      0.448988     0.437809     0.426629     0.415450     0.404270     0.393091     0.381911     0.370732     0.359552     0.348373
      0.337193     0.326014     0.314835     0.303655     0.292476     0.281296     0.270117     0.258937     0.247758     0.236578
      0.225399     0.214220     0.203040
 NY phased data points follow
   9.42564E-09  1.02657E-08  9.77296E-09  1.07140E-08  1.04345E-08  1.15025E-08  1.11022E-08  1.17456E-08  1.00507E-08  1.10924E-08
   1.00066E-08  1.07451E-08  9.60327E-09  9.77867E-09  9.21858E-09  9.58903E-09  9.62125E-09  1.06568E-08  9.33597E-09  9.44341E-09
   8.74228E-09  9.41974E-09  9.07822E-09  1.09710E-08  1.11886E-08  1.18575E-08  1.06116E-08  1.02533E-08  9.50418E-09  9.22935E-09
   8.77880E-09  8.95972E-09  8.23619E-09  8.05263E-09  7.89881E-09  8.20397E-09  7.86177E-09  8.10174E-09  7.01298E-09  7.30657E-09
   6.42142E-09  6.83412E-09  6.70232E-09  7.13107E-09  6.57872E-09  6.84978E-09  5.82704E-09  5.60606E-09  5.33405E-09  5.76332E-09
   5.40174E-09  6.06520E-09  5.45461E-09  6.44464E-09  6.99776E-09  9.17197E-09  9.07716E-09  9.06878E-09  8.44914E-09  8.08013E-09
   7.11785E-09  7.09325E-09  6.59961E-09  6.28268E-09  5.38083E-09  5.45932E-09  4.72383E-09  4.54521E-09  3.55620E-09  3.97063E-09
   6.12873E-09  8.67747E-09  1.08699E-08  1.22612E-08  1.14887E-08  1.06972E-08  1.08872E-08  1.02744E-08  1.03427E-08  9.73180E-09
   9.55986E-09  9.40871E-09  9.45170E-09  9.13793E-09  8.71427E-09  8.74017E-09  8.26170E-09  8.02425E-09  7.40335E-09  7.71243E-09
   7.16620E-09  6.84761E-09  6.86907E-09  7.08468E-09  7.26158E-09  7.01523E-09  7.22311E-09  6.85570E-09  7.26795E-09  7.31298E-09
   6.27258E-09  6.15196E-09  5.77244E-09  4.95838E-09  5.37509E-09  5.11703E-09  5.44329E-09  5.34054E-09  5.41008E-09  5.06784E-09
   5.58303E-09  5.27564E-09  5.64012E-09  5.47260E-09  5.13038E-09  4.69038E-09  4.19203E-09  3.44371E-09  3.48577E-09  2.90772E-09
   3.20671E-09  3.04886E-09  2.93840E-09  2.26864E-09  2.48590E-09  1.92143E-09  2.50436E-09  2.40600E-09  1.39916E-09  1.10108E-09
   1.33711E-09  1.43704E-09  2.53370E-09  3.03426E-09  3.32571E-09  2.84084E-09  3.11768E-09  3.57844E-09  4.79077E-09  4.81013E-09
   5.21518E-09  4.90468E-09  5.45379E-09  5.20953E-09  5.93772E-09  4.95106E-09  5.71769E-09  5.02071E-09  6.17635E-09  5.24630E-09
   5.81380E-09  5.53366E-09  5.72963E-09  5.72267E-09  6.20526E-09  5.96703E-09  6.04934E-09  5.05592E-09  5.95956E-09  5.40292E-09
   5.12958E-09  5.24951E-09  8.00848E-09  1.20836E-08  1.54316E-08  1.61883E-08  1.68204E-08  1.68722E-08  1.71478E-08  1.76446E-08
   1.76849E-08  1.72439E-08  1.81252E-08  1.77050E-08  1.81000E-08  1.79346E-08  1.81261E-08  1.81221E-08  1.83419E-08  1.74385E-08
   1.69584E-08  1.62206E-08  1.61699E-08  1.41708E-08  1.37234E-08  1.19851E-08  1.01899E-08  7.85797E-09  6.48507E-09  3.18627E-09
   1.38678E-09 -1.53516E-09 -3.21142E-09 -5.32494E-09 -6.92741E-09 -8.78252E-09 -9.36601E-09 -1.00315E-08 -1.00401E-08 -1.00155E-08
  -8.45217E-09 -8.23508E-09 -6.25051E-09 -5.58914E-09 -4.32403E-09 -3.65953E-09 -2.00206E-09 -1.74032E-09 -5.29951E-10 -7.02495E-10
  -2.82097E-10 -8.97245E-10 -5.59427E-10 -8.63386E-10 -5.61389E-10 -8.27692E-10 -9.59634E-12 -5.51204E-10  3.64004E-10  1.85885E-10
  -3.02925E-10 -4.86353E-10 -3.91055E-10 -9.14343E-10  9.83490E-11 -2.81879E-10 -1.20726E-11 -1.42475E-10  3.26920E-10 -5.55904E-10
  -1.73798E-10 -7.31972E-10 -3.44327E-10  2.57923E-11  2.25674E-10 -2.52133E-10  1.45755E-10 -4.79981E-10 -1.26273E-10 -4.74425E-10
   8.55734E-11 -7.79046E-11 -3.69902E-11  5.30149E-11  1.59908E-11 -2.34371E-10 -1.77096E-10 -1.51559E-10  3.44306E-10 -1.31517E-10
   5.96669E-10  1.05589E-10  3.30180E-10 -3.80043E-11  6.59149E-10 -6.94533E-11  5.35739E-10 -5.51543E-10 -2.77517E-10 -5.52630E-10
  -2.15013E-10 -8.78206E-10 -1.50559E-10 -5.28584E-10 -4.79741E-10 -3.50654E-10 -3.07235E-11  9.03796E-11  2.81297E-10 -6.48165E-11
   5.55441E-10 -6.54681E-11  4.97807E-10  4.29612E-12  7.03902E-10  5.99567E-10  4.08751E-10  6.46357E-11  6.21756E-10  2.37297E-10
   2.50774E-10 -7.66346E-11  3.52385E-10  5.10958E-11 -4.98047E-11 -2.58002E-10  7.66727E-11 -3.24786E-10 -1.28809E-10 -2.34263E-10
  -1.29987E-11 -3.60364E-10 -6.33339E-11 -2.70245E-10 -2.92466E-10 -4.24636E-10  2.15173E-10 -7.39328E-10  2.11630E-10 -2.33399E-10
   4.51867E-11 -4.00553E-10 -1.17239E-10 -2.19471E-10  2.35786E-10 -2.87711E-10 -9.42796E-11 -3.05640E-10 -6.56583E-10 -1.18743E-10
   1.78061E-10 -5.39653E-10  5.43095E-11 -3.87388E-10  4.88508E-10 -7.03932E-10  4.69164E-10 -2.68366E-10  1.33394E-10 -2.02322E-10
   7.03025E-11  3.03368E-12 -7.58054E-11 -7.99246E-11 -2.18356E-11 -1.02132E-11  1.93119E-10 -2.89480E-10 -1.10875E-10  1.29128E-10
   1.13789E-10 -2.52448E-10  4.08690E-11 -2.28242E-10  4.47553E-12 -2.14028E-10 -8.10416E-11 -1.39499E-10 -1.94482E-11 -1.77271E-10
   1.05202E-10 -3.11427E-10 -2.31888E-10 -2.76779E-10  3.69595E-10 -5.58896E-10  9.56365E-11 -1.05248E-10  1.58001E-10  8.16817E-11
   1.86258E-10 -4.53453E-11  2.44609E-11 -1.69606E-10 -2.96018E-10 -2.92443E-10  3.79280E-10  2.49861E-10  8.27466E-11  4.72193E-10
  -1.79770E-10 -1.26477E-10  4.71529E-10
 NY points of the fit to the data follow
   1.11800E-08  1.05307E-08  1.01567E-08  1.02184E-08  1.06277E-08  1.08052E-08  1.05539E-08  1.04146E-08  1.04689E-08  1.04852E-08
   1.07142E-08  1.06676E-08  1.04700E-08  1.02233E-08  9.76576E-09  9.31978E-09  9.12337E-09  8.97861E-09  8.57020E-09  8.52762E-09
   9.21914E-09  1.02173E-08  1.09004E-08  1.13196E-08  1.14646E-08  1.13789E-08  1.08216E-08  9.95363E-09  9.18134E-09  8.80405E-09
   8.38164E-09  8.22516E-09  8.15882E-09  8.14008E-09  7.99526E-09  7.85370E-09  7.93080E-09  8.11314E-09  7.95628E-09  7.44022E-09
   6.68591E-09  5.88825E-09  5.37320E-09  5.41325E-09  5.65978E-09  5.73536E-09  5.71667E-09  5.79496E-09  6.28564E-09  6.83499E-09
   7.31688E-09  7.58763E-09  7.58070E-09  7.55539E-09  7.67354E-09  7.74852E-09  8.00426E-09  8.12382E-09  7.96743E-09  7.65802E-09
   7.44550E-09  7.28312E-09  7.19327E-09  7.04660E-09  6.89639E-09  6.88418E-09  6.91406E-09  6.90195E-09  7.03142E-09  7.35427E-09
   7.69228E-09  7.94308E-09  8.26777E-09  8.59552E-09  8.89298E-09  9.29607E-09  9.84165E-09  1.04188E-08  1.05744E-08  1.03402E-08
   9.86414E-09  9.33068E-09  8.83319E-09  8.33197E-09  7.75997E-09  7.01690E-09  6.22247E-09  5.59567E-09  5.25808E-09  5.30212E-09
   5.37034E-09  5.43479E-09  5.46550E-09  5.44564E-09  5.44705E-09  5.47925E-09  5.47142E-09  5.48704E-09  5.56800E-09  5.70250E-09
   5.89495E-09  6.01743E-09  6.11392E-09  6.25517E-09  6.36444E-09  6.40984E-09  6.39154E-09  6.31659E-09  6.18754E-09  6.01207E-09
   5.82323E-09  5.68215E-09  5.58561E-09  5.41976E-09  5.28519E-09  5.25479E-09  5.24506E-09  5.23984E-09  5.23490E-09  5.22891E-09
   5.22119E-09  5.21169E-09  5.20032E-09  5.18711E-09  5.17208E-09  5.15530E-09  5.13680E-09  5.11665E-09  5.09491E-09  5.07163E-09
   5.04685E-09  5.02061E-09  4.99296E-09  4.96393E-09  4.93357E-09  4.90190E-09  4.86894E-09  4.83473E-09  4.79930E-09  4.76267E-09
   4.72486E-09  4.68589E-09  4.64577E-09  4.60455E-09  4.56220E-09  4.51875E-09  4.47424E-09  4.42868E-09  4.38206E-09  4.33445E-09
   4.28588E-09  4.23635E-09  4.18597E-09  4.13483E-09  4.08304E-09  4.03083E-09  3.97854E-09  3.92668E-09  3.87606E-09  3.82815E-09
   3.78533E-09  3.75215E-09  3.73750E-09  3.76095E-09  3.87247E-09  4.23687E-09  5.68517E-09  1.02761E-08  1.49898E-08  1.81261E-08
   1.96252E-08  2.01846E-08  2.05153E-08  2.08743E-08  2.09546E-08  1.99630E-08  1.70596E-08  1.22205E-08  7.36824E-09  5.66588E-09
   4.90414E-09  4.45114E-09  4.13824E-09  3.90153E-09  3.71115E-09  3.55115E-09  3.41222E-09  3.28849E-09  3.17613E-09  3.07248E-09
   2.97567E-09  2.88433E-09  2.79744E-09  2.71423E-09  2.63410E-09  2.55656E-09  2.48126E-09  2.40790E-09  2.33623E-09  2.26605E-09
   2.19721E-09  2.12955E-09  2.06299E-09  1.99742E-09  1.93276E-09  1.86896E-09  1.80594E-09  1.74369E-09  1.68214E-09  1.62126E-09
   1.56103E-09  1.50144E-09  1.44245E-09  1.38406E-09  1.32625E-09  1.26900E-09  1.21233E-09  1.15621E-09  1.10063E-09  1.04561E-09
   9.91150E-10  9.37234E-10  8.83865E-10  8.31041E-10  7.78763E-10  7.27058E-10  6.75899E-10  6.25300E-10  5.75278E-10  5.25827E-10
   4.76952E-10  4.28663E-10  3.80966E-10  3.33860E-10  2.87359E-10  2.41471E-10  1.96195E-10  1.51542E-10  1.07518E-10  6.41383E-11
   2.13970E-11 -2.06895E-11 -6.21146E-11 -1.02872E-10 -1.42954E-10 -1.82353E-10 -2.21061E-10 -2.59069E-10 -2.96371E-10 -3.32959E-10
  -3.68825E-10 -4.03962E-10 -4.38361E-10 -4.72016E-10 -5.04918E-10 -5.37060E-10 -5.68435E-10 -5.99034E-10 -6.28852E-10 -6.57878E-10
  -6.86107E-10 -7.13534E-10 -7.40147E-10 -7.65942E-10 -7.90912E-10 -8.15048E-10 -8.38345E-10 -8.60795E-10 -8.82393E-10 -9.03130E-10
  -9.23002E-10 -9.42000E-10 -9.60121E-10 -9.77355E-10 -9.93697E-10 -1.00914E-09 -1.02368E-09 -1.03732E-09 -1.05003E-09 -1.06183E-09
  -1.07270E-09 -1.08263E-09 -1.09163E-09 -1.09969E-09 -1.10680E-09 -1.11296E-09 -1.11815E-09 -1.12239E-09 -1.12566E-09 -1.12796E-09
  -1.12928E-09 -1.12961E-09 -1.12897E-09 -1.12734E-09 -1.12471E-09 -1.12109E-09 -1.11646E-09 -1.11083E-09 -1.10420E-09 -1.09655E-09
  -1.08788E-09 -1.07821E-09 -1.06750E-09 -1.05578E-09 -1.04303E-09 -1.02925E-09 -1.01444E-09 -9.98591E-10 -9.81708E-10 -9.63788E-10
  -9.44827E-10 -9.24823E-10 -9.03775E-10 -8.81682E-10 -8.58541E-10 -8.34351E-10 -8.09111E-10 -7.82822E-10 -7.55478E-10 -7.27084E-10
  -6.97635E-10 -6.67131E-10 -6.35572E-10 -6.02959E-10 -5.69291E-10 -5.34567E-10 -4.98787E-10 -4.61952E-10 -4.24063E-10 -3.85118E-10
  -3.45121E-10 -3.04071E-10 -2.61968E-10 -2.18814E-10 -1.74611E-10 -1.29358E-10 -8.30578E-11 -3.57117E-11  1.26787E-11  6.21121E-11
   1.12585E-10  1.64098E-10  2.16647E-10  2.70229E-10  3.24843E-10  3.80487E-10  4.37156E-10  4.94849E-10  5.53562E-10  6.13292E-10
   6.74037E-10  7.35792E-10  7.98555E-10  8.62321E-10  9.27086E-10  9.92848E-10  1.05960E-09  1.12734E-09  1.19607E-09  1.26577E-09
   1.33645E-09  1.40810E-09  1.48071E-09
 NY background values follow
     3.893E-09    3.972E-09    4.050E-09    4.126E-09    4.201E-09    4.275E-09    4.347E-09    4.419E-09    4.489E-09    4.558E-09
     4.625E-09    4.692E-09    4.757E-09    4.821E-09    4.884E-09    4.945E-09    5.005E-09    5.064E-09    5.122E-09    5.178E-09
     5.234E-09    5.288E-09    5.340E-09    5.392E-09    5.442E-09    5.491E-09    5.539E-09    5.586E-09    5.631E-09    5.675E-09
     5.718E-09    5.760E-09    5.800E-09    5.839E-09    5.877E-09    5.914E-09    5.949E-09    5.983E-09    6.016E-09    6.048E-09
     6.079E-09    6.108E-09    6.136E-09    6.163E-09    6.189E-09    6.214E-09    6.237E-09    6.259E-09    6.280E-09    6.300E-09
     6.319E-09    6.336E-09    6.352E-09    6.368E-09    6.382E-09    6.394E-09    6.406E-09    6.416E-09    6.426E-09    6.434E-09
     6.441E-09    6.447E-09    6.452E-09    6.455E-09    6.458E-09    6.459E-09    6.460E-09    6.459E-09    6.457E-09    6.454E-09
     6.450E-09    6.445E-09    6.439E-09    6.432E-09    6.424E-09    6.415E-09    6.404E-09    6.393E-09    6.381E-09    6.367E-09
     6.353E-09    6.337E-09    6.321E-09    6.304E-09    6.285E-09    6.266E-09    6.246E-09    6.225E-09    6.202E-09    6.179E-09
     6.155E-09    6.130E-09    6.105E-09    6.078E-09    6.050E-09    6.022E-09    5.992E-09    5.962E-09    5.931E-09    5.899E-09
     5.866E-09    5.832E-09    5.798E-09    5.763E-09    5.726E-09    5.690E-09    5.652E-09    5.613E-09    5.574E-09    5.534E-09
     5.494E-09    5.452E-09    5.410E-09    5.367E-09    5.324E-09    5.279E-09    5.235E-09    5.189E-09    5.143E-09    5.096E-09
     5.048E-09    5.000E-09    4.951E-09    4.902E-09    4.852E-09    4.801E-09    4.750E-09    4.699E-09    4.646E-09    4.594E-09
     4.540E-09    4.486E-09    4.432E-09    4.377E-09    4.322E-09    4.266E-09    4.210E-09    4.153E-09    4.096E-09    4.039E-09
     3.981E-09    3.922E-09    3.864E-09    3.805E-09    3.745E-09    3.685E-09    3.625E-09    3.565E-09    3.504E-09    3.443E-09
     3.381E-09    3.320E-09    3.258E-09    3.195E-09    3.133E-09    3.070E-09    3.007E-09    2.944E-09    2.881E-09    2.817E-09
     2.754E-09    2.690E-09    2.626E-09    2.562E-09    2.498E-09    2.433E-09    2.369E-09    2.304E-09    2.240E-09    2.175E-09
     2.110E-09    2.046E-09    1.981E-09    1.916E-09    1.851E-09    1.787E-09    1.722E-09    1.657E-09    1.593E-09    1.528E-09
     1.463E-09    1.399E-09    1.335E-09    1.270E-09    1.206E-09    1.142E-09    1.079E-09    1.015E-09    9.514E-10    8.881E-10
     8.250E-10    7.621E-10    6.994E-10    6.370E-10    5.748E-10    5.128E-10    4.511E-10    3.897E-10    3.286E-10    2.677E-10
     2.072E-10    1.470E-10    8.716E-11    2.765E-11   -3.151E-11   -9.030E-11   -1.487E-10   -2.067E-10   -2.643E-10   -3.215E-10
    -3.783E-10   -4.346E-10   -4.905E-10   -5.459E-10   -6.009E-10   -6.554E-10   -7.093E-10   -7.628E-10   -8.158E-10   -8.682E-10
    -9.202E-10   -9.715E-10   -1.022E-09   -1.073E-09   -1.122E-09   -1.171E-09   -1.220E-09   -1.268E-09   -1.315E-09   -1.362E-09
    -1.408E-09   -1.453E-09   -1.498E-09   -1.542E-09   -1.585E-09   -1.628E-09   -1.670E-09   -1.711E-09   -1.752E-09   -1.792E-09
    -1.831E-09   -1.869E-09   -1.907E-09   -1.944E-09   -1.980E-09   -2.015E-09   -2.050E-09   -2.083E-09   -2.116E-09   -2.148E-09
    -2.180E-09   -2.210E-09   -2.240E-09   -2.269E-09   -2.297E-09   -2.324E-09   -2.350E-09   -2.376E-09   -2.400E-09   -2.424E-09
    -2.447E-09   -2.469E-09   -2.490E-09   -2.510E-09   -2.529E-09   -2.547E-09   -2.564E-09   -2.581E-09   -2.596E-09   -2.610E-09
    -2.624E-09   -2.636E-09   -2.648E-09   -2.659E-09   -2.668E-09   -2.677E-09   -2.684E-09   -2.691E-09   -2.697E-09   -2.701E-09
    -2.705E-09   -2.708E-09   -2.709E-09   -2.710E-09   -2.709E-09   -2.708E-09   -2.705E-09   -2.702E-09   -2.697E-09   -2.691E-09
    -2.684E-09   -2.677E-09   -2.668E-09   -2.658E-09   -2.647E-09   -2.635E-09   -2.622E-09   -2.607E-09   -2.592E-09   -2.576E-09
    -2.558E-09   -2.540E-09   -2.520E-09   -2.499E-09   -2.478E-09   -2.455E-09   -2.431E-09   -2.406E-09   -2.380E-09   -2.352E-09
    -2.324E-09   -2.294E-09   -2.264E-09   -2.232E-09   -2.199E-09   -2.165E-09   -2.130E-09   -2.094E-09   -2.057E-09   -2.019E-09
    -1.979E-09   -1.939E-09   -1.897E-09   -1.854E-09   -1.810E-09   -1.765E-09   -1.719E-09   -1.672E-09   -1.624E-09   -1.575E-09
    -1.524E-09   -1.473E-09   -1.420E-09   -1.366E-09   -1.311E-09   -1.256E-09   -1.199E-09   -1.141E-09   -1.081E-09   -1.021E-09
    -9.599E-10   -8.975E-10   -8.341E-10   -7.696E-10   -7.040E-10   -6.374E-10   -5.698E-10   -5.011E-10   -4.313E-10   -3.605E-10
    -2.887E-10   -2.158E-10   -1.419E-10   -6.697E-11    8.966E-12    8.592E-11    1.639E-10    2.428E-10    3.228E-10    4.038E-10
     4.857E-10    5.687E-10    6.526E-10
 Ala      Conc. = 2.70E-10
   4.09578E-09  4.15320E-09  4.20909E-09  4.26254E-09  4.31267E-09  4.35873E-09  4.39708E-09  4.44339E-09  4.50522E-09  4.55002E-09
   4.59489E-09  4.66648E-09  4.73201E-09  4.79066E-09  4.85736E-09  4.92508E-09  4.99145E-09  5.05605E-09  5.11887E-09  5.17994E-09
   5.23933E-09  5.29710E-09  5.35331E-09  5.40800E-09  5.46122E-09  5.51300E-09  5.56334E-09  5.61229E-09  5.65989E-09  5.70610E-09
   5.75099E-09  5.79454E-09  5.83677E-09  5.87772E-09  5.91735E-09  5.95570E-09  5.99278E-09  6.02859E-09  6.06314E-09  6.09644E-09
   6.12848E-09  6.15928E-09  6.18885E-09  6.21720E-09  6.24432E-09  6.27024E-09  6.29494E-09  6.31843E-09  6.34074E-09  6.36187E-09
   6.38180E-09  6.40055E-09  6.41814E-09  6.43458E-09  6.44984E-09  6.46395E-09  6.47692E-09  6.48878E-09  6.49948E-09  6.50911E-09
   6.51761E-09  6.52500E-09  6.53131E-09  6.53653E-09  6.54068E-09  6.54377E-09  6.54580E-09  6.54680E-09  6.54677E-09  6.54573E-09
   6.54368E-09  6.54065E-09  6.53666E-09  6.53170E-09  6.52581E-09  6.51902E-09  6.51132E-09  6.50278E-09  6.49337E-09  6.48318E-09
   6.47221E-09  6.46051E-09  6.44812E-09  6.43512E-09  6.42158E-09  6.40752E-09  6.39312E-09  6.37843E-09  6.36365E-09  6.34895E-09
   6.33459E-09  6.32095E-09  6.30847E-09  6.29784E-09  6.29011E-09  6.28694E-09  6.29117E-09  6.30825E-09  6.35058E-09  6.45317E-09
   6.60624E-09  6.67792E-09  6.72239E-09  6.80975E-09  6.86398E-09  6.85473E-09  6.78287E-09  6.65566E-09  6.47586E-09  6.25108E-09
   6.01445E-09  5.82708E-09  5.68570E-09  5.47638E-09  5.29965E-09  5.22835E-09  5.17895E-09  5.13526E-09  5.09302E-09  5.05082E-09
   5.00798E-09  4.96438E-09  4.91989E-09  4.87453E-09  4.82829E-09  4.78119E-09  4.73326E-09  4.68454E-09  4.63506E-09  4.58484E-09
   4.53391E-09  4.48232E-09  4.43006E-09  4.37719E-09  4.32370E-09  4.26963E-09  4.21499E-09  4.15980E-09  4.10410E-09  4.04788E-09
   3.99118E-09  3.93400E-09  3.87636E-09  3.81831E-09  3.75980E-09  3.70087E-09  3.64155E-09  3.58187E-09  3.52179E-09  3.46138E-09
   3.40064E-09  3.33955E-09  3.27816E-09  3.21650E-09  3.15453E-09  3.09230E-09  3.02986E-09  2.96720E-09  2.90435E-09  2.84140E-09
   2.77838E-09  2.71547E-09  2.65291E-09  2.59129E-09  2.53204E-09  2.47993E-09  2.45950E-09  2.53138E-09  2.60503E-09  2.63218E-09
   2.61200E-09  2.56508E-09  2.51200E-09  2.45996E-09  2.39980E-09  2.30824E-09  2.16077E-09  1.95697E-09  1.75370E-09  1.64392E-09
   1.55978E-09  1.48428E-09  1.41283E-09  1.34364E-09  1.27589E-09  1.20914E-09  1.14314E-09  1.07772E-09  1.01279E-09  9.48299E-10
   8.84182E-10  8.20430E-10  7.57011E-10  6.93929E-10  6.31170E-10  5.68723E-10  5.06605E-10  4.44813E-10  3.83346E-10  3.22219E-10
   2.61436E-10  2.00993E-10  1.40908E-10  8.11937E-11  2.18488E-11 -3.71126E-11 -9.56850E-11 -1.53841E-10 -2.11594E-10 -2.68927E-10
  -3.25829E-10 -3.82282E-10 -4.38284E-10 -4.93818E-10 -5.48890E-10 -6.03477E-10 -6.57562E-10 -7.11146E-10 -7.64224E-10 -8.16770E-10
  -8.68778E-10 -9.20241E-10 -9.71149E-10 -1.02150E-09 -1.07128E-09 -1.12045E-09 -1.16905E-09 -1.21704E-09 -1.26440E-09 -1.31115E-09
  -1.35726E-09 -1.40272E-09 -1.44753E-09 -1.49168E-09 -1.53516E-09 -1.57795E-09 -1.62005E-09 -1.66145E-09 -1.70214E-09 -1.74211E-09
  -1.78136E-09 -1.81987E-09 -1.85763E-09 -1.89463E-09 -1.93087E-09 -1.96634E-09 -2.00103E-09 -2.03494E-09 -2.06804E-09 -2.10034E-09
  -2.13182E-09 -2.16249E-09 -2.19232E-09 -2.22132E-09 -2.24947E-09 -2.27677E-09 -2.30321E-09 -2.32879E-09 -2.35348E-09 -2.37730E-09
  -2.40022E-09 -2.42226E-09 -2.44338E-09 -2.46360E-09 -2.48290E-09 -2.50127E-09 -2.51872E-09 -2.53523E-09 -2.55080E-09 -2.56541E-09
  -2.57908E-09 -2.59178E-09 -2.60352E-09 -2.61428E-09 -2.62407E-09 -2.63287E-09 -2.64068E-09 -2.64750E-09 -2.65332E-09 -2.65814E-09
  -2.66194E-09 -2.66473E-09 -2.66651E-09 -2.66726E-09 -2.66698E-09 -2.66567E-09 -2.66332E-09 -2.65993E-09 -2.65550E-09 -2.65002E-09
  -2.64349E-09 -2.63590E-09 -2.62726E-09 -2.61755E-09 -2.60678E-09 -2.59493E-09 -2.58202E-09 -2.56803E-09 -2.55296E-09 -2.53682E-09
  -2.51959E-09 -2.50128E-09 -2.48188E-09 -2.46139E-09 -2.43981E-09 -2.41714E-09 -2.39338E-09 -2.36852E-09 -2.34256E-09 -2.31550E-09
  -2.28735E-09 -2.25809E-09 -2.22773E-09 -2.19627E-09 -2.16370E-09 -2.13004E-09 -2.09527E-09 -2.05939E-09 -2.02241E-09 -1.98433E-09
  -1.94514E-09 -1.90485E-09 -1.86345E-09 -1.82096E-09 -1.77736E-09 -1.73266E-09 -1.68686E-09 -1.63996E-09 -1.59196E-09 -1.54286E-09
  -1.49267E-09 -1.44139E-09 -1.38902E-09 -1.33555E-09 -1.28100E-09 -1.22537E-09 -1.16865E-09 -1.11085E-09 -1.05197E-09 -9.92015E-10
  -9.30989E-10 -8.68893E-10 -8.05730E-10 -7.41505E-10 -6.76219E-10 -6.09877E-10 -5.42483E-10 -4.74039E-10 -4.04551E-10 -3.34022E-10
  -2.62455E-10 -1.89857E-10 -1.16230E-10 -4.15798E-11  3.40891E-11  1.10772E-10  1.88464E-10  2.67160E-10  3.46854E-10  4.27542E-10
   5.09218E-10  5.91876E-10  6.75510E-10
 Asp      Conc. = 1.48E-09
   3.96042E-09  3.85029E-09  3.81564E-09  3.78025E-09  3.76720E-09  3.80962E-09  3.87618E-09  4.03889E-09  4.19668E-09  4.34039E-09
   4.47250E-09  4.59557E-09  4.71112E-09  4.81965E-09  4.92197E-09  5.02010E-09  5.11481E-09  5.20664E-09  5.29605E-09  5.38342E-09
   5.46910E-09  5.55343E-09  5.63672E-09  5.71932E-09  5.80158E-09  5.88386E-09  5.96659E-09  6.05031E-09  6.13563E-09  6.22333E-09
   6.31448E-09  6.41047E-09  6.51336E-09  6.62630E-09  6.75437E-09  6.90572E-09  7.06318E-09  7.19353E-09  7.27215E-09  7.30636E-09
   7.34980E-09  7.45762E-09  7.68885E-09  7.91965E-09  8.21200E-09  8.29822E-09  8.16755E-09  8.03505E-09  8.04664E-09  8.04945E-09
   7.94996E-09  7.71686E-09  7.31589E-09  6.84120E-09  6.51910E-09  6.35232E-09  6.42479E-09  6.41435E-09  6.27859E-09  6.15996E-09
   6.15638E-09  6.15233E-09  6.16358E-09  6.20165E-09  6.18164E-09  6.11711E-09  6.09389E-09  6.09985E-09  6.11316E-09  6.12796E-09
   6.14219E-09  6.15503E-09  6.16615E-09  6.17541E-09  6.18277E-09  6.18828E-09  6.19193E-09  6.19384E-09  6.19399E-09  6.19250E-09
   6.18938E-09  6.18469E-09  6.17848E-09  6.17081E-09  6.16172E-09  6.15122E-09  6.13939E-09  6.12622E-09  6.11177E-09  6.09606E-09
   6.07912E-09  6.06100E-09  6.04169E-09  6.02122E-09  5.99963E-09  5.97693E-09  5.95315E-09  5.92829E-09  5.90238E-09  5.87546E-09
   5.84752E-09  5.81859E-09  5.78868E-09  5.75781E-09  5.72600E-09  5.69326E-09  5.65959E-09  5.62505E-09  5.58963E-09  5.55333E-09
   5.51619E-09  5.47818E-09  5.43937E-09  5.39973E-09  5.35930E-09  5.31808E-09  5.27610E-09  5.23336E-09  5.18987E-09  5.14570E-09
   5.10072E-09  5.05507E-09  5.00872E-09  4.96169E-09  4.91399E-09  4.86564E-09  4.81663E-09  4.76699E-09  4.71673E-09  4.66586E-09
   4.61439E-09  4.56234E-09  4.50970E-09  4.45652E-09  4.40277E-09  4.34849E-09  4.29367E-09  4.23833E-09  4.18250E-09  4.12616E-09
   4.06935E-09  4.01205E-09  3.95429E-09  3.89610E-09  3.83745E-09  3.77835E-09  3.71884E-09  3.65894E-09  3.59861E-09  3.53791E-09
   3.47686E-09  3.41541E-09  3.35364E-09  3.29158E-09  3.22921E-09  3.16658E-09  3.10380E-09  3.04093E-09  2.97811E-09  2.91563E-09
   2.85384E-09  2.79361E-09  2.73647E-09  2.68599E-09  2.65149E-09  2.66541E-09  2.90310E-09  3.58239E-09  4.23241E-09  4.62857E-09
   4.78349E-09  4.80939E-09  4.80867E-09  4.80926E-09  4.75190E-09  4.50847E-09  3.95886E-09  3.13363E-09  2.37926E-09  2.09221E-09
   1.92593E-09  1.80252E-09  1.69947E-09  1.60783E-09  1.52329E-09  1.44353E-09  1.36714E-09  1.29326E-09  1.22131E-09  1.15090E-09
   1.08174E-09  1.01364E-09  9.46441E-10  8.80042E-10  8.14350E-10  7.49294E-10  6.84841E-10  6.20948E-10  5.57579E-10  4.94724E-10
   4.32362E-10  3.70472E-10  3.09054E-10  2.48107E-10  1.87619E-10  1.27592E-10  6.80241E-11  8.93449E-12 -4.96969E-11 -1.07860E-10
  -1.65546E-10 -2.22745E-10 -2.79457E-10 -3.35669E-10 -3.91391E-10 -4.46601E-10 -5.01288E-10 -5.55452E-10 -6.09093E-10 -6.62186E-10
  -7.14725E-10 -7.66706E-10 -8.18121E-10 -8.68965E-10 -9.19232E-10 -9.68889E-10 -1.01795E-09 -1.06641E-09 -1.11424E-09 -1.16144E-09
