 LCModel (Version 6.3-1R) Copyright: S.W. Provencher.          Ref.: Magn. Reson. Med. 30:672-679 (1993).                
 onepulse 24x22_ftSpec_smooth_lcm
 26 lines in following concentration table = NCONC+1
    Conc.  %SD   /Cr    Metabolite                                         
 1.83E-10 174%   0.000 Ala                                                 
 8.73E-10  73%   0.000 Asp                                                 
    0.000 999%   0.000 Cr                                                  
 3.35E-09  14%   0.000 GABA                                                
 2.25E-09  22%   0.000 Glc                                                 
    0.000 999%   0.000 Gln                                                 
    0.000 999%   0.000 Glu                                                 
    0.000 999%   0.000 Glyc                                                
 1.60E-10  55%   0.000 GPC                                                 
 1.38E-10 236%   0.000 GSH                                                 
 3.19E-10 115%   0.000 Ins                                                 
    0.000 999%   0.000 Lac                                                 
    0.000 999%   0.000 NAAG                                                
 1.21E-09  20%   0.000 NAA                                                 
    0.000 999%   0.000 PCh                                                 
    0.000 999%   0.000 PCr                                                 
    0.000 999%   0.000 PE                                                  
    0.000 999%   0.000 Scyllo                                              
    0.000 999%   0.000 Ser                                                 
    0.000 999%   0.000 Tau                                                 
 1.60E-10  55%   0.000 GPC+PCh                                             
 1.21E-09  20%   0.000 NAA+NAAG                                            
 3.19E-10 115%   0.000 Ins+Glyc                                            
    0.000 999%   0.000 Cr+PCr                                              
    0.000 999%   0.000 Glu+Gln                                             
   6 lines in following misc. output table
  FWHM = 0.078 ppm    S/N =   3                                            
  Data shift = 0.335 ppm                                                   
  Ph:  54 deg      24.1 deg/ppm                                            
  alphaB,S = 1.9E-01,   7.6E+01                                            
   16 spline knots.   Ns = 5(1)                                            
  (11) 2 infls.   ( 5) 1 extrs.                                            
  363 points on ppm-axis = NY
      4.250000     4.238821     4.227641     4.216462     4.205282     4.194103     4.182923     4.171744     4.160564     4.149385
      4.138206     4.127026     4.115847     4.104667     4.093488     4.082308     4.071129     4.059949     4.048770     4.037591
      4.026411     4.015232     4.004052     3.992873     3.981693     3.970514     3.959334     3.948155     3.936975     3.925796
      3.914617     3.903437     3.892258     3.881078     3.869899     3.858719     3.847540     3.836360     3.825181     3.814002
      3.802822     3.791643     3.780463     3.769284     3.758104     3.746925     3.735745     3.724566     3.713387     3.702207
      3.691028     3.679848     3.668669     3.657489     3.646310     3.635130     3.623951     3.612772     3.601592     3.590413
      3.579233     3.568054     3.556874     3.545695     3.534515     3.523336     3.512156     3.500977     3.489798     3.478618
      3.467439     3.456259     3.445080     3.433900     3.422721     3.411541     3.400362     3.389183     3.378003     3.366824
      3.355644     3.344465     3.333285     3.322106     3.310926     3.299747     3.288568     3.277388     3.266209     3.255029
      3.243850     3.232670     3.221491     3.210311     3.199132     3.187953     3.176773     3.165594     3.154414     3.143235
      3.132055     3.120876     3.109696     3.098517     3.087337     3.076158     3.064979     3.053799     3.042620     3.031440
      3.020261     3.009081     2.997902     2.986722     2.975543     2.964364     2.953184     2.942005     2.930825     2.919646
      2.908466     2.897287     2.886107     2.874928     2.863749     2.852569     2.841390     2.830210     2.819031     2.807851
      2.796672     2.785492     2.774313     2.763134     2.751954     2.740775     2.729595     2.718416     2.707236     2.696057
      2.684877     2.673698     2.662519     2.651339     2.640160     2.628980     2.617801     2.606621     2.595442     2.584262
      2.573083     2.561903     2.550724     2.539545     2.528365     2.517186     2.506006     2.494827     2.483647     2.472468
      2.461288     2.450109     2.438930     2.427750     2.416571     2.405391     2.394212     2.383032     2.371853     2.360673
      2.349494     2.338315     2.327135     2.315956     2.304776     2.293597     2.282417     2.271238     2.260058     2.248879
      2.237700     2.226520     2.215341     2.204161     2.192982     2.181802     2.170623     2.159443     2.148264     2.137084
      2.125905     2.114726     2.103546     2.092367     2.081187     2.070008     2.058828     2.047649     2.036469     2.025290
      2.014111     2.002931     1.991752     1.980572     1.969393     1.958213     1.947034     1.935854     1.924675     1.913496
      1.902316     1.891137     1.879957     1.868778     1.857598     1.846419     1.835239     1.824060     1.812881     1.801701
      1.790522     1.779342     1.768163     1.756983     1.745804     1.734624     1.723445     1.712265     1.701086     1.689907
      1.678727     1.667548     1.656368     1.645189     1.634009     1.622830     1.611650     1.600471     1.589292     1.578112
      1.566933     1.555753     1.544574     1.533394     1.522215     1.511035     1.499856     1.488677     1.477497     1.466318
      1.455138     1.443959     1.432779     1.421600     1.410420     1.399241     1.388062     1.376882     1.365703     1.354523
      1.343344     1.332164     1.320985     1.309805     1.298626     1.287446     1.276267     1.265088     1.253908     1.242729
      1.231549     1.220370     1.209190     1.198011     1.186831     1.175652     1.164473     1.153293     1.142114     1.130934
      1.119755     1.108575     1.097396     1.086216     1.075037     1.063858     1.052678     1.041499     1.030319     1.019140
      1.007960     0.996781     0.985601     0.974422     0.963243     0.952063     0.940884     0.929704     0.918525     0.907345
      0.896166     0.884986     0.873807     0.862628     0.851448     0.840269     0.829089     0.817910     0.806730     0.795551
      0.784371     0.773192     0.762012     0.750833     0.739654     0.728474     0.717295     0.706115     0.694936     0.683756
      0.672577     0.661397     0.650218     0.639039     0.627859     0.616680     0.605500     0.594321     0.583141     0.571962
      0.560782     0.549603     0.538424     0.527244     0.516065     0.504885     0.493706     0.482526     0.471347     0.460167
      0.448988     0.437809     0.426629     0.415450     0.404270     0.393091     0.381911     0.370732     0.359552     0.348373
      0.337193     0.326014     0.314835     0.303655     0.292476     0.281296     0.270117     0.258937     0.247758     0.236578
      0.225399     0.214220     0.203040
 NY phased data points follow
   1.05562E-08  1.22591E-08  1.52446E-08  1.58351E-08  1.64700E-08  1.46973E-08  1.40578E-08  1.28227E-08  1.20618E-08  1.08905E-08
   1.13434E-08  1.00861E-08  1.15134E-08  1.06402E-08  1.15333E-08  1.14460E-08  1.32166E-08  1.22280E-08  1.31327E-08  1.21434E-08
   1.24679E-08  1.17095E-08  1.21023E-08  1.07436E-08  1.13089E-08  1.09136E-08  1.16522E-08  1.22179E-08  1.29339E-08  1.11967E-08
   1.13776E-08  1.05272E-08  1.20978E-08  1.19651E-08  1.48028E-08  1.44158E-08  1.49379E-08  1.29868E-08  1.22268E-08  1.01861E-08
   1.01725E-08  9.61291E-09  9.11481E-09  9.38431E-09  8.84004E-09  7.99653E-09  8.47963E-09  7.33180E-09  7.49605E-09  6.51955E-09
   6.19056E-09  6.53002E-09  7.08094E-09  7.12662E-09  7.61617E-09  6.40834E-09  6.88155E-09  5.78813E-09  5.68628E-09  5.87703E-09
   6.45841E-09  6.52850E-09  7.10505E-09  8.02339E-09  1.12201E-08  1.29280E-08  1.47860E-08  1.37966E-08  1.27507E-08  1.00237E-08
   9.61798E-09  8.53339E-09  7.79959E-09  6.38120E-09  7.07716E-09  5.94289E-09  5.52857E-09  5.46274E-09  6.08505E-09  6.74426E-09
   1.02313E-08  1.32399E-08  1.60237E-08  1.58786E-08  1.53644E-08  1.32794E-08  1.21354E-08  1.12115E-08  1.11906E-08  9.93245E-09
   1.02336E-08  9.39646E-09  9.01086E-09  8.20980E-09  8.31243E-09  7.46279E-09  7.06660E-09  6.21324E-09  6.79811E-09  5.78484E-09
   5.74306E-09  5.91805E-09  5.64098E-09  5.36254E-09  6.21134E-09  5.85175E-09  5.70682E-09  5.47146E-09  5.65189E-09  4.62405E-09
   4.99121E-09  4.00106E-09  3.63555E-09  2.86651E-09  3.92653E-09  4.60164E-09  4.66483E-09  4.26629E-09  4.69172E-09  4.22877E-09
   5.02286E-09  4.62395E-09  4.67973E-09  4.18750E-09  4.32104E-09  3.16977E-09  2.94050E-09  2.53260E-09  2.41739E-09  2.05227E-09
   3.25483E-09  3.07876E-09  3.12918E-09  3.02619E-09  3.29267E-09  3.09619E-09  3.26606E-09  2.62811E-09  2.76746E-09  2.06692E-09
   3.00504E-09  4.06719E-09  4.58034E-09  4.53951E-09  4.67451E-09  4.44591E-09  4.53371E-09  5.22768E-09  5.05941E-09  5.06731E-09
   5.86248E-09  4.76200E-09  5.38344E-09  5.53443E-09  5.14547E-09  5.03434E-09  5.27815E-09  5.32751E-09  5.57603E-09  5.54613E-09
   5.89086E-09  5.80101E-09  6.59039E-09  6.48484E-09  6.52844E-09  6.43971E-09  6.90264E-09  6.75073E-09  8.17403E-09  9.70029E-09
   1.16529E-08  1.46484E-08  1.72161E-08  1.92050E-08  1.84164E-08  1.54119E-08  1.23394E-08  1.05245E-08  8.89486E-09  7.86212E-09
   6.84455E-09  5.84261E-09  5.54243E-09  4.36434E-09  3.72860E-09  2.72775E-09  2.48094E-09  1.14997E-09  8.52525E-10 -4.93046E-10
  -9.94741E-10 -2.45599E-09 -3.27952E-09 -4.76113E-09 -5.33367E-09 -7.01465E-09 -8.58379E-09 -9.87697E-09 -1.19690E-08 -1.32039E-08
  -1.46474E-08 -1.60291E-08 -1.73233E-08 -1.80345E-08 -1.86405E-08 -1.86365E-08 -1.92597E-08 -1.82481E-08 -1.72474E-08 -1.57431E-08
  -1.46116E-08 -1.23423E-08 -1.05830E-08 -8.77673E-09 -6.48252E-09 -4.43612E-09 -2.85183E-09 -1.90028E-09 -3.14515E-10  4.99317E-10
   7.37622E-10  9.80789E-10  2.40365E-10 -1.28645E-10  4.49694E-10 -1.14623E-09 -9.83275E-10 -1.25310E-09 -9.51494E-10 -2.14205E-10
  -2.34077E-11 -1.28988E-10 -6.11394E-10  2.54249E-10 -3.74334E-10 -1.65087E-09 -6.58150E-10 -8.53587E-10 -9.07458E-10 -7.59525E-10
  -1.26595E-10 -3.39364E-10  2.28004E-10 -1.47709E-10 -6.13600E-10 -1.69059E-10 -5.00661E-10 -9.25934E-10 -6.02616E-10 -6.59350E-10
  -4.48424E-10 -5.01682E-10 -1.23915E-10 -1.57098E-10 -2.07710E-10  2.01601E-10  2.63741E-10  2.37505E-10  5.43188E-10 -2.48310E-10
   2.17560E-10 -8.54742E-10 -5.38146E-10 -1.09746E-09 -8.93321E-10 -1.21838E-09 -3.78710E-10 -6.04050E-10 -4.15267E-10  7.91231E-11
   6.45131E-10  2.71563E-10  3.86271E-10  6.45426E-10  9.99746E-10  3.65475E-10  9.06267E-10  6.45604E-10  2.54744E-10  1.55894E-10
   2.96956E-10 -3.38429E-10 -3.56605E-10 -2.10494E-10 -1.28642E-10 -4.23783E-11  6.04429E-11 -8.45071E-10 -1.86409E-10 -4.33699E-10
   1.71696E-10 -1.18661E-10  4.34458E-11 -9.76830E-11 -1.00070E-11 -1.53594E-10  2.79515E-10  2.68441E-10 -3.77508E-10 -2.70154E-11
  -2.78659E-10 -6.87747E-10  1.74440E-12 -2.19117E-10  1.36307E-10  2.07263E-10  2.07748E-11 -1.45870E-10  4.42601E-10 -5.12908E-10
  -2.92476E-11  6.98707E-11  2.05405E-10  2.15510E-10  3.50268E-10 -7.09504E-11  4.66452E-10  2.51410E-10  3.78269E-10  2.80007E-10
   4.16631E-10  7.93346E-11  2.06706E-10  1.92719E-10  5.27539E-10 -5.15695E-11  5.95384E-10  5.83556E-10  4.33674E-10 -3.24795E-10
   8.84185E-10  6.43525E-10  3.58585E-10  4.70191E-10  9.55362E-10  1.14993E-09  8.04430E-10  1.02831E-10  5.88483E-10  3.85305E-10
   6.19470E-10  6.18867E-10  1.03658E-09  1.08594E-09  8.13484E-10  1.13209E-09  6.87338E-10  5.22387E-10  8.09245E-10  6.56153E-10
   1.47365E-09  6.81943E-10  1.50634E-09  8.50749E-10  9.78756E-10  1.01125E-09  1.18831E-09  5.24224E-10  1.53492E-09  9.43980E-10
   1.50835E-09  1.15970E-09  1.14331E-09
 NY points of the fit to the data follow
   1.29048E-08  1.33755E-08  1.37518E-08  1.40176E-08  1.40276E-08  1.37348E-08  1.31289E-08  1.23731E-08  1.16876E-08  1.10877E-08
   1.08574E-08  1.08507E-08  1.09465E-08  1.11630E-08  1.15056E-08  1.19804E-08  1.25522E-08  1.31312E-08  1.35235E-08  1.36812E-08
   1.36576E-08  1.32884E-08  1.25586E-08  1.17928E-08  1.10861E-08  1.05668E-08  1.04943E-08  1.09203E-08  1.15316E-08  1.21460E-08
   1.23961E-08  1.24209E-08  1.25598E-08  1.25526E-08  1.24663E-08  1.28025E-08  1.31604E-08  1.31855E-08  1.28121E-08  1.21379E-08
   1.13208E-08  1.04306E-08  9.16807E-09  8.11393E-09  7.63143E-09  7.12966E-09  6.67909E-09  6.58493E-09  6.69633E-09  6.86836E-09
   7.03498E-09  7.11736E-09  7.11839E-09  7.03849E-09  6.93976E-09  6.90708E-09  6.95309E-09  7.04858E-09  7.05432E-09  7.01565E-09
   7.13015E-09  7.53893E-09  8.15145E-09  8.83861E-09  9.83851E-09  1.08272E-08  1.15109E-08  1.19992E-08  1.22815E-08  1.22069E-08
   1.17360E-08  1.08516E-08  9.76614E-09  8.79783E-09  7.77904E-09  6.84366E-09  6.73510E-09  7.43972E-09  8.38702E-09  9.68637E-09
   1.11541E-08  1.25207E-08  1.37133E-08  1.44666E-08  1.44474E-08  1.37302E-08  1.24753E-08  1.08514E-08  9.42639E-09  9.06259E-09
   8.97207E-09  8.90723E-09  8.63887E-09  8.09340E-09  7.66541E-09  7.26796E-09  6.65203E-09  6.17204E-09  5.88000E-09  5.60439E-09
   5.43758E-09  5.35960E-09  5.33668E-09  5.37905E-09  5.44483E-09  5.50046E-09  5.52567E-09  5.50793E-09  5.43945E-09  5.31867E-09
   5.15981E-09  5.00478E-09  4.88759E-09  4.73853E-09  4.60226E-09  4.54201E-09  4.50517E-09  4.47743E-09  4.45392E-09  4.43247E-09
   4.41194E-09  4.39162E-09  4.37101E-09  4.34974E-09  4.32757E-09  4.30428E-09  4.27970E-09  4.25368E-09  4.22612E-09  4.19689E-09
   4.16587E-09  4.13299E-09  4.09815E-09  4.06126E-09  4.02226E-09  3.98105E-09  3.93757E-09  3.89176E-09  3.84354E-09  3.79286E-09
   3.73965E-09  3.68386E-09  3.62542E-09  3.56427E-09  3.50037E-09  3.43367E-09  3.36414E-09  3.29176E-09  3.21649E-09  3.13834E-09
   3.05734E-09  2.97352E-09  2.88698E-09  2.79785E-09  2.70633E-09  2.61271E-09  2.51744E-09  2.42116E-09  2.32486E-09  2.23002E-09
   2.13904E-09  2.05590E-09  1.98776E-09  1.94856E-09  1.97021E-09  2.14581E-09  2.88756E-09  4.88581E-09  7.67705E-09  1.07367E-08
   1.38293E-08  1.66548E-08  1.87180E-08  1.94603E-08  1.85031E-08  1.57890E-08  1.16051E-08  6.68797E-09  2.56666E-09  6.76997E-10
  -1.09397E-10 -5.90220E-10 -9.47757E-10 -1.24191E-09 -1.49822E-09 -1.72939E-09 -1.94232E-09 -2.14099E-09 -2.32776E-09 -2.50410E-09
  -2.67084E-09 -2.82848E-09 -2.97723E-09 -3.11712E-09 -3.24812E-09 -3.37005E-09 -3.48281E-09 -3.58667E-09 -3.68191E-09 -3.76880E-09
  -3.84759E-09 -3.91850E-09 -3.98175E-09 -4.03755E-09 -4.08609E-09 -4.12755E-09 -4.16212E-09 -4.18997E-09 -4.21128E-09 -4.22621E-09
  -4.23493E-09 -4.23760E-09 -4.23439E-09 -4.22545E-09 -4.21094E-09 -4.19102E-09 -4.16585E-09 -4.13557E-09 -4.10034E-09 -4.06031E-09
  -4.01564E-09 -3.96648E-09 -3.91297E-09 -3.85527E-09 -3.79356E-09 -3.72808E-09 -3.65905E-09 -3.58674E-09 -3.51137E-09 -3.43320E-09
  -3.35246E-09 -3.26939E-09 -3.18425E-09 -3.09726E-09 -3.00866E-09 -2.91871E-09 -2.82764E-09 -2.73569E-09 -2.64308E-09 -2.55009E-09
  -2.45693E-09 -2.36385E-09 -2.27109E-09 -2.17889E-09 -2.08747E-09 -1.99709E-09 -1.90798E-09 -1.82038E-09 -1.73454E-09 -1.65068E-09
  -1.56903E-09 -1.48987E-09 -1.41327E-09 -1.33920E-09 -1.26762E-09 -1.19847E-09 -1.13169E-09 -1.06723E-09 -1.00504E-09 -9.45058E-10
  -8.87246E-10 -8.31533E-10 -7.77881E-10 -7.26224E-10 -6.76520E-10 -6.28710E-10 -5.82724E-10 -5.38544E-10 -4.96099E-10 -4.55326E-10
  -4.16175E-10 -3.78608E-10 -3.42551E-10 -3.07960E-10 -2.74794E-10 -2.42969E-10 -2.12466E-10 -1.83211E-10 -1.55160E-10 -1.28249E-10
  -1.02440E-10 -7.76912E-11 -5.39595E-11 -3.12018E-11 -9.38566E-12  1.15389E-11  3.16051E-11  5.08606E-11  6.93436E-11  8.70909E-11
   1.04148E-10  1.20554E-10  1.36351E-10  1.51579E-10  1.66276E-10  1.80487E-10  1.94249E-10  2.07605E-10  2.20589E-10  2.33257E-10
   2.45631E-10  2.57764E-10  2.69694E-10  2.81453E-10  2.93092E-10  3.04648E-10  3.16158E-10  3.27669E-10  3.39190E-10  3.50731E-10
   3.62295E-10  3.73888E-10  3.85515E-10  3.97184E-10  4.08897E-10  4.20661E-10  4.32481E-10  4.44363E-10  4.56310E-10  4.68331E-10
   4.80427E-10  4.92607E-10  5.04875E-10  5.17234E-10  5.29694E-10  5.42255E-10  5.54926E-10  5.67711E-10  5.80616E-10  5.93642E-10
   6.06802E-10  6.20095E-10  6.33529E-10  6.47108E-10  6.60837E-10  6.74723E-10  6.88758E-10  7.02936E-10  7.17249E-10  7.31690E-10
   7.46252E-10  7.60928E-10  7.75709E-10  7.90589E-10  8.05558E-10  8.20613E-10  8.35742E-10  8.50940E-10  8.66199E-10  8.81512E-10
   8.96873E-10  9.12270E-10  9.27701E-10  9.43155E-10  9.58626E-10  9.74107E-10  9.89589E-10  1.00507E-09  1.02053E-09  1.03598E-09
   1.05140E-09  1.06678E-09  1.08212E-09
 NY background values follow
     2.926E-09    2.923E-09    2.919E-09    2.916E-09    2.912E-09    2.909E-09    2.905E-09    2.902E-09    2.899E-09    2.896E-09
     2.893E-09    2.889E-09    2.887E-09    2.884E-09    2.881E-09    2.878E-09    2.876E-09    2.873E-09    2.871E-09    2.869E-09
     2.867E-09    2.865E-09    2.863E-09    2.862E-09    2.860E-09    2.859E-09    2.858E-09    2.857E-09    2.857E-09    2.856E-09
     2.856E-09    2.856E-09    2.857E-09    2.857E-09    2.858E-09    2.860E-09    2.861E-09    2.863E-09    2.865E-09    2.867E-09
     2.870E-09    2.873E-09    2.877E-09    2.880E-09    2.885E-09    2.889E-09    2.894E-09    2.900E-09    2.905E-09    2.912E-09
     2.918E-09    2.925E-09    2.933E-09    2.941E-09    2.950E-09    2.959E-09    2.969E-09    2.979E-09    2.989E-09    3.000E-09
     3.012E-09    3.024E-09    3.036E-09    3.049E-09    3.062E-09    3.075E-09    3.089E-09    3.103E-09    3.117E-09    3.131E-09
     3.146E-09    3.161E-09    3.176E-09    3.191E-09    3.206E-09    3.221E-09    3.236E-09    3.252E-09    3.267E-09    3.283E-09
     3.298E-09    3.313E-09    3.328E-09    3.344E-09    3.358E-09    3.373E-09    3.388E-09    3.402E-09    3.416E-09    3.430E-09
     3.444E-09    3.457E-09    3.470E-09    3.482E-09    3.494E-09    3.506E-09    3.517E-09    3.527E-09    3.537E-09    3.547E-09
     3.555E-09    3.563E-09    3.571E-09    3.577E-09    3.583E-09    3.588E-09    3.592E-09    3.596E-09    3.598E-09    3.600E-09
     3.600E-09    3.600E-09    3.599E-09    3.596E-09    3.593E-09    3.588E-09    3.582E-09    3.575E-09    3.566E-09    3.556E-09
     3.544E-09    3.531E-09    3.516E-09    3.500E-09    3.482E-09    3.462E-09    3.440E-09    3.416E-09    3.391E-09    3.363E-09
     3.333E-09    3.301E-09    3.267E-09    3.231E-09    3.192E-09    3.151E-09    3.107E-09    3.061E-09    3.012E-09    2.961E-09
     2.907E-09    2.850E-09    2.790E-09    2.727E-09    2.662E-09    2.593E-09    2.521E-09    2.446E-09    2.368E-09    2.286E-09
     2.201E-09    2.113E-09    2.021E-09    1.925E-09    1.825E-09    1.722E-09    1.615E-09    1.504E-09    1.389E-09    1.270E-09
     1.147E-09    1.020E-09    8.885E-10    7.526E-10    6.123E-10    4.675E-10    3.182E-10    1.643E-10    5.686E-12   -1.571E-10
    -3.238E-10   -4.938E-10   -6.667E-10   -8.420E-10   -1.019E-09   -1.198E-09   -1.378E-09   -1.558E-09   -1.739E-09   -1.919E-09
    -2.099E-09   -2.277E-09   -2.453E-09   -2.628E-09   -2.799E-09   -2.968E-09   -3.133E-09   -3.294E-09   -3.451E-09   -3.603E-09
    -3.749E-09   -3.889E-09   -4.024E-09   -4.151E-09   -4.271E-09   -4.384E-09   -4.488E-09   -4.585E-09   -4.674E-09   -4.755E-09
    -4.829E-09   -4.895E-09   -4.954E-09   -5.006E-09   -5.052E-09   -5.090E-09   -5.122E-09   -5.147E-09   -5.166E-09   -5.179E-09
    -5.186E-09   -5.186E-09   -5.181E-09   -5.171E-09   -5.155E-09   -5.134E-09   -5.107E-09   -5.076E-09   -5.040E-09   -4.998E-09
    -4.953E-09   -4.903E-09   -4.848E-09   -4.790E-09   -4.727E-09   -4.661E-09   -4.592E-09   -4.519E-09   -4.443E-09   -4.364E-09
    -4.283E-09   -4.199E-09   -4.113E-09   -4.026E-09   -3.937E-09   -3.847E-09   -3.755E-09   -3.663E-09   -3.570E-09   -3.476E-09
    -3.383E-09   -3.289E-09   -3.196E-09   -3.104E-09   -3.012E-09   -2.921E-09   -2.832E-09   -2.744E-09   -2.658E-09   -2.574E-09
    -2.492E-09   -2.412E-09   -2.335E-09   -2.261E-09   -2.189E-09   -2.120E-09   -2.053E-09   -1.988E-09   -1.926E-09   -1.865E-09
    -1.807E-09   -1.751E-09   -1.697E-09   -1.645E-09   -1.595E-09   -1.547E-09   -1.501E-09   -1.457E-09   -1.414E-09   -1.373E-09
    -1.333E-09   -1.296E-09   -1.259E-09   -1.224E-09   -1.191E-09   -1.159E-09   -1.128E-09   -1.098E-09   -1.070E-09   -1.043E-09
    -1.017E-09   -9.918E-10   -9.677E-10   -9.447E-10   -9.225E-10   -9.013E-10   -8.809E-10   -8.613E-10   -8.425E-10   -8.244E-10
    -8.070E-10   -7.903E-10   -7.742E-10   -7.586E-10   -7.435E-10   -7.290E-10   -7.149E-10   -7.011E-10   -6.878E-10   -6.748E-10
    -6.620E-10   -6.495E-10   -6.372E-10   -6.250E-10   -6.130E-10   -6.011E-10   -5.891E-10   -5.772E-10   -5.653E-10   -5.533E-10
    -5.414E-10   -5.293E-10   -5.173E-10   -5.052E-10   -4.930E-10   -4.808E-10   -4.686E-10   -4.562E-10   -4.438E-10   -4.313E-10
    -4.188E-10   -4.061E-10   -3.934E-10   -3.805E-10   -3.676E-10   -3.545E-10   -3.414E-10   -3.281E-10   -3.147E-10   -3.011E-10
    -2.874E-10   -2.736E-10   -2.597E-10   -2.455E-10   -2.313E-10   -2.169E-10   -2.023E-10   -1.875E-10   -1.727E-10   -1.577E-10
    -1.425E-10   -1.273E-10   -1.119E-10   -9.643E-11   -8.087E-11   -6.522E-11   -4.949E-11   -3.368E-11   -1.781E-11   -1.872E-12
     1.411E-11    3.014E-11    4.621E-11    6.231E-11    7.843E-11    9.456E-11    1.107E-10    1.268E-10    1.430E-10    1.591E-10
     1.752E-10    1.913E-10    2.073E-10
 Ala      Conc. = 1.83E-10
   3.07094E-09  3.07970E-09  3.08385E-09  3.08406E-09  3.07998E-09  3.07176E-09  3.05706E-09  3.03538E-09  3.01747E-09  3.00010E-09
   2.97385E-09  2.95379E-09  2.94138E-09  2.92693E-09  2.91504E-09  2.90723E-09  2.90144E-09  2.89684E-09  2.89300E-09  2.88972E-09
   2.88688E-09  2.88439E-09  2.88221E-09  2.88031E-09  2.87866E-09  2.87728E-09  2.87613E-09  2.87522E-09  2.87456E-09  2.87414E-09
   2.87396E-09  2.87404E-09  2.87439E-09  2.87501E-09  2.87591E-09  2.87710E-09  2.87859E-09  2.88040E-09  2.88252E-09  2.88497E-09
   2.88777E-09  2.89091E-09  2.89442E-09  2.89830E-09  2.90257E-09  2.90722E-09  2.91228E-09  2.91777E-09  2.92367E-09  2.93002E-09
   2.93682E-09  2.94407E-09  2.95180E-09  2.96001E-09  2.96874E-09  2.97794E-09  2.98765E-09  2.99790E-09  3.00863E-09  3.01983E-09
   3.03148E-09  3.04356E-09  3.05604E-09  3.06890E-09  3.08211E-09  3.09566E-09  3.10952E-09  3.12366E-09  3.13807E-09  3.15273E-09
   3.16760E-09  3.18268E-09  3.19793E-09  3.21334E-09  3.22888E-09  3.24454E-09  3.26030E-09  3.27613E-09  3.29202E-09  3.30795E-09
   3.32390E-09  3.33986E-09  3.35581E-09  3.37176E-09  3.38766E-09  3.40355E-09  3.41941E-09  3.43522E-09  3.45102E-09  3.46680E-09
   3.48265E-09  3.49860E-09  3.51479E-09  3.53139E-09  3.54872E-09  3.56726E-09  3.58795E-09  3.61259E-09  3.64541E-09  3.69966E-09
   3.79629E-09  3.89668E-09  4.00155E-09  4.13956E-09  4.27930E-09  4.39357E-09  4.46586E-09  4.48636E-09  4.44931E-09  4.35470E-09
   4.21810E-09  4.08211E-09  3.98116E-09  3.84592E-09  3.72137E-09  3.67102E-09  3.64277E-09  3.62249E-09  3.60547E-09  3.58963E-09
   3.57394E-09  3.55776E-09  3.54070E-09  3.52249E-09  3.50293E-09  3.48186E-09  3.45915E-09  3.43469E-09  3.40840E-09  3.38018E-09
   3.34994E-09  3.31761E-09  3.28312E-09  3.24640E-09  3.20738E-09  3.16599E-09  3.12216E-09  3.07585E-09  3.02697E-09  2.97546E-09
   2.92125E-09  2.86429E-09  2.80450E-09  2.74181E-09  2.67614E-09  2.60742E-09  2.53559E-09  2.46056E-09  2.38228E-09  2.30066E-09
   2.21564E-09  2.12715E-09  2.03513E-09  1.93950E-09  1.84020E-09  1.73716E-09  1.63034E-09  1.51965E-09  1.40508E-09  1.28655E-09
   1.16407E-09  1.03765E-09  9.07376E-10  7.73454E-10  6.36517E-10  4.98455E-10  3.67884E-10  2.67113E-10  1.76224E-10  8.54673E-11
  -8.36961E-12 -1.11697E-10 -2.35905E-10 -3.93598E-10 -5.92413E-10 -8.32302E-10 -1.10570E-09 -1.39544E-09 -1.66477E-09 -1.87125E-09
  -2.06139E-09 -2.24535E-09 -2.42544E-09 -2.60221E-09 -2.77566E-09 -2.94560E-09 -3.11170E-09 -3.27360E-09 -3.43087E-09 -3.58311E-09
  -3.72989E-09 -3.87077E-09 -4.00530E-09 -4.13302E-09 -4.25350E-09 -4.36629E-09 -4.47104E-09 -4.56784E-09 -4.65683E-09 -4.73816E-09
  -4.81198E-09 -4.87844E-09 -4.93768E-09 -4.98985E-09 -5.03510E-09 -5.07358E-09 -5.10542E-09 -5.13078E-09 -5.14981E-09 -5.16264E-09
  -5.16944E-09 -5.17033E-09 -5.16547E-09 -5.15502E-09 -5.13909E-09 -5.11787E-09 -5.09147E-09 -5.06005E-09 -5.02376E-09 -4.98275E-09
  -4.93715E-09 -4.88711E-09 -4.83278E-09 -4.77431E-09 -4.71188E-09 -4.64570E-09 -4.57603E-09 -4.50310E-09 -4.42715E-09 -4.34843E-09
  -4.26716E-09 -4.18359E-09 -4.09797E-09 -4.01053E-09 -3.92149E-09 -3.83112E-09 -3.73964E-09 -3.64730E-09 -3.55432E-09 -3.46097E-09
  -3.36746E-09 -3.27404E-09 -3.18095E-09 -3.08843E-09 -2.99670E-09 -2.90601E-09 -2.81660E-09 -2.72871E-09 -2.64258E-09 -2.55844E-09
  -2.47652E-09 -2.39708E-09 -2.32021E-09 -2.24587E-09 -2.17402E-09 -2.10461E-09 -2.03756E-09 -1.97285E-09 -1.91039E-09 -1.85016E-09
  -1.79209E-09 -1.73612E-09 -1.68221E-09 -1.63030E-09 -1.58033E-09 -1.53226E-09 -1.48602E-09 -1.44158E-09 -1.39887E-09 -1.35783E-09
  -1.31842E-09 -1.28058E-09 -1.24426E-09 -1.20939E-09 -1.17595E-09 -1.14385E-09 -1.11307E-09 -1.08354E-09 -1.05520E-09 -1.02800E-09
  -1.00190E-09 -9.76862E-10 -9.52834E-10 -9.29777E-10 -9.07658E-10 -8.86427E-10 -8.66051E-10 -8.46483E-10 -8.27683E-10 -8.09615E-10
  -7.92233E-10 -7.75499E-10 -7.59371E-10 -7.43808E-10 -7.28771E-10 -7.14217E-10 -7.00107E-10 -6.86399E-10 -6.73058E-10 -6.60031E-10
  -6.47292E-10 -6.34790E-10 -6.22487E-10 -6.10349E-10 -5.98328E-10 -5.86385E-10 -5.74484E-10 -5.62578E-10 -5.50656E-10 -5.38711E-10
  -5.26737E-10 -5.14729E-10 -5.02683E-10 -4.90591E-10 -4.78449E-10 -4.66252E-10 -4.53994E-10 -4.41669E-10 -4.29274E-10 -4.16801E-10
  -4.04248E-10 -3.91605E-10 -3.78870E-10 -3.66039E-10 -3.53102E-10 -3.40059E-10 -3.26901E-10 -3.13623E-10 -3.00221E-10 -2.86691E-10
  -2.73024E-10 -2.59218E-10 -2.45265E-10 -2.31163E-10 -2.16906E-10 -2.02486E-10 -1.87912E-10 -1.73190E-10 -1.58327E-10 -1.43331E-10
  -1.28209E-10 -1.12969E-10 -9.76169E-11 -8.21614E-11 -6.66107E-11 -5.09695E-11 -3.52486E-11 -1.94531E-11 -3.59112E-12  1.23304E-11
   2.83044E-11  4.43220E-11  6.03772E-11  7.64621E-11  9.25696E-11  1.08692E-10  1.24822E-10  1.40953E-10  1.57078E-10  1.73187E-10
   1.89275E-10  2.05334E-10  2.21359E-10
 Asp      Conc. = 8.73E-10
   3.94107E-09  3.79785E-09  3.65756E-09  3.50859E-09  3.36837E-09  3.22295E-09  3.11121E-09  3.02980E-09  2.99496E-09  2.97670E-09
   2.96616E-09  2.95995E-09  2.95644E-09  2.95452E-09  2.95309E-09  2.95201E-09  2.95139E-09  2.95125E-09  2.95154E-09  2.95227E-09
   2.95345E-09  2.95509E-09  2.95725E-09  2.95995E-09  2.96327E-09  2.96730E-09  2.97213E-09  2.97790E-09  2.98479E-09  2.99304E-09
   3.00297E-09  3.01503E-09  3.02993E-09  3.04875E-09  3.07339E-09  3.10777E-09  3.16078E-09  3.22350E-09  3.30048E-09  3.37310E-09
   3.43360E-09  3.48132E-09  3.52522E-09  3.58704E-09  3.66865E-09  3.80306E-09  3.94249E-09  4.08137E-09  4.26130E-09  4.43265E-09
   4.55388E-09  4.56797E-09  4.46655E-09  4.26389E-09  4.01534E-09  3.80901E-09  3.66222E-09  3.61052E-09  3.52493E-09  3.41819E-09
   3.37369E-09  3.36060E-09  3.35048E-09  3.35198E-09  3.34770E-09  3.31505E-09  3.26603E-09  3.24418E-09  3.23592E-09  3.23487E-09
   3.23820E-09  3.24446E-09  3.25275E-09  3.26256E-09  3.27348E-09  3.28528E-09  3.29775E-09  3.31073E-09  3.32411E-09  3.33781E-09
   3.35171E-09  3.36579E-09  3.37994E-09  3.39416E-09  3.40836E-09  3.42252E-09  3.43659E-09  3.45051E-09  3.46425E-09  3.47777E-09
   3.49103E-09  3.50398E-09  3.51660E-09  3.52885E-09  3.54068E-09  3.55206E-09  3.56297E-09  3.57336E-09  3.58320E-09  3.59247E-09
   3.60111E-09  3.60910E-09  3.61641E-09  3.62300E-09  3.62885E-09  3.63391E-09  3.63816E-09  3.64156E-09  3.64409E-09  3.64571E-09
   3.64638E-09  3.64608E-09  3.64476E-09  3.64239E-09  3.63891E-09  3.63424E-09  3.62834E-09  3.62113E-09  3.61256E-09  3.60256E-09
   3.59109E-09  3.57806E-09  3.56343E-09  3.54713E-09  3.52910E-09  3.50928E-09  3.48761E-09  3.46403E-09  3.43849E-09  3.41091E-09
   3.38123E-09  3.34941E-09  3.31537E-09  3.27905E-09  3.24040E-09  3.19936E-09  3.15586E-09  3.10986E-09  3.06128E-09  3.01006E-09
   2.95614E-09  2.89947E-09  2.83997E-09  2.77758E-09  2.71223E-09  2.64384E-09  2.57236E-09  2.49771E-09  2.41983E-09  2.33866E-09
   2.25414E-09  2.16621E-09  2.07482E-09  1.97992E-09  1.88147E-09  1.77943E-09  1.67380E-09  1.56457E-09  1.45179E-09  1.33554E-09
   1.21600E-09  1.09350E-09  9.68679E-10  8.42759E-10  7.18544E-10  6.03595E-10  5.27584E-10  6.10158E-10  7.68411E-10  9.46806E-10
   1.12680E-09  1.27931E-09  1.35103E-09  1.27929E-09  1.02201E-09  5.73046E-10 -3.79468E-11 -7.40395E-10 -1.37732E-09 -1.71153E-09
  -1.94737E-09 -2.15413E-09 -2.34769E-09 -2.53324E-09 -2.71281E-09 -2.88720E-09 -3.05666E-09 -3.22117E-09 -3.38051E-09 -3.53442E-09
  -3.68257E-09 -3.82459E-09 -3.96008E-09 -4.08861E-09 -4.20978E-09 -4.32317E-09 -4.42844E-09 -4.52570E-09 -4.61509E-09 -4.69678E-09
  -4.77091E-09 -4.83765E-09 -4.89714E-09 -4.94954E-09 -4.99499E-09 -5.03365E-09 -5.06566E-09 -5.09118E-09 -5.11034E-09 -5.12330E-09
  -5.13021E-09 -5.13122E-09 -5.12646E-09 -5.11609E-09 -5.10025E-09 -5.07910E-09 -5.05278E-09 -5.02143E-09 -4.98520E-09 -4.94424E-09
  -4.89869E-09 -4.84871E-09 -4.79443E-09 -4.73600E-09 -4.67360E-09 -4.60747E-09 -4.53784E-09 -4.46494E-09 -4.38902E-09 -4.31033E-09
