 LCModel (Version 6.3-1R) Copyright: S.W. Provencher.          Ref.: Magn. Reson. Med. 30:672-679 (1993).                
 onepulse 24x25_ftSpec_smooth_lcm
 26 lines in following concentration table = NCONC+1
    Conc.  %SD /Cr+PCr  Metabolite                                         
    0.000 999%   0.000 Ala                                                 
    0.000 999%   0.000 Asp                                                 
 3.40E-10  91%   1.000 Cr                                                  
    0.000 999%   0.000 GABA                                                
 5.66E-10 167%   1.666 Glc                                                 
 1.61E-09  59%   4.749 Gln                                                 
 6.29E-10 130%   1.852 Glu                                                 
    0.000 999%   0.000 Glyc                                                
 1.95E-10  53%   0.574 GPC                                                 
    0.000 999%   0.000 GSH                                                 
 1.32E-09  40%   3.900 Ins                                                 
    0.000 999%   0.000 Lac                                                 
    0.000 999%   0.000 NAAG                                                
 7.62E-10  42%   2.243 NAA                                                 
    0.000 999%   0.000 PCh                                                 
    0.000 999%   0.000 PCr                                                 
    0.000 999%   0.000 PE                                                  
 2.28E-10  86%   0.672 Scyllo                                              
 4.16E-09  28%  12.240 Ser                                                 
    0.000 999%   0.000 Tau                                                 
 1.95E-10  53%   0.574 GPC+PCh                                             
 7.62E-10  42%   2.243 NAA+NAAG                                            
 1.32E-09  40%   3.900 Ins+Glyc                                            
 3.40E-10  91%   1.000 Cr+PCr                                              
 2.24E-09  30%   6.601 Glu+Gln                                             
   6 lines in following misc. output table
  FWHM = 0.078 ppm    S/N =   3                                            
  Data shift = 0.335 ppm                                                   
  Ph: -54 deg     -23.7 deg/ppm                                            
  alphaB,S = 1.7E-01,   4.5E+01                                            
   16 spline knots.   Ns = 5(1)                                            
  ( 7) 2 infls.   ( 5) 1 extrs.                                            
  363 points on ppm-axis = NY
      4.250000     4.238821     4.227641     4.216462     4.205282     4.194103     4.182923     4.171744     4.160564     4.149385
      4.138206     4.127026     4.115847     4.104667     4.093488     4.082308     4.071129     4.059949     4.048770     4.037591
      4.026411     4.015232     4.004052     3.992873     3.981693     3.970514     3.959334     3.948155     3.936975     3.925796
      3.914617     3.903437     3.892258     3.881078     3.869899     3.858719     3.847540     3.836360     3.825181     3.814002
      3.802822     3.791643     3.780463     3.769284     3.758104     3.746925     3.735745     3.724566     3.713387     3.702207
      3.691028     3.679848     3.668669     3.657489     3.646310     3.635130     3.623951     3.612772     3.601592     3.590413
      3.579233     3.568054     3.556874     3.545695     3.534515     3.523336     3.512156     3.500977     3.489798     3.478618
      3.467439     3.456259     3.445080     3.433900     3.422721     3.411541     3.400362     3.389183     3.378003     3.366824
      3.355644     3.344465     3.333285     3.322106     3.310926     3.299747     3.288568     3.277388     3.266209     3.255029
      3.243850     3.232670     3.221491     3.210311     3.199132     3.187953     3.176773     3.165594     3.154414     3.143235
      3.132055     3.120876     3.109696     3.098517     3.087337     3.076158     3.064979     3.053799     3.042620     3.031440
      3.020261     3.009081     2.997902     2.986722     2.975543     2.964364     2.953184     2.942005     2.930825     2.919646
      2.908466     2.897287     2.886107     2.874928     2.863749     2.852569     2.841390     2.830210     2.819031     2.807851
      2.796672     2.785492     2.774313     2.763134     2.751954     2.740775     2.729595     2.718416     2.707236     2.696057
      2.684877     2.673698     2.662519     2.651339     2.640160     2.628980     2.617801     2.606621     2.595442     2.584262
      2.573083     2.561903     2.550724     2.539545     2.528365     2.517186     2.506006     2.494827     2.483647     2.472468
      2.461288     2.450109     2.438930     2.427750     2.416571     2.405391     2.394212     2.383032     2.371853     2.360673
      2.349494     2.338315     2.327135     2.315956     2.304776     2.293597     2.282417     2.271238     2.260058     2.248879
      2.237700     2.226520     2.215341     2.204161     2.192982     2.181802     2.170623     2.159443     2.148264     2.137084
      2.125905     2.114726     2.103546     2.092367     2.081187     2.070008     2.058828     2.047649     2.036469     2.025290
      2.014111     2.002931     1.991752     1.980572     1.969393     1.958213     1.947034     1.935854     1.924675     1.913496
      1.902316     1.891137     1.879957     1.868778     1.857598     1.846419     1.835239     1.824060     1.812881     1.801701
      1.790522     1.779342     1.768163     1.756983     1.745804     1.734624     1.723445     1.712265     1.701086     1.689907
      1.678727     1.667548     1.656368     1.645189     1.634009     1.622830     1.611650     1.600471     1.589292     1.578112
      1.566933     1.555753     1.544574     1.533394     1.522215     1.511035     1.499856     1.488677     1.477497     1.466318
      1.455138     1.443959     1.432779     1.421600     1.410420     1.399241     1.388062     1.376882     1.365703     1.354523
      1.343344     1.332164     1.320985     1.309805     1.298626     1.287446     1.276267     1.265088     1.253908     1.242729
      1.231549     1.220370     1.209190     1.198011     1.186831     1.175652     1.164473     1.153293     1.142114     1.130934
      1.119755     1.108575     1.097396     1.086216     1.075037     1.063858     1.052678     1.041499     1.030319     1.019140
      1.007960     0.996781     0.985601     0.974422     0.963243     0.952063     0.940884     0.929704     0.918525     0.907345
      0.896166     0.884986     0.873807     0.862628     0.851448     0.840269     0.829089     0.817910     0.806730     0.795551
      0.784371     0.773192     0.762012     0.750833     0.739654     0.728474     0.717295     0.706115     0.694936     0.683756
      0.672577     0.661397     0.650218     0.639039     0.627859     0.616680     0.605500     0.594321     0.583141     0.571962
      0.560782     0.549603     0.538424     0.527244     0.516065     0.504885     0.493706     0.482526     0.471347     0.460167
      0.448988     0.437809     0.426629     0.415450     0.404270     0.393091     0.381911     0.370732     0.359552     0.348373
      0.337193     0.326014     0.314835     0.303655     0.292476     0.281296     0.270117     0.258937     0.247758     0.236578
      0.225399     0.214220     0.203040
 NY phased data points follow
   1.61857E-08  1.90584E-08  2.09705E-08  2.09238E-08  1.89871E-08  1.80361E-08  1.60899E-08  1.52769E-08  1.47470E-08  1.40423E-08
   1.37915E-08  1.38338E-08  1.42928E-08  1.42565E-08  1.47993E-08  1.53476E-08  1.56834E-08  1.51797E-08  1.50526E-08  1.50609E-08
   1.44873E-08  1.45571E-08  1.36287E-08  1.29570E-08  1.29853E-08  1.33156E-08  1.40485E-08  1.46521E-08  1.43936E-08  1.32734E-08
   1.26929E-08  1.26426E-08  1.36823E-08  1.50257E-08  1.58854E-08  1.61574E-08  1.49132E-08  1.34660E-08  1.26143E-08  1.13290E-08
   1.05192E-08  1.01600E-08  9.89800E-09  9.94164E-09  9.39546E-09  8.94964E-09  9.06475E-09  8.31510E-09  7.29164E-09  7.54802E-09
   7.25165E-09  7.50387E-09  7.78199E-09  8.07697E-09  8.49083E-09  7.56930E-09  6.95689E-09  6.61671E-09  6.86620E-09  7.11672E-09
   7.42448E-09  8.20827E-09  8.63254E-09  9.94682E-09  1.30776E-08  1.49735E-08  1.48343E-08  1.36323E-08  1.18238E-08  1.01280E-08
   8.65522E-09  8.73703E-09  7.96004E-09  7.04163E-09  6.88071E-09  6.98084E-09  6.43935E-09  6.82982E-09  6.69465E-09  8.04660E-09
   1.21388E-08  1.60289E-08  1.80701E-08  1.79914E-08  1.55735E-08  1.40024E-08  1.26836E-08  1.18126E-08  1.10955E-08  1.05392E-08
   1.04361E-08  9.94479E-09  9.15707E-09  8.70718E-09  8.37563E-09  7.42119E-09  7.34103E-09  6.24761E-09  6.39449E-09  6.52901E-09
   5.46975E-09  5.98209E-09  5.75793E-09  6.38104E-09  6.17546E-09  6.27091E-09  5.80285E-09  5.64813E-09  5.86427E-09  5.21986E-09
   4.24230E-09  4.38676E-09  3.37897E-09  2.90915E-09  3.68783E-09  4.74165E-09  4.48625E-09  4.48719E-09  4.64334E-09  4.70838E-09
   4.66824E-09  4.81715E-09  4.33080E-09  4.27987E-09  3.79426E-09  3.43217E-09  2.35913E-09  2.23540E-09  2.14547E-09  2.60320E-09
   3.00442E-09  3.56664E-09  2.73100E-09  2.76414E-09  2.85782E-09  3.28608E-09  3.10386E-09  2.74294E-09  2.53366E-09  2.30098E-09
   3.18836E-09  4.47677E-09  5.45821E-09  5.50429E-09  4.46197E-09  4.72786E-09  4.90292E-09  6.35879E-09  5.62209E-09  6.06065E-09
   6.08955E-09  5.77675E-09  5.56950E-09  5.96300E-09  5.45759E-09  5.41615E-09  5.36022E-09  5.93011E-09  5.61953E-09  5.52439E-09
   6.28918E-09  5.94047E-09  6.42794E-09  6.49968E-09  6.76749E-09  7.11403E-09  7.29450E-09  7.14902E-09  8.77606E-09  9.26847E-09
   1.06669E-08  1.45759E-08  1.87649E-08  2.15127E-08  2.00426E-08  1.64865E-08  1.36454E-08  1.16472E-08  9.77249E-09  9.26332E-09
   7.42962E-09  6.51388E-09  6.08012E-09  4.91628E-09  3.96121E-09  3.27259E-09  2.11737E-09  9.33692E-10 -4.13769E-11 -1.03529E-09
  -1.77533E-09 -3.36178E-09 -5.16919E-09 -6.73258E-09 -8.40670E-09 -9.61312E-09 -1.16374E-08 -1.31184E-08 -1.49769E-08 -1.63091E-08
  -1.79356E-08 -1.94838E-08 -2.03281E-08 -2.04385E-08 -2.11389E-08 -2.06071E-08 -2.00086E-08 -1.91297E-08 -1.77618E-08 -1.56723E-08
  -1.40499E-08 -1.15818E-08 -9.80033E-09 -7.53864E-09 -5.41187E-09 -3.60146E-09 -2.21577E-09 -1.16672E-09 -7.64073E-10  2.86886E-10
   2.32665E-10 -1.55832E-10 -1.55718E-10 -7.55054E-10 -7.23051E-10 -1.20377E-09 -8.58230E-10 -1.57153E-09 -9.90830E-10 -5.37196E-10
  -4.17265E-10 -6.59674E-10 -4.18408E-10 -1.39558E-10 -6.45055E-10 -1.47900E-09 -1.14498E-09 -9.75884E-10 -1.06829E-09 -9.75167E-10
  -3.77510E-10 -5.88071E-12  6.52138E-11  7.37213E-11 -5.37105E-10 -5.10064E-10 -4.80761E-10 -9.51213E-10 -7.77118E-10 -6.14124E-10
  -9.26473E-10 -4.94630E-10  6.12459E-11  9.06388E-11  3.62860E-10  3.32292E-10  7.77364E-10  4.24309E-10  2.51946E-10  6.03615E-11
   4.61931E-11 -9.46132E-10 -5.47848E-10 -7.38361E-10 -1.08545E-09 -1.37447E-09 -6.03564E-10 -5.72907E-10 -7.92634E-10  5.29046E-12
   5.97790E-10  5.03034E-10  7.21763E-10  5.65008E-10  1.38848E-09  9.66097E-10  1.21314E-09  8.18251E-10  5.54010E-10  7.91094E-10
   3.85260E-10  3.89083E-10  1.79852E-10 -1.65061E-10 -1.79465E-10 -3.19366E-10  4.52201E-10 -5.61655E-10 -1.79519E-10 -1.34685E-10
  -2.96796E-10  1.27523E-11 -7.40864E-11 -4.81206E-10 -2.26195E-10  7.61825E-11 -3.48529E-10 -7.58230E-11 -3.36046E-10  2.48089E-10
  -7.08851E-11 -1.77883E-10 -1.44207E-10 -1.37363E-11 -1.48318E-11  1.48089E-10 -8.30585E-12  2.91115E-11  2.28375E-10 -4.39231E-10
  -2.99890E-11 -2.90196E-10  1.80457E-10 -5.13234E-11  1.69824E-10  4.76929E-11  2.74805E-10  2.13462E-10  3.29289E-10 -3.91324E-12
   2.80634E-10  5.85218E-10  6.63450E-10  4.92008E-10  7.26627E-11  2.17552E-10  4.48505E-10  3.78101E-10  2.51467E-10  3.96374E-10
   5.89863E-11  5.44535E-10  8.09840E-10  4.94654E-10  7.98367E-10  6.89823E-10  8.76100E-10  3.65816E-10  4.96876E-10  1.53627E-10
   6.25358E-10  9.13196E-10  8.59436E-10  4.80722E-10  1.01024E-09  7.07288E-10  7.06848E-10  9.08356E-10  5.63771E-10  8.04851E-10
   1.13502E-09  2.20660E-10  9.49175E-10  1.15926E-09  4.26548E-10  9.30938E-10  8.03776E-10  8.00242E-10  1.00376E-09  1.06593E-09
   1.13190E-09  1.58893E-09  8.17124E-10
 NY points of the fit to the data follow
   1.81749E-08  1.89165E-08  1.87919E-08  1.79821E-08  1.79072E-08  1.79659E-08  1.74693E-08  1.64086E-08  1.52423E-08  1.46422E-08
   1.44413E-08  1.42441E-08  1.43156E-08  1.45876E-08  1.51444E-08  1.54602E-08  1.52853E-08  1.51413E-08  1.51844E-08  1.47449E-08
   1.39427E-08  1.33641E-08  1.31645E-08  1.30878E-08  1.32136E-08  1.33564E-08  1.36028E-08  1.39413E-08  1.41446E-08  1.41147E-08
   1.43299E-08  1.44886E-08  1.45613E-08  1.43155E-08  1.36587E-08  1.27202E-08  1.23025E-08  1.21289E-08  1.20095E-08  1.18314E-08
   1.15643E-08  1.11459E-08  1.04632E-08  9.69821E-09  9.23641E-09  8.91206E-09  8.65268E-09  8.43021E-09  8.23822E-09  8.06982E-09
   7.90751E-09  7.74732E-09  7.60890E-09  7.47076E-09  7.36149E-09  7.41018E-09  7.55466E-09  7.74719E-09  8.15441E-09  8.68886E-09
   9.17239E-09  9.68415E-09  1.03069E-08  1.08940E-08  1.13479E-08  1.15211E-08  1.14158E-08  1.12460E-08  1.08210E-08  1.00282E-08
   9.40176E-09  8.94177E-09  8.39103E-09  7.87130E-09  7.60317E-09  7.57996E-09  7.73366E-09  8.51310E-09  9.64280E-09  1.08389E-08
   1.21128E-08  1.34673E-08  1.46232E-08  1.53748E-08  1.56645E-08  1.53558E-08  1.45028E-08  1.32133E-08  1.13238E-08  1.00697E-08
   9.31945E-09  8.79060E-09  8.38557E-09  8.05202E-09  7.77484E-09  7.53655E-09  7.32412E-09  7.13548E-09  6.96573E-09  6.81128E-09
   6.66929E-09  6.53770E-09  6.41504E-09  6.30016E-09  6.19207E-09  6.09004E-09  5.99331E-09  5.90131E-09  5.81362E-09  5.72985E-09
   5.64969E-09  5.57286E-09  5.49909E-09  5.42815E-09  5.35973E-09  5.29352E-09  5.22931E-09  5.16681E-09  5.10581E-09  5.04607E-09
   4.98741E-09  4.92960E-09  4.87246E-09  4.81580E-09  4.75944E-09  4.70321E-09  4.64692E-09  4.59042E-09  4.53354E-09  4.47611E-09
   4.41798E-09  4.35899E-09  4.29900E-09  4.23783E-09  4.17537E-09  4.11144E-09  4.04591E-09  3.97865E-09  3.90951E-09  3.83835E-09
   3.76502E-09  3.68945E-09  3.61150E-09  3.53108E-09  3.44810E-09  3.36245E-09  3.27406E-09  3.18284E-09  3.08875E-09  2.99171E-09
   2.89172E-09  2.78875E-09  2.68285E-09  2.57407E-09  2.46257E-09  2.34855E-09  2.23239E-09  2.11461E-09  1.99608E-09  1.87811E-09
   1.76285E-09  1.65390E-09  1.55769E-09  1.48671E-09  1.46895E-09  1.58216E-09  2.14631E-09  4.37166E-09  7.46907E-09  1.04536E-08
   1.35401E-08  1.68761E-08  1.98359E-08  2.13734E-08  2.09328E-08  1.88096E-08  1.52951E-08  1.00836E-08  3.96777E-09  6.67870E-10
  -4.95884E-10 -1.14140E-09 -1.59441E-09 -1.95389E-09 -2.25969E-09 -2.53083E-09 -2.77733E-09 -3.00489E-09 -3.21685E-09 -3.41524E-09
  -3.60127E-09 -3.77564E-09 -3.93870E-09 -4.09056E-09 -4.23122E-09 -4.36050E-09 -4.47835E-09 -4.58511E-09 -4.68117E-09 -4.76692E-09
  -4.84268E-09 -4.90878E-09 -4.96551E-09 -5.01316E-09 -5.05203E-09 -5.08236E-09 -5.10443E-09 -5.11850E-09 -5.12482E-09 -5.12364E-09
  -5.11520E-09 -5.09976E-09 -5.07754E-09 -5.04881E-09 -5.01378E-09 -4.97271E-09 -4.92582E-09 -4.87335E-09 -4.81554E-09 -4.75262E-09
  -4.68482E-09 -4.61236E-09 -4.53549E-09 -4.45443E-09 -4.36943E-09 -4.28076E-09 -4.18871E-09 -4.09354E-09 -3.99553E-09 -3.89497E-09
  -3.79213E-09 -3.68727E-09 -3.58067E-09 -3.47260E-09 -3.36331E-09 -3.25309E-09 -3.14218E-09 -3.03086E-09 -2.91936E-09 -2.80797E-09
  -2.69694E-09 -2.58649E-09 -2.47689E-09 -2.36840E-09 -2.26124E-09 -2.15566E-09 -2.05189E-09 -1.95018E-09 -1.85075E-09 -1.75385E-09
  -1.65968E-09 -1.56848E-09 -1.48034E-09 -1.39521E-09 -1.31302E-09 -1.23370E-09 -1.15719E-09 -1.08343E-09 -1.01234E-09 -9.43854E-10
  -8.77917E-10 -8.14449E-10 -7.53397E-10 -6.94684E-10 -6.38255E-10 -5.84040E-10 -5.31960E-10 -4.81981E-10 -4.34021E-10 -3.88010E-10
  -3.43888E-10 -3.01602E-10 -2.61074E-10 -2.22247E-10 -1.85072E-10 -1.49460E-10 -1.15379E-10 -8.27522E-11 -5.15263E-11 -2.16325E-11
   6.97439E-12  3.43435E-11  6.05238E-11  8.55637E-11  1.09505E-10  1.32399E-10  1.54287E-10  1.75218E-10  1.95236E-10  2.14382E-10
   2.32702E-10  2.50238E-10  2.67034E-10  2.83131E-10  2.98568E-10  3.13389E-10  3.27632E-10  3.41336E-10  3.54538E-10  3.67281E-10
   3.79595E-10  3.91523E-10  4.03098E-10  4.14352E-10  4.25324E-10  4.36045E-10  4.46546E-10  4.56862E-10  4.67000E-10  4.76963E-10
   4.86750E-10  4.96362E-10  5.05800E-10  5.15061E-10  5.24148E-10  5.33060E-10  5.41796E-10  5.50357E-10  5.58743E-10  5.66951E-10
   5.74983E-10  5.82838E-10  5.90515E-10  5.98013E-10  6.05332E-10  6.12471E-10  6.19428E-10  6.26202E-10  6.32793E-10  6.39199E-10
   6.45418E-10  6.51450E-10  6.57292E-10  6.62943E-10  6.68402E-10  6.73665E-10  6.78725E-10  6.83574E-10  6.88201E-10  6.92597E-10
   6.96755E-10  7.00664E-10  7.04317E-10  7.07705E-10  7.10821E-10  7.13654E-10  7.16201E-10  7.18450E-10  7.20397E-10  7.22034E-10
   7.23352E-10  7.24347E-10  7.25011E-10  7.25337E-10  7.25321E-10  7.24955E-10  7.24234E-10  7.23152E-10  7.21704E-10  7.19885E-10
   7.17690E-10  7.15115E-10  7.12153E-10
 NY background values follow
     5.140E-09    5.165E-09    5.190E-09    5.213E-09    5.235E-09    5.256E-09    5.276E-09    5.295E-09    5.313E-09    5.330E-09
     5.346E-09    5.361E-09    5.376E-09    5.389E-09    5.401E-09    5.412E-09    5.423E-09    5.432E-09    5.440E-09    5.448E-09
     5.454E-09    5.460E-09    5.464E-09    5.468E-09    5.470E-09    5.472E-09    5.473E-09    5.473E-09    5.472E-09    5.469E-09
     5.467E-09    5.463E-09    5.458E-09    5.452E-09    5.446E-09    5.438E-09    5.430E-09    5.421E-09    5.412E-09    5.401E-09
     5.390E-09    5.378E-09    5.365E-09    5.352E-09    5.337E-09    5.323E-09    5.307E-09    5.291E-09    5.274E-09    5.257E-09
     5.239E-09    5.221E-09    5.202E-09    5.182E-09    5.162E-09    5.142E-09    5.121E-09    5.100E-09    5.078E-09    5.056E-09
     5.033E-09    5.011E-09    4.987E-09    4.964E-09    4.940E-09    4.916E-09    4.891E-09    4.866E-09    4.841E-09    4.815E-09
     4.790E-09    4.764E-09    4.738E-09    4.711E-09    4.684E-09    4.658E-09    4.630E-09    4.603E-09    4.576E-09    4.548E-09
     4.520E-09    4.493E-09    4.465E-09    4.437E-09    4.408E-09    4.380E-09    4.352E-09    4.323E-09    4.295E-09    4.266E-09
     4.238E-09    4.210E-09    4.182E-09    4.153E-09    4.125E-09    4.097E-09    4.070E-09    4.042E-09    4.014E-09    3.987E-09
     3.960E-09    3.934E-09    3.907E-09    3.881E-09    3.855E-09    3.830E-09    3.805E-09    3.780E-09    3.756E-09    3.732E-09
     3.708E-09    3.686E-09    3.663E-09    3.641E-09    3.619E-09    3.598E-09    3.577E-09    3.556E-09    3.534E-09    3.513E-09
     3.491E-09    3.469E-09    3.446E-09    3.422E-09    3.398E-09    3.373E-09    3.347E-09    3.320E-09    3.291E-09    3.262E-09
     3.230E-09    3.198E-09    3.163E-09    3.127E-09    3.088E-09    3.048E-09    3.005E-09    2.960E-09    2.913E-09    2.863E-09
     2.810E-09    2.755E-09    2.696E-09    2.635E-09    2.571E-09    2.503E-09    2.432E-09    2.357E-09    2.280E-09    2.198E-09
     2.113E-09    2.023E-09    1.930E-09    1.833E-09    1.732E-09    1.626E-09    1.517E-09    1.402E-09    1.283E-09    1.160E-09
     1.032E-09    8.987E-10    7.608E-10    6.178E-10    4.698E-10    3.165E-10    1.579E-10   -6.076E-12   -1.754E-10   -3.498E-10
    -5.286E-10   -7.112E-10   -8.971E-10   -1.086E-09   -1.277E-09   -1.469E-09   -1.663E-09   -1.857E-09   -2.051E-09   -2.244E-09
    -2.437E-09   -2.627E-09   -2.816E-09   -3.001E-09   -3.183E-09   -3.361E-09   -3.534E-09   -3.703E-09   -3.865E-09   -4.022E-09
    -4.172E-09   -4.314E-09   -4.449E-09   -4.575E-09   -4.692E-09   -4.800E-09   -4.898E-09   -4.986E-09   -5.065E-09   -5.134E-09
    -5.195E-09   -5.246E-09   -5.289E-09   -5.323E-09   -5.349E-09   -5.367E-09   -5.377E-09   -5.380E-09   -5.375E-09   -5.363E-09
    -5.344E-09   -5.318E-09   -5.286E-09   -5.248E-09   -5.203E-09   -5.153E-09   -5.097E-09   -5.035E-09   -4.969E-09   -4.897E-09
    -4.821E-09   -4.741E-09   -4.656E-09   -4.567E-09   -4.474E-09   -4.377E-09   -4.278E-09   -4.175E-09   -4.070E-09   -3.962E-09
    -3.852E-09   -3.740E-09   -3.627E-09   -3.512E-09   -3.396E-09   -3.279E-09   -3.162E-09   -3.044E-09   -2.926E-09   -2.808E-09
    -2.691E-09   -2.574E-09   -2.459E-09   -2.344E-09   -2.231E-09   -2.120E-09   -2.010E-09   -1.903E-09   -1.797E-09   -1.695E-09
    -1.595E-09   -1.498E-09   -1.405E-09   -1.314E-09   -1.227E-09   -1.142E-09   -1.060E-09   -9.815E-10   -9.053E-10   -8.317E-10
    -7.607E-10   -6.923E-10   -6.263E-10   -5.627E-10   -5.015E-10   -4.424E-10   -3.856E-10   -3.309E-10   -2.783E-10   -2.277E-10
    -1.790E-10   -1.322E-10   -8.713E-11   -4.385E-11   -2.257E-12    3.773E-11    7.615E-11    1.131E-10    1.486E-10    1.827E-10
     2.155E-10    2.470E-10    2.773E-10    3.064E-10    3.344E-10    3.613E-10    3.872E-10    4.121E-10    4.360E-10    4.590E-10
     4.812E-10    5.026E-10    5.231E-10    5.430E-10    5.621E-10    5.807E-10    5.986E-10    6.159E-10    6.327E-10    6.490E-10
     6.649E-10    6.803E-10    6.954E-10    7.101E-10    7.245E-10    7.386E-10    7.525E-10    7.662E-10    7.797E-10    7.929E-10
     8.060E-10    8.188E-10    8.315E-10    8.440E-10    8.562E-10    8.683E-10    8.801E-10    8.918E-10    9.032E-10    9.145E-10
     9.256E-10    9.364E-10    9.471E-10    9.575E-10    9.678E-10    9.778E-10    9.876E-10    9.973E-10    1.007E-09    1.016E-09
     1.025E-09    1.034E-09    1.042E-09    1.051E-09    1.059E-09    1.067E-09    1.075E-09    1.082E-09    1.089E-09    1.096E-09
     1.103E-09    1.110E-09    1.116E-09    1.122E-09    1.127E-09    1.133E-09    1.138E-09    1.142E-09    1.147E-09    1.151E-09
     1.154E-09    1.158E-09    1.161E-09    1.163E-09    1.166E-09    1.168E-09    1.169E-09    1.170E-09    1.171E-09    1.171E-09
     1.171E-09    1.171E-09    1.170E-09
 Cr       Conc. = 3.40E-10
   6.29909E-09  6.40835E-09  6.32500E-09  5.99303E-09  5.78630E-09  5.67309E-09  5.60210E-09  5.55370E-09  5.51875E-09  5.49231E-09
   5.47147E-09  5.45432E-09  5.43959E-09  5.42633E-09  5.41385E-09  5.40160E-09  5.38911E-09  5.37598E-09  5.36183E-09  5.34627E-09
   5.32892E-09  5.30931E-09  5.28697E-09  5.26121E-09  5.23122E-09  5.19592E-09  5.15374E-09  5.10241E-09  5.03853E-09  4.95688E-09
   4.85304E-09  4.80354E-09  4.96136E-09  5.19529E-09  5.47087E-09  5.83765E-09  6.31160E-09  6.81621E-09  7.22788E-09  7.47978E-09
   7.57941E-09  7.48391E-09  7.08023E-09  6.53968E-09  6.26754E-09  6.09851E-09  5.97791E-09  5.88447E-09  5.80789E-09  5.74264E-09
   5.68535E-09  5.63379E-09  5.58658E-09  5.54266E-09  5.50137E-09  5.46202E-09  5.42427E-09  5.38785E-09  5.35247E-09  5.31794E-09
   5.28409E-09  5.25081E-09  5.21797E-09  5.18550E-09  5.15333E-09  5.12140E-09  5.08966E-09  5.05807E-09  5.02660E-09  4.99521E-09
   4.96390E-09  4.93265E-09  4.90142E-09  4.87024E-09  4.83905E-09  4.80790E-09  4.77675E-09  4.74560E-09  4.71445E-09  4.68332E-09
   4.65216E-09  4.62105E-09  4.58990E-09  4.55880E-09  4.52768E-09  4.49661E-09  4.46558E-09  4.43461E-09  4.40370E-09  4.37288E-09
   4.34218E-09  4.31158E-09  4.28112E-09  4.25082E-09  4.22070E-09  4.19075E-09  4.16102E-09  4.13153E-09  4.10227E-09  4.07330E-09
   4.04459E-09  4.01621E-09  3.98814E-09  3.96043E-09  3.93308E-09  3.90610E-09  3.87955E-09  3.85341E-09  3.82773E-09  3.80251E-09
   3.77779E-09  3.75357E-09  3.72986E-09  3.70663E-09  3.68378E-09  3.66118E-09  3.63875E-09  3.61636E-09  3.59391E-09  3.57128E-09
   3.54837E-09  3.52505E-09  3.50122E-09  3.47676E-09  3.45155E-09  3.42549E-09  3.39844E-09  3.37030E-09  3.34095E-09  3.31026E-09
   3.27811E-09  3.24439E-09  3.20898E-09  3.17173E-09  3.13255E-09  3.09130E-09  3.04787E-09  3.00213E-09  2.95397E-09  2.90324E-09
   2.84980E-09  2.79359E-09  2.73449E-09  2.67240E-09  2.60720E-09  2.53880E-09  2.46710E-09  2.39198E-09  2.31335E-09  2.23110E-09
   2.14515E-09  2.05538E-09  1.96170E-09  1.86402E-09  1.76223E-09  1.65626E-09  1.54601E-09  1.43141E-09  1.31241E-09  1.18893E-09
   1.06099E-09  9.28633E-10  7.92064E-10  6.51744E-10  5.09057E-10  3.68609E-10  2.54585E-10  2.02163E-10  1.47046E-10  8.23419E-11
   2.37834E-11 -3.47340E-11 -1.26674E-10 -2.85874E-10 -5.16132E-10 -7.98925E-10 -1.13424E-09 -1.53040E-09 -1.90931E-09 -2.15443E-09
  -2.36839E-09 -2.57091E-09 -2.76683E-09 -2.95759E-09 -3.14355E-09 -3.32465E-09 -3.50062E-09 -3.67107E-09 -3.83555E-09 -3.99359E-09
  -4.14470E-09 -4.28837E-09 -4.42408E-09 -4.55129E-09 -4.66951E-09 -4.77819E-09 -4.87698E-09 -4.96598E-09 -5.04541E-09 -5.11549E-09
  -5.17643E-09 -5.22844E-09 -5.27174E-09 -5.30655E-09 -5.33308E-09 -5.35156E-09 -5.36220E-09 -5.36522E-09 -5.36084E-09 -5.34928E-09
  -5.33077E-09 -5.30552E-09 -5.27376E-09 -5.23571E-09 -5.19159E-09 -5.14164E-09 -5.08606E-09 -5.02509E-09 -4.95895E-09 -4.88785E-09
  -4.81204E-09 -4.73172E-09 -4.64712E-09 -4.55847E-09 -4.46600E-09 -4.36999E-09 -4.27071E-09 -4.16842E-09 -4.06341E-09 -3.95595E-09
  -3.84631E-09 -3.73474E-09 -3.62154E-09 -3.50694E-09 -3.39122E-09 -3.27465E-09 -3.15747E-09 -3.03996E-09 -2.92235E-09 -2.80493E-09
  -2.68793E-09 -2.57159E-09 -2.45617E-09 -2.34193E-09 -2.22907E-09 -2.11787E-09 -2.00854E-09 -1.90133E-09 -1.79647E-09 -1.69419E-09
  -1.59468E-09 -1.49822E-09 -1.40487E-09 -1.31458E-09 -1.22728E-09 -1.14292E-09 -1.06141E-09 -9.82693E-10 -9.06697E-10 -8.33359E-10
  -7.62614E-10 -6.94385E-10 -6.28618E-10 -5.65235E-10 -5.04181E-10 -4.45383E-10 -3.88763E-10 -3.34286E-10 -2.81870E-10 -2.31444E-10
  -1.82946E-10 -1.36324E-10 -9.14992E-11 -4.84150E-11 -7.01990E-12  3.27743E-11  7.10005E-11  1.07737E-10  1.43036E-10  1.76967E-10
   2.09577E-10  2.40915E-10  2.71030E-10  2.99971E-10  3.27781E-10  3.54510E-10  3.80201E-10  4.04903E-10  4.28660E-10  4.51515E-10
   4.73512E-10  4.94696E-10  5.15108E-10  5.34792E-10  5.53786E-10  5.72135E-10  5.89877E-10  6.07052E-10  6.23696E-10  6.39855E-10
   6.55556E-10  6.70843E-10  6.85751E-10  7.00310E-10  7.14561E-10  7.28535E-10  7.42263E-10  7.55780E-10  7.69094E-10  7.82208E-10
   7.95120E-10  8.07832E-10  8.20345E-10  8.32658E-10  8.44772E-10  8.56687E-10  8.68402E-10  8.79919E-10  8.91237E-10  9.02355E-10
   9.13274E-10  9.23992E-10  9.34510E-10  9.44827E-10  9.54942E-10  9.64855E-10  9.74565E-10  9.84070E-10  9.93370E-10  1.00246E-09
   1.01135E-09  1.02003E-09  1.02850E-09  1.03675E-09  1.04479E-09  1.05262E-09  1.06022E-09  1.06760E-09  1.07473E-09  1.08161E-09
   1.08823E-09  1.09458E-09  1.10066E-09  1.10645E-09  1.11195E-09  1.11715E-09  1.12205E-09  1.12662E-09  1.13088E-09  1.13481E-09
   1.13840E-09  1.14165E-09  1.14455E-09  1.14709E-09  1.14928E-09  1.15109E-09  1.15253E-09  1.15360E-09  1.15428E-09  1.15457E-09
   1.15447E-09  1.15397E-09  1.15306E-09
 Glc      Conc. = 5.66E-10
   4.88980E-09  5.11261E-09  5.35230E-09  5.61816E-09  5.85830E-09  6.03992E-09  6.11207E-09  6.13310E-09  6.06111E-09  5.92448E-09
   5.82319E-09  5.74823E-09  5.68571E-09  5.68638E-09  5.78616E-09  5.94392E-09  6.14483E-09  6.41006E-09  6.70917E-09  7.02137E-09
   7.31286E-09  7.51275E-09  7.59145E-09  7.58598E-09  7.45293E-09  7.20723E-09  7.01492E-09  6.89416E-09  6.82881E-09  6.79151E-09
   6.73688E-09  6.67334E-09  6.62649E-09  6.56590E-09  6.47498E-09  6.39872E-09  6.33165E-09  6.25297E-09  6.17753E-09  6.11398E-09
   6.05876E-09  6.00883E-09  5.96299E-09  5.92014E-09  5.87965E-09  5.84099E-09  5.80382E-09  5.76786E-09  5.73282E-09  5.69857E-09
   5.66497E-09  5.63185E-09  5.59916E-09  5.56681E-09  5.53481E-09  5.50295E-09  5.47127E-09  5.43977E-09  5.40838E-09  5.37707E-09
   5.34582E-09  5.31460E-09  5.28341E-09  5.25220E-09  5.22099E-09  5.18976E-09  5.15850E-09  5.12720E-09  5.09586E-09  5.06447E-09
   5.03303E-09  5.00156E-09  4.97003E-09  4.93846E-09  4.90683E-09  4.87518E-09  4.84350E-09  4.81176E-09  4.78000E-09  4.74823E-09
   4.71641E-09  4.68462E-09  4.65277E-09  4.62097E-09  4.58912E-09  4.55733E-09  4.52557E-09  4.49385E-09  4.46221E-09  4.43065E-09
   4.39921E-09  4.36787E-09  4.33668E-09  4.30564E-09  4.27479E-09  4.24411E-09  4.21366E-09  4.18345E-09  4.15348E-09  4.12381E-09
   4.09440E-09  4.06532E-09  4.03657E-09  4.00817E-09  3.98015E-09  3.95250E-09  3.92529E-09  3.89850E-09  3.87216E-09  3.84631E-09
   3.82095E-09  3.79611E-09  3.77177E-09  3.74794E-09  3.72448E-09  3.70128E-09  3.67826E-09  3.65529E-09  3.63226E-09  3.60905E-09
   3.58557E-09  3.56169E-09  3.53731E-09  3.51230E-09  3.48655E-09  3.45995E-09  3.43238E-09  3.40371E-09  3.37384E-09  3.34265E-09
   3.30999E-09  3.27577E-09  3.23985E-09  3.20212E-09  3.16246E-09  3.12073E-09  3.07682E-09  3.03062E-09  2.98199E-09  2.93080E-09
   2.87691E-09  2.82026E-09  2.76072E-09  2.69819E-09  2.63257E-09  2.56375E-09  2.49163E-09  2.41610E-09  2.33708E-09  2.25444E-09
   2.16812E-09  2.07798E-09  1.98396E-09  1.88594E-09  1.78386E-09  1.67761E-09  1.56714E-09  1.45236E-09  1.33326E-09  1.20980E-09
   1.08203E-09  9.50083E-10  8.14335E-10  6.75555E-10  5.35856E-10  4.01943E-10  3.07013E-10  3.28773E-10  3.53263E-10  3.62481E-10
   3.84525E-10  4.13595E-10  3.94713E-10  2.66602E-10  1.73376E-11 -3.20739E-10 -7.43427E-10 -1.27338E-09 -1.80231E-09 -2.09064E-09
  -2.32111E-09 -2.53232E-09 -2.73363E-09 -2.92810E-09 -3.11679E-09 -3.30000E-09 -3.47766E-09 -3.64951E-09 -3.81517E-09 -3.97424E-09
  -4.12624E-09 -4.27071E-09 -4.40714E-09 -4.53502E-09 -4.65383E-09 -4.76308E-09 -4.86239E-09 -4.95188E-09 -5.03178E-09 -5.10230E-09
  -5.16365E-09 -5.21607E-09 -5.25975E-09 -5.29493E-09 -5.32182E-09 -5.34065E-09 -5.35162E-09 -5.35496E-09 -5.35090E-09 -5.33965E-09
  -5.32144E-09 -5.29648E-09 -5.26501E-09 -5.22724E-09 -5.18340E-09 -5.13371E-09 -5.07840E-09 -5.01768E-09 -4.95179E-09 -4.88095E-09
  -4.80538E-09 -4.72530E-09 -4.64094E-09 -4.55253E-09 -4.46029E-09 -4.36451E-09 -4.26545E-09 -4.16339E-09 -4.05860E-09 -3.95135E-09
