 LCModel (Version 6.3-1R) Copyright: S.W. Provencher.          Ref.: Magn. Reson. Med. 30:672-679 (1993).                
 onepulse 24x24_ftSpec_smooth_lcm
 26 lines in following concentration table = NCONC+1
    Conc.  %SD /Cr+PCr  Metabolite                                         
    0.000 999%   0.000 Ala                                                 
    0.000 999%   0.000 Asp                                                 
 4.02E-10  71%   1.000 Cr                                                  
    0.000 999%   0.000 GABA                                                
 2.62E-10 382%   0.651 Glc                                                 
 1.98E-09  51%   4.923 Gln                                                 
 6.89E-10 119%   1.714 Glu                                                 
 1.43E-09  36%   3.553 Glyc                                                
    0.000 999%   0.000 GPC                                                 
    0.000 999%   0.000 GSH                                                 
    0.000 999%   0.000 Ins                                                 
    0.000 999%   0.000 Lac                                                 
    0.000 999%   0.000 NAAG                                                
 6.94E-10  44%   1.727 NAA                                                 
 2.34E-10  42%   0.582 PCh                                                 
    0.000 999%   0.000 PCr                                                 
    0.000 999%   0.000 PE                                                  
 3.04E-10  67%   0.757 Scyllo                                              
 3.14E-09  27%   7.806 Ser                                                 
    0.000 999%   0.000 Tau                                                 
 2.34E-10  42%   0.582 GPC+PCh                                             
 6.94E-10  44%   1.727 NAA+NAAG                                            
 1.43E-09  36%   3.553 Ins+Glyc                                            
 4.02E-10  71%   1.000 Cr+PCr                                              
 2.67E-09  24%   6.637 Glu+Gln                                             
   6 lines in following misc. output table
  FWHM = 0.089 ppm    S/N =   3                                            
  Data shift = 0.335 ppm                                                   
  Ph: -57 deg     -23.9 deg/ppm                                            
  alphaB,S = 1.7E-01,   8.0E+01                                            
   16 spline knots.   Ns = 5(1)                                            
  ( 9) 2 infls.   ( 5) 1 extrs.                                            
  363 points on ppm-axis = NY
      4.250000     4.238821     4.227641     4.216462     4.205282     4.194103     4.182923     4.171744     4.160564     4.149385
      4.138206     4.127026     4.115847     4.104667     4.093488     4.082308     4.071129     4.059949     4.048770     4.037591
      4.026411     4.015232     4.004052     3.992873     3.981693     3.970514     3.959334     3.948155     3.936975     3.925796
      3.914617     3.903437     3.892258     3.881078     3.869899     3.858719     3.847540     3.836360     3.825181     3.814002
      3.802822     3.791643     3.780463     3.769284     3.758104     3.746925     3.735745     3.724566     3.713387     3.702207
      3.691028     3.679848     3.668669     3.657489     3.646310     3.635130     3.623951     3.612772     3.601592     3.590413
      3.579233     3.568054     3.556874     3.545695     3.534515     3.523336     3.512156     3.500977     3.489798     3.478618
      3.467439     3.456259     3.445080     3.433900     3.422721     3.411541     3.400362     3.389183     3.378003     3.366824
      3.355644     3.344465     3.333285     3.322106     3.310926     3.299747     3.288568     3.277388     3.266209     3.255029
      3.243850     3.232670     3.221491     3.210311     3.199132     3.187953     3.176773     3.165594     3.154414     3.143235
      3.132055     3.120876     3.109696     3.098517     3.087337     3.076158     3.064979     3.053799     3.042620     3.031440
      3.020261     3.009081     2.997902     2.986722     2.975543     2.964364     2.953184     2.942005     2.930825     2.919646
      2.908466     2.897287     2.886107     2.874928     2.863749     2.852569     2.841390     2.830210     2.819031     2.807851
      2.796672     2.785492     2.774313     2.763134     2.751954     2.740775     2.729595     2.718416     2.707236     2.696057
      2.684877     2.673698     2.662519     2.651339     2.640160     2.628980     2.617801     2.606621     2.595442     2.584262
      2.573083     2.561903     2.550724     2.539545     2.528365     2.517186     2.506006     2.494827     2.483647     2.472468
      2.461288     2.450109     2.438930     2.427750     2.416571     2.405391     2.394212     2.383032     2.371853     2.360673
      2.349494     2.338315     2.327135     2.315956     2.304776     2.293597     2.282417     2.271238     2.260058     2.248879
      2.237700     2.226520     2.215341     2.204161     2.192982     2.181802     2.170623     2.159443     2.148264     2.137084
      2.125905     2.114726     2.103546     2.092367     2.081187     2.070008     2.058828     2.047649     2.036469     2.025290
      2.014111     2.002931     1.991752     1.980572     1.969393     1.958213     1.947034     1.935854     1.924675     1.913496
      1.902316     1.891137     1.879957     1.868778     1.857598     1.846419     1.835239     1.824060     1.812881     1.801701
      1.790522     1.779342     1.768163     1.756983     1.745804     1.734624     1.723445     1.712265     1.701086     1.689907
      1.678727     1.667548     1.656368     1.645189     1.634009     1.622830     1.611650     1.600471     1.589292     1.578112
      1.566933     1.555753     1.544574     1.533394     1.522215     1.511035     1.499856     1.488677     1.477497     1.466318
      1.455138     1.443959     1.432779     1.421600     1.410420     1.399241     1.388062     1.376882     1.365703     1.354523
      1.343344     1.332164     1.320985     1.309805     1.298626     1.287446     1.276267     1.265088     1.253908     1.242729
      1.231549     1.220370     1.209190     1.198011     1.186831     1.175652     1.164473     1.153293     1.142114     1.130934
      1.119755     1.108575     1.097396     1.086216     1.075037     1.063858     1.052678     1.041499     1.030319     1.019140
      1.007960     0.996781     0.985601     0.974422     0.963243     0.952063     0.940884     0.929704     0.918525     0.907345
      0.896166     0.884986     0.873807     0.862628     0.851448     0.840269     0.829089     0.817910     0.806730     0.795551
      0.784371     0.773192     0.762012     0.750833     0.739654     0.728474     0.717295     0.706115     0.694936     0.683756
      0.672577     0.661397     0.650218     0.639039     0.627859     0.616680     0.605500     0.594321     0.583141     0.571962
      0.560782     0.549603     0.538424     0.527244     0.516065     0.504885     0.493706     0.482526     0.471347     0.460167
      0.448988     0.437809     0.426629     0.415450     0.404270     0.393091     0.381911     0.370732     0.359552     0.348373
      0.337193     0.326014     0.314835     0.303655     0.292476     0.281296     0.270117     0.258937     0.247758     0.236578
      0.225399     0.214220     0.203040
 NY phased data points follow
   1.84049E-08  1.95062E-08  1.84452E-08  1.60969E-08  1.34457E-08  1.20251E-08  1.00147E-08  1.02685E-08  9.24797E-09  9.69242E-09
   9.72240E-09  1.02591E-08  1.04255E-08  1.06726E-08  1.10123E-08  1.14042E-08  1.10517E-08  1.02842E-08  1.01444E-08  9.52557E-09
   9.21274E-09  8.99212E-09  8.15690E-09  8.16011E-09  8.64349E-09  9.06268E-09  9.40627E-09  9.69828E-09  8.63764E-09  7.65496E-09
   7.74046E-09  8.16789E-09  9.38754E-09  9.93162E-09  1.03214E-08  9.13629E-09  7.47459E-09  5.80494E-09  5.10523E-09  3.71754E-09
   4.07198E-09  3.92528E-09  4.10317E-09  4.33533E-09  3.59095E-09  3.58528E-09  3.82608E-09  3.09400E-09  3.22046E-09  3.29121E-09
   3.53785E-09  4.25822E-09  4.52190E-09  4.99182E-09  4.94013E-09  4.01600E-09  4.23609E-09  4.06828E-09  4.90285E-09  5.47324E-09
   6.31127E-09  7.10340E-09  7.89152E-09  9.55349E-09  1.21583E-08  1.20108E-08  1.11053E-08  8.65956E-09  6.69368E-09  4.80424E-09
   4.65253E-09  4.40886E-09  4.17092E-09  3.47865E-09  4.42169E-09  4.07075E-09  4.53108E-09  5.23548E-09  6.09459E-09  8.20391E-09
   1.24306E-08  1.45450E-08  1.50408E-08  1.30844E-08  1.05326E-08  8.39908E-09  7.21947E-09  6.51081E-09  6.03341E-09  5.48766E-09
   5.65348E-09  4.72784E-09  4.23456E-09  3.90220E-09  3.71543E-09  2.90091E-09  3.03403E-09  1.91478E-09  2.97103E-09  2.28301E-09
   2.04668E-09  2.67448E-09  2.59693E-09  2.90462E-09  3.16818E-09  2.95012E-09  2.59978E-09  2.42957E-09  2.85409E-09  1.71410E-09
   1.74102E-09  1.27633E-09  8.29887E-10  6.49359E-10  1.89605E-09  2.70346E-09  2.47821E-09  2.47337E-09  2.72771E-09  2.41875E-09
   2.85197E-09  2.55843E-09  2.35544E-09  2.19529E-09  2.06521E-09  1.33313E-09  7.44538E-10  8.20404E-10  8.86265E-10  1.22354E-09
   1.98961E-09  2.16450E-09  1.75391E-09  1.68628E-09  2.04033E-09  2.29988E-09  2.23266E-09  1.87111E-09  1.98646E-09  1.48935E-09
   2.91399E-09  3.87772E-09  4.76980E-09  4.41151E-09  3.87165E-09  4.05333E-09  4.30431E-09  5.38834E-09  4.80627E-09  5.17794E-09
   5.43262E-09  4.72116E-09  5.07931E-09  5.18951E-09  4.96167E-09  4.75835E-09  4.87094E-09  5.36098E-09  5.29480E-09  5.15729E-09
   5.81376E-09  5.50465E-09  6.29405E-09  6.31188E-09  6.55773E-09  6.77414E-09  7.23404E-09  6.73930E-09  8.60875E-09  9.38556E-09
   1.12402E-08  1.46963E-08  1.81659E-08  2.06811E-08  1.95313E-08  1.60348E-08  1.32833E-08  1.12248E-08  9.56196E-09  8.93441E-09
   7.54927E-09  6.64823E-09  6.51922E-09  5.39381E-09  4.75218E-09  4.07154E-09  3.36802E-09  2.08445E-09  1.68592E-09  6.35087E-10
   3.48170E-10 -1.31040E-09 -2.65901E-09 -4.14324E-09 -5.24679E-09 -6.40073E-09 -8.22635E-09 -9.68514E-09 -1.14476E-08 -1.29144E-08
  -1.46177E-08 -1.65451E-08 -1.76185E-08 -1.82930E-08 -1.93864E-08 -1.94290E-08 -1.95942E-08 -1.93490E-08 -1.84816E-08 -1.69987E-08
  -1.57683E-08 -1.37959E-08 -1.21746E-08 -1.02077E-08 -8.07916E-09 -6.18055E-09 -4.25836E-09 -3.10318E-09 -2.05938E-09 -8.02170E-10
  -2.87019E-10 -3.93738E-10 -2.88340E-10 -1.01381E-09 -4.00975E-10 -1.23983E-09 -1.01228E-09 -1.93755E-09 -1.31586E-09 -8.92606E-10
  -4.38856E-10 -8.31905E-10 -3.86961E-10 -2.27776E-10 -1.82267E-10 -1.61190E-09 -1.08997E-09 -1.09424E-09 -1.04905E-09 -1.26754E-09
  -5.89288E-10 -3.11449E-10 -1.15058E-11  2.07111E-11 -4.19904E-10 -5.35489E-10 -1.30674E-10 -9.89771E-10 -6.67925E-10 -8.22877E-10
  -7.76951E-10 -1.00470E-09 -2.69731E-10 -2.79869E-10  9.54049E-11 -1.35055E-10  6.92262E-10  2.67202E-10  6.42401E-10  1.02709E-10
   6.63616E-10 -7.07953E-10 -2.72321E-10 -7.13243E-10 -8.44120E-10 -1.54294E-09 -8.21722E-10 -8.29185E-10 -1.11655E-09 -7.47444E-10
   1.93954E-10  3.36226E-11  1.77650E-10 -1.54842E-10  1.02085E-09  6.16607E-10  8.09115E-10  9.16355E-10  6.60763E-10  5.66145E-10
   7.11654E-10  5.37466E-10  3.49323E-10 -1.25401E-10 -3.47035E-11 -2.20058E-10  7.21425E-10 -3.74091E-10 -3.44530E-10 -6.48368E-11
  -4.42732E-10 -9.36414E-11  4.92192E-11 -2.22161E-10 -4.73104E-10 -1.11788E-10 -3.70846E-10 -1.87929E-10 -4.17621E-10 -1.69154E-10
   1.35251E-10 -6.05278E-10 -2.62124E-10 -6.02038E-10 -3.23223E-10 -4.63956E-10  4.30109E-11 -6.53514E-10  1.98602E-10 -8.04468E-10
  -4.13201E-10 -8.16681E-10 -3.25530E-10 -6.47933E-10 -2.70356E-10 -5.20598E-10 -4.93825E-10 -3.83379E-10 -2.65761E-10 -5.32732E-10
  -4.39700E-10 -3.76977E-10 -9.29713E-11 -2.05380E-10 -3.06864E-10 -6.95120E-10 -5.10759E-10 -3.99695E-10 -3.77129E-10 -5.54889E-10
  -8.28983E-10 -6.32489E-10 -8.92656E-11 -5.70839E-10 -2.62636E-10 -2.94481E-10  1.63688E-10 -5.28419E-10 -3.80113E-10 -9.17479E-10
  -6.21671E-10 -4.95640E-10 -2.83287E-10 -6.21318E-10 -2.95712E-10 -1.49510E-10 -4.97248E-10 -3.63981E-10 -4.20813E-10 -9.10731E-10
  -1.71453E-11 -8.20476E-10 -6.82138E-10  2.10176E-11 -7.30774E-10 -6.98193E-10 -3.20946E-10 -8.85859E-10 -6.99462E-10 -6.27924E-10
  -6.76744E-10 -6.43300E-11 -3.32439E-10
 NY points of the fit to the data follow
   1.92868E-08  1.77787E-08  1.63077E-08  1.52577E-08  1.46024E-08  1.35671E-08  1.21542E-08  1.07939E-08  9.78079E-09  9.49449E-09
   9.56235E-09  9.80472E-09  1.03212E-08  1.07841E-08  1.12038E-08  1.13593E-08  1.10817E-08  1.04961E-08  9.68517E-09  8.67691E-09
   7.96866E-09  8.08246E-09  8.33479E-09  8.60152E-09  9.00985E-09  9.32663E-09  9.44521E-09  9.30977E-09  9.01421E-09  8.90710E-09
   8.93144E-09  8.83787E-09  8.54078E-09  7.93511E-09  7.09526E-09  6.43133E-09  6.39127E-09  6.40304E-09  6.29229E-09  5.99294E-09
   5.49032E-09  4.81314E-09  4.11192E-09  3.72884E-09  3.61085E-09  3.57322E-09  3.56240E-09  3.55935E-09  3.56674E-09  3.58079E-09
   3.60927E-09  3.65144E-09  3.72658E-09  3.83641E-09  4.02556E-09  4.37977E-09  4.83530E-09  5.33748E-09  6.00071E-09  6.74479E-09
   7.41653E-09  8.02921E-09  8.58846E-09  8.94848E-09  9.04073E-09  8.79791E-09  8.29852E-09  7.69667E-09  6.88905E-09  6.01415E-09
   5.43924E-09  5.01217E-09  4.63567E-09  4.52308E-09  4.72181E-09  5.17981E-09  5.87065E-09  7.03702E-09  8.42565E-09  9.78721E-09
   1.09751E-08  1.18567E-08  1.22596E-08  1.21665E-08  1.15949E-08  1.04381E-08  8.84222E-09  7.11883E-09  5.46871E-09  4.62337E-09
   4.16748E-09  3.87429E-09  3.66523E-09  3.50531E-09  3.38304E-09  3.28454E-09  3.20275E-09  3.13666E-09  3.08242E-09  3.03752E-09
   3.00009E-09  2.96880E-09  2.94282E-09  2.92147E-09  2.90415E-09  2.89041E-09  2.87976E-09  2.87189E-09  2.86657E-09  2.86358E-09
   2.86275E-09  2.86394E-09  2.86700E-09  2.87175E-09  2.87796E-09  2.88540E-09  2.89387E-09  2.90317E-09  2.91309E-09  2.92347E-09
   2.93411E-09  2.94484E-09  2.95550E-09  2.96591E-09  2.97591E-09  2.98535E-09  2.99406E-09  3.00189E-09  3.00869E-09  3.01431E-09
   3.01860E-09  3.02141E-09  3.02260E-09  3.02202E-09  3.01953E-09  3.01500E-09  3.00827E-09  2.99923E-09  2.98773E-09  2.97364E-09
   2.95683E-09  2.93718E-09  2.91455E-09  2.88884E-09  2.85993E-09  2.82771E-09  2.79208E-09  2.75293E-09  2.71020E-09  2.66381E-09
   2.61372E-09  2.55990E-09  2.50236E-09  2.44115E-09  2.37640E-09  2.30831E-09  2.23722E-09  2.16364E-09  2.08841E-09  2.01281E-09
   1.93891E-09  1.87015E-09  1.81261E-09  1.77785E-09  1.79093E-09  1.91850E-09  2.41772E-09  4.20426E-09  7.17499E-09  1.05523E-08
   1.39294E-08  1.70155E-08  1.93964E-08  2.05526E-08  2.00722E-08  1.78257E-08  1.39316E-08  8.81580E-09  3.76623E-09  1.01216E-09
   1.34559E-13 -5.76560E-10 -9.89411E-10 -1.32204E-09 -1.60858E-09 -1.86545E-09 -2.10140E-09 -2.32139E-09 -2.52833E-09 -2.72399E-09
  -2.90938E-09 -3.08507E-09 -3.25134E-09 -3.40820E-09 -3.55560E-09 -3.69333E-09 -3.82125E-09 -3.93962E-09 -4.04873E-09 -4.14885E-09
  -4.24021E-09 -4.32304E-09 -4.39753E-09 -4.46387E-09 -4.52225E-09 -4.57283E-09 -4.61577E-09 -4.65125E-09 -4.67940E-09 -4.70038E-09
  -4.71433E-09 -4.72139E-09 -4.72171E-09 -4.71543E-09 -4.70268E-09 -4.68361E-09 -4.65833E-09 -4.62699E-09 -4.58972E-09 -4.54664E-09
  -4.49790E-09 -4.44361E-09 -4.38391E-09 -4.31893E-09 -4.24885E-09 -4.17397E-09 -4.09460E-09 -4.01104E-09 -3.92361E-09 -3.83261E-09
  -3.73837E-09 -3.64117E-09 -3.54134E-09 -3.43917E-09 -3.33498E-09 -3.22908E-09 -3.12177E-09 -3.01337E-09 -2.90415E-09 -2.79447E-09
  -2.68461E-09 -2.57486E-09 -2.46556E-09 -2.35701E-09 -2.24949E-09 -2.14333E-09 -2.03882E-09 -1.93628E-09 -1.83601E-09 -1.73833E-09
  -1.64351E-09 -1.55190E-09 -1.46362E-09 -1.37862E-09 -1.29686E-09 -1.21829E-09 -1.14282E-09 -1.07041E-09 -1.00100E-09 -9.34523E-10
  -8.70932E-10 -8.10151E-10 -7.52138E-10 -6.96819E-10 -6.44148E-10 -5.94057E-10 -5.46471E-10 -5.01369E-10 -4.58669E-10 -4.18305E-10
  -3.80220E-10 -3.44371E-10 -3.10675E-10 -2.79084E-10 -2.49552E-10 -2.21985E-10 -1.96362E-10 -1.72600E-10 -1.50650E-10 -1.30440E-10
  -1.11925E-10 -9.50538E-11 -7.97720E-11 -6.60269E-11 -5.37749E-11 -4.29574E-11 -3.35296E-11 -2.54350E-11 -1.86242E-11 -1.30496E-11
  -8.65652E-12 -5.39541E-12 -3.21448E-12 -2.06329E-12 -1.89215E-12 -2.64727E-12 -4.28041E-12 -6.73867E-12 -9.97624E-12 -1.39314E-11
  -1.85665E-11 -2.38207E-11 -2.96455E-11 -3.59968E-11 -4.28159E-11 -5.00542E-11 -5.76637E-11 -6.55894E-11 -7.38089E-11 -8.23049E-11
  -9.10619E-11 -1.00065E-10 -1.09298E-10 -1.18746E-10 -1.28393E-10 -1.38225E-10 -1.48225E-10 -1.58378E-10 -1.68670E-10 -1.79083E-10
  -1.89605E-10 -2.00218E-10 -2.10907E-10 -2.21658E-10 -2.32454E-10 -2.43281E-10 -2.54123E-10 -2.64965E-10 -2.75791E-10 -2.86587E-10
  -2.97337E-10 -3.08025E-10 -3.18637E-10 -3.29157E-10 -3.39570E-10 -3.49862E-10 -3.60034E-10 -3.70092E-10 -3.80039E-10 -3.89880E-10
  -3.99623E-10 -4.09270E-10 -4.18827E-10 -4.28300E-10 -4.37695E-10 -4.47014E-10 -4.56265E-10 -4.65452E-10 -4.74581E-10 -4.83654E-10
  -4.92679E-10 -5.01660E-10 -5.10602E-10 -5.19510E-10 -5.28390E-10 -5.37247E-10 -5.46085E-10 -5.54909E-10 -5.63725E-10 -5.72538E-10
  -5.81353E-10 -5.90175E-10 -5.99007E-10
 NY background values follow
     2.189E-09    2.178E-09    2.167E-09    2.156E-09    2.145E-09    2.134E-09    2.123E-09    2.112E-09    2.101E-09    2.090E-09
     2.079E-09    2.068E-09    2.057E-09    2.046E-09    2.035E-09    2.024E-09    2.013E-09    2.002E-09    1.991E-09    1.980E-09
     1.969E-09    1.957E-09    1.946E-09    1.935E-09    1.924E-09    1.912E-09    1.901E-09    1.890E-09    1.878E-09    1.867E-09
     1.855E-09    1.844E-09    1.832E-09    1.820E-09    1.809E-09    1.797E-09    1.786E-09    1.774E-09    1.763E-09    1.752E-09
     1.740E-09    1.729E-09    1.718E-09    1.707E-09    1.697E-09    1.686E-09    1.676E-09    1.666E-09    1.656E-09    1.646E-09
     1.636E-09    1.627E-09    1.618E-09    1.609E-09    1.600E-09    1.592E-09    1.584E-09    1.576E-09    1.569E-09    1.562E-09
     1.555E-09    1.549E-09    1.543E-09    1.537E-09    1.532E-09    1.527E-09    1.523E-09    1.519E-09    1.515E-09    1.511E-09
     1.508E-09    1.506E-09    1.504E-09    1.502E-09    1.501E-09    1.500E-09    1.499E-09    1.499E-09    1.500E-09    1.501E-09
     1.502E-09    1.504E-09    1.506E-09    1.509E-09    1.512E-09    1.516E-09    1.521E-09    1.525E-09    1.531E-09    1.537E-09
     1.543E-09    1.550E-09    1.558E-09    1.566E-09    1.575E-09    1.584E-09    1.594E-09    1.604E-09    1.615E-09    1.627E-09
     1.639E-09    1.652E-09    1.666E-09    1.680E-09    1.695E-09    1.711E-09    1.727E-09    1.744E-09    1.761E-09    1.780E-09
     1.799E-09    1.818E-09    1.839E-09    1.860E-09    1.881E-09    1.903E-09    1.926E-09    1.948E-09    1.970E-09    1.992E-09
     2.014E-09    2.036E-09    2.056E-09    2.077E-09    2.096E-09    2.114E-09    2.132E-09    2.148E-09    2.163E-09    2.176E-09
     2.187E-09    2.197E-09    2.205E-09    2.211E-09    2.215E-09    2.216E-09    2.216E-09    2.212E-09    2.206E-09    2.197E-09
     2.185E-09    2.170E-09    2.152E-09    2.130E-09    2.105E-09    2.076E-09    2.043E-09    2.007E-09    1.967E-09    1.922E-09
     1.873E-09    1.820E-09    1.762E-09    1.699E-09    1.632E-09    1.559E-09    1.482E-09    1.399E-09    1.311E-09    1.217E-09
     1.118E-09    1.013E-09    9.022E-10    7.852E-10    6.621E-10    5.327E-10    3.969E-10    2.545E-10    1.055E-10   -4.970E-11
    -2.106E-10   -3.765E-10   -5.471E-10   -7.217E-10   -8.997E-10   -1.081E-09   -1.264E-09   -1.449E-09   -1.636E-09   -1.823E-09
    -2.010E-09   -2.197E-09   -2.383E-09   -2.568E-09   -2.751E-09   -2.931E-09   -3.108E-09   -3.281E-09   -3.450E-09   -3.615E-09
    -3.774E-09   -3.927E-09   -4.074E-09   -4.214E-09   -4.347E-09   -4.471E-09   -4.588E-09   -4.695E-09   -4.795E-09   -4.886E-09
    -4.969E-09   -5.045E-09   -5.112E-09   -5.172E-09   -5.224E-09   -5.269E-09   -5.307E-09   -5.337E-09   -5.361E-09   -5.377E-09
    -5.387E-09   -5.390E-09   -5.387E-09   -5.377E-09   -5.360E-09   -5.338E-09   -5.309E-09   -5.275E-09   -5.235E-09   -5.189E-09
    -5.137E-09   -5.080E-09   -5.018E-09   -4.950E-09   -4.878E-09   -4.801E-09   -4.719E-09   -4.633E-09   -4.543E-09   -4.450E-09
    -4.354E-09   -4.255E-09   -4.153E-09   -4.049E-09   -3.943E-09   -3.835E-09   -3.726E-09   -3.616E-09   -3.505E-09   -3.393E-09
    -3.282E-09   -3.170E-09   -3.059E-09   -2.949E-09   -2.840E-09   -2.733E-09   -2.627E-09   -2.523E-09   -2.421E-09   -2.322E-09
    -2.226E-09   -2.133E-09   -2.043E-09   -1.957E-09   -1.874E-09   -1.794E-09   -1.717E-09   -1.643E-09   -1.573E-09   -1.505E-09
    -1.440E-09   -1.378E-09   -1.319E-09   -1.263E-09   -1.209E-09   -1.158E-09   -1.109E-09   -1.063E-09   -1.019E-09   -9.776E-10
    -9.385E-10   -9.016E-10   -8.669E-10   -8.343E-10   -8.037E-10   -7.752E-10   -7.486E-10   -7.239E-10   -7.010E-10   -6.798E-10
    -6.604E-10   -6.426E-10   -6.264E-10   -6.118E-10   -5.986E-10   -5.869E-10   -5.766E-10   -5.677E-10   -5.600E-10   -5.536E-10
    -5.483E-10   -5.443E-10   -5.413E-10   -5.393E-10   -5.383E-10   -5.383E-10   -5.391E-10   -5.408E-10   -5.433E-10   -5.464E-10
    -5.503E-10   -5.548E-10   -5.599E-10   -5.655E-10   -5.716E-10   -5.781E-10   -5.850E-10   -5.922E-10   -5.997E-10   -6.075E-10
    -6.156E-10   -6.239E-10   -6.324E-10   -6.412E-10   -6.502E-10   -6.593E-10   -6.686E-10   -6.781E-10   -6.878E-10   -6.975E-10
    -7.074E-10   -7.174E-10   -7.274E-10   -7.376E-10   -7.477E-10   -7.579E-10   -7.682E-10   -7.784E-10   -7.886E-10   -7.988E-10
    -8.089E-10   -8.190E-10   -8.290E-10   -8.390E-10   -8.488E-10   -8.585E-10   -8.681E-10   -8.776E-10   -8.870E-10   -8.962E-10
    -9.054E-10   -9.145E-10   -9.235E-10   -9.324E-10   -9.412E-10   -9.500E-10   -9.587E-10   -9.674E-10   -9.759E-10   -9.845E-10
    -9.930E-10   -1.001E-09   -1.010E-09   -1.018E-09   -1.027E-09   -1.035E-09   -1.043E-09   -1.052E-09   -1.060E-09   -1.068E-09
    -1.076E-09   -1.085E-09   -1.093E-09
 Cr       Conc. = 4.02E-10
   3.84036E-09  3.48307E-09  3.01406E-09  2.59860E-09  2.44355E-09  2.36187E-09  2.30753E-09  2.26666E-09  2.23353E-09  2.20528E-09
   2.18033E-09  2.15770E-09  2.13677E-09  2.11709E-09  2.09837E-09  2.08037E-09  2.06293E-09  2.04592E-09  2.02924E-09  2.01280E-09
   1.99653E-09  1.98038E-09  1.96435E-09  1.94842E-09  1.93265E-09  1.91719E-09  1.90239E-09  1.88900E-09  1.87897E-09  1.87795E-09
   1.90852E-09  2.10899E-09  2.48356E-09  2.93306E-09  3.40432E-09  3.86090E-09  4.24921E-09  4.49655E-09  4.53857E-09  4.34575E-09
   3.91946E-09  3.29402E-09  2.61609E-09  2.22550E-09  2.07489E-09  1.99077E-09  1.93416E-09  1.89189E-09  1.85818E-09  1.83008E-09
   1.80591E-09  1.78463E-09  1.76557E-09  1.74828E-09  1.73247E-09  1.71786E-09  1.70432E-09  1.69173E-09  1.67998E-09  1.66900E-09
   1.65874E-09  1.64913E-09  1.64016E-09  1.63177E-09  1.62397E-09  1.61672E-09  1.61000E-09  1.60382E-09  1.59816E-09  1.59301E-09
   1.58837E-09  1.58423E-09  1.58060E-09  1.57747E-09  1.57484E-09  1.57271E-09  1.57108E-09  1.56996E-09  1.56934E-09  1.56924E-09
   1.56965E-09  1.57057E-09  1.57201E-09  1.57398E-09  1.57647E-09  1.57950E-09  1.58307E-09  1.58718E-09  1.59185E-09  1.59707E-09
   1.60287E-09  1.60923E-09  1.61617E-09  1.62370E-09  1.63182E-09  1.64054E-09  1.64987E-09  1.65982E-09  1.67039E-09  1.68159E-09
   1.69342E-09  1.70590E-09  1.71904E-09  1.73283E-09  1.74729E-09  1.76242E-09  1.77825E-09  1.79475E-09  1.81196E-09  1.82988E-09
   1.84851E-09  1.86786E-09  1.88793E-09  1.90865E-09  1.92989E-09  1.95152E-09  1.97340E-09  1.99539E-09  2.01737E-09  2.03920E-09
   2.06075E-09  2.08188E-09  2.10246E-09  2.12236E-09  2.14144E-09  2.15957E-09  2.17661E-09  2.19244E-09  2.20692E-09  2.21992E-09
   2.23129E-09  2.24091E-09  2.24865E-09  2.25437E-09  2.25793E-09  2.25920E-09  2.25806E-09  2.25436E-09  2.24797E-09  2.23877E-09
   2.22659E-09  2.21134E-09  2.19286E-09  2.17104E-09  2.14572E-09  2.11678E-09  2.08410E-09  2.04753E-09  2.00694E-09  1.96221E-09
   1.91321E-09  1.85980E-09  1.80186E-09  1.73926E-09  1.67189E-09  1.59962E-09  1.52235E-09  1.43997E-09  1.35240E-09  1.25958E-09
   1.16150E-09  1.05823E-09  9.50005E-10  8.37444E-10  7.22230E-10  6.09859E-10  5.27896E-10  5.09411E-10  5.13469E-10  5.16649E-10
   5.07491E-10  4.71255E-10  3.86274E-10  2.30866E-10 -5.92021E-12 -3.22134E-10 -7.06016E-10 -1.12113E-09 -1.47624E-09 -1.71259E-09
  -1.92157E-09 -2.12072E-09 -2.31460E-09 -2.50466E-09 -2.69127E-09 -2.87441E-09 -3.05382E-09 -3.22913E-09 -3.39991E-09 -3.56570E-09
  -3.72601E-09 -3.88034E-09 -4.02816E-09 -4.16894E-09 -4.30217E-09 -4.42731E-09 -4.54396E-09 -4.65216E-09 -4.75205E-09 -4.84375E-09
  -4.92739E-09 -5.00310E-09 -5.07100E-09 -5.13121E-09 -5.18387E-09 -5.22909E-09 -5.26701E-09 -5.29774E-09 -5.32141E-09 -5.33814E-09
  -5.34806E-09 -5.35129E-09 -5.34796E-09 -5.33818E-09 -5.32209E-09 -5.29981E-09 -5.27145E-09 -5.23715E-09 -5.19702E-09 -5.15120E-09
  -5.09980E-09 -5.04294E-09 -4.98076E-09 -4.91337E-09 -4.84095E-09 -4.76381E-09 -4.68223E-09 -4.59653E-09 -4.50702E-09 -4.41400E-09
  -4.31777E-09 -4.21865E-09 -4.11693E-09 -4.01293E-09 -3.90695E-09 -3.79929E-09 -3.69027E-09 -3.58018E-09 -3.46932E-09 -3.35803E-09
  -3.24659E-09 -3.13530E-09 -3.02448E-09 -2.91444E-09 -2.80546E-09 -2.69786E-09 -2.59195E-09 -2.48802E-09 -2.38640E-09 -2.28738E-09
  -2.19124E-09 -2.09834E-09 -2.00878E-09 -1.92253E-09 -1.83954E-09 -1.75975E-09 -1.68309E-09 -1.60950E-09 -1.53893E-09 -1.47131E-09
  -1.40659E-09 -1.34470E-09 -1.28559E-09 -1.22918E-09 -1.17545E-09 -1.12430E-09 -1.07568E-09 -1.02955E-09 -9.85835E-10 -9.44471E-10
  -9.05398E-10 -8.68573E-10 -8.33914E-10 -8.01371E-10 -7.70898E-10 -7.42402E-10 -7.15860E-10 -6.91190E-10 -6.68343E-10 -6.47245E-10
  -6.27852E-10 -6.10112E-10 -5.93972E-10 -5.79377E-10 -5.66285E-10 -5.54635E-10 -5.44384E-10 -5.35475E-10 -5.27858E-10 -5.21485E-10
  -5.16302E-10 -5.12258E-10 -5.09302E-10 -5.07384E-10 -5.06453E-10 -5.06455E-10 -5.07343E-10 -5.09062E-10 -5.11568E-10 -5.14798E-10
  -5.18715E-10 -5.23257E-10 -5.28376E-10 -5.34028E-10 -5.40153E-10 -5.46704E-10 -5.53632E-10 -5.60882E-10 -5.68431E-10 -5.76262E-10
  -5.84360E-10 -5.92709E-10 -6.01294E-10 -6.10099E-10 -6.19108E-10 -6.28306E-10 -6.37678E-10 -6.47208E-10 -6.56881E-10 -6.66680E-10
  -6.76592E-10 -6.86600E-10 -6.96688E-10 -7.06842E-10 -7.17046E-10 -7.27286E-10 -7.37544E-10 -7.47806E-10 -7.58056E-10 -7.68281E-10
  -7.78462E-10 -7.88586E-10 -7.98636E-10 -8.08599E-10 -8.18459E-10 -8.28201E-10 -8.37826E-10 -8.47340E-10 -8.56746E-10 -8.66051E-10
  -8.75260E-10 -8.84376E-10 -8.93406E-10 -9.02355E-10 -9.11227E-10 -9.20027E-10 -9.28762E-10 -9.37435E-10 -9.46051E-10 -9.54616E-10
  -9.63135E-10 -9.71613E-10 -9.80054E-10 -9.88464E-10 -9.96848E-10 -1.00521E-09 -1.01356E-09 -1.02189E-09 -1.03022E-09 -1.03855E-09
  -1.04688E-09 -1.05522E-09 -1.06357E-09
 Glc      Conc. = 2.62E-10
   2.77980E-09  2.84974E-09  2.91199E-09  2.95062E-09  2.95124E-09  2.91237E-09  2.83896E-09  2.75554E-09  2.65802E-09  2.58243E-09
   2.54100E-09  2.52277E-09  2.52680E-09  2.56304E-09  2.63337E-09  2.72539E-09  2.82946E-09  2.93154E-09  3.00966E-09  3.05632E-09
   3.05806E-09  3.00445E-09  2.89805E-09  2.75931E-09  2.60113E-09  2.46112E-09  2.38216E-09  2.33606E-09  2.30354E-09  2.27048E-09
   2.22953E-09  2.18880E-09  2.14906E-09  2.10245E-09  2.05398E-09  2.01579E-09  1.97883E-09  1.94103E-09  1.91063E-09  1.88610E-09
   1.86479E-09  1.84546E-09  1.82765E-09  1.81097E-09  1.79521E-09  1.78023E-09  1.76592E-09  1.75220E-09  1.73902E-09  1.72634E-09
   1.71414E-09  1.70238E-09  1.69106E-09  1.68017E-09  1.66972E-09  1.65967E-09  1.65003E-09  1.64082E-09  1.63202E-09  1.62363E-09
   1.61565E-09  1.60809E-09  1.60094E-09  1.59420E-09  1.58788E-09  1.58198E-09  1.57649E-09  1.57143E-09  1.56680E-09  1.56260E-09
   1.55883E-09  1.55550E-09  1.55262E-09  1.55019E-09  1.54821E-09  1.54669E-09  1.54563E-09  1.54504E-09  1.54493E-09  1.54530E-09
   1.54615E-09  1.54750E-09  1.54934E-09  1.55169E-09  1.55454E-09  1.55791E-09  1.56180E-09  1.56622E-09  1.57119E-09  1.57669E-09
   1.58275E-09  1.58937E-09  1.59656E-09  1.60433E-09  1.61268E-09  1.62162E-09  1.63116E-09  1.64131E-09  1.65207E-09  1.66346E-09
   1.67548E-09  1.68813E-09  1.70144E-09  1.71539E-09  1.73001E-09  1.74530E-09  1.76127E-09  1.77792E-09  1.79527E-09  1.81332E-09
   1.83208E-09  1.85156E-09  1.87176E-09  1.89260E-09  1.91397E-09  1.93571E-09  1.95770E-09  1.97980E-09  2.00189E-09  2.02382E-09
   2.04547E-09  2.06670E-09  2.08738E-09  2.10737E-09  2.12655E-09  2.14477E-09  2.16191E-09  2.17782E-09  2.19239E-09  2.20547E-09
   2.21693E-09  2.22663E-09  2.23444E-09  2.24024E-09  2.24388E-09  2.24522E-09  2.24415E-09  2.24052E-09  2.23421E-09  2.22507E-09
   2.21296E-09  2.19777E-09  2.17935E-09  2.15758E-09  2.13232E-09  2.10344E-09  2.07080E-09  2.03427E-09  1.99373E-09  1.94903E-09
   1.90005E-09  1.84665E-09  1.78871E-09  1.72610E-09  1.65870E-09  1.58637E-09  1.50900E-09  1.42648E-09  1.33870E-09  1.24556E-09
   1.14702E-09  1.04305E-09  9.33732E-10  8.19343E-10  7.00719E-10  5.80524E-10  4.71144E-10  4.06246E-10  3.58092E-10  3.08900E-10
   2.51103E-10  1.75990E-10  6.97900E-11 -8.27670E-11 -2.90587E-10 -5.53299E-10 -8.64477E-10 -1.20538E-09 -1.52222E-09 -1.74789E-09
  -1.95096E-09 -2.14648E-09 -2.33793E-09 -2.52624E-09 -2.71155E-09 -2.89368E-09 -3.07228E-09 -3.24694E-09 -3.41717E-09 -3.58250E-09
  -3.74241E-09 -3.89640E-09 -4.04392E-09 -4.18444E-09 -4.31743E-09 -4.44236E-09 -4.55882E-09 -4.66685E-09 -4.76658E-09 -4.85813E-09
  -4.94164E-09 -5.01722E-09 -5.08500E-09 -5.14510E-09 -5.19766E-09 -5.24279E-09 -5.28061E-09 -5.31126E-09 -5.33485E-09 -5.35150E-09
  -5.36135E-09 -5.36452E-09 -5.36111E-09 -5.35128E-09 -5.33512E-09 -5.31278E-09 -5.28437E-09 -5.25001E-09 -5.20984E-09 -5.16396E-09
  -5.11251E-09 -5.05561E-09 -4.99338E-09 -4.92595E-09 -4.85349E-09 -4.77631E-09 -4.69469E-09 -4.60895E-09 -4.51940E-09 -4.42634E-09
