 LCModel (Version 6.3-1R) Copyright: S.W. Provencher.          Ref.: Magn. Reson. Med. 30:672-679 (1993).                
 onepulse 24x27_ftSpec_smooth_lcm
 26 lines in following concentration table = NCONC+1
    Conc.  %SD /Cr+PCr  Metabolite                                         
    0.000 999%   0.000 Ala                                                 
    0.000 999%   0.000 Asp                                                 
 3.23E-10 149%   1.000 Cr                                                  
 4.68E-10 225%   1.446 GABA                                                
    0.000 999%   0.000 Glc                                                 
 1.83E-09  56%   5.664 Gln                                                 
 2.60E-10 454%   0.804 Glu                                                 
    0.000 999%   0.000 Glyc                                                
    0.000 999%   0.000 GPC                                                 
    0.000 999%   0.000 GSH                                                 
 1.43E-09  35%   4.417 Ins                                                 
    0.000 999%   0.000 Lac                                                 
    0.000 999%   0.000 NAAG                                                
 8.78E-10  38%   2.716 NAA                                                 
 1.67E-10  86%   0.515 PCh                                                 
    0.000 999%   0.000 PCr                                                 
    0.000 999%   0.000 PE                                                  
 2.49E-10 131%   0.771 Scyllo                                              
 3.44E-09  21%  10.642 Ser                                                 
 3.12E-10 314%   0.966 Tau                                                 
 1.67E-10  86%   0.515 GPC+PCh                                             
 8.78E-10  38%   2.716 NAA+NAAG                                            
 1.43E-09  35%   4.417 Ins+Glyc                                            
 3.23E-10 149%   1.000 Cr+PCr                                              
 2.09E-09  41%   6.468 Glu+Gln                                             
   6 lines in following misc. output table
  FWHM = 0.078 ppm    S/N =   3                                            
  Data shift = 0.335 ppm                                                   
  Ph: -48 deg     -24.4 deg/ppm                                            
  alphaB,S = 1.7E-01,   6.5E+01                                            
   16 spline knots.   Ns = 5(1)                                            
  (11) 4 infls.   ( 9) 1 extrs.                                            
  363 points on ppm-axis = NY
      4.250000     4.238821     4.227641     4.216462     4.205282     4.194103     4.182923     4.171744     4.160564     4.149385
      4.138206     4.127026     4.115847     4.104667     4.093488     4.082308     4.071129     4.059949     4.048770     4.037591
      4.026411     4.015232     4.004052     3.992873     3.981693     3.970514     3.959334     3.948155     3.936975     3.925796
      3.914617     3.903437     3.892258     3.881078     3.869899     3.858719     3.847540     3.836360     3.825181     3.814002
      3.802822     3.791643     3.780463     3.769284     3.758104     3.746925     3.735745     3.724566     3.713387     3.702207
      3.691028     3.679848     3.668669     3.657489     3.646310     3.635130     3.623951     3.612772     3.601592     3.590413
      3.579233     3.568054     3.556874     3.545695     3.534515     3.523336     3.512156     3.500977     3.489798     3.478618
      3.467439     3.456259     3.445080     3.433900     3.422721     3.411541     3.400362     3.389183     3.378003     3.366824
      3.355644     3.344465     3.333285     3.322106     3.310926     3.299747     3.288568     3.277388     3.266209     3.255029
      3.243850     3.232670     3.221491     3.210311     3.199132     3.187953     3.176773     3.165594     3.154414     3.143235
      3.132055     3.120876     3.109696     3.098517     3.087337     3.076158     3.064979     3.053799     3.042620     3.031440
      3.020261     3.009081     2.997902     2.986722     2.975543     2.964364     2.953184     2.942005     2.930825     2.919646
      2.908466     2.897287     2.886107     2.874928     2.863749     2.852569     2.841390     2.830210     2.819031     2.807851
      2.796672     2.785492     2.774313     2.763134     2.751954     2.740775     2.729595     2.718416     2.707236     2.696057
      2.684877     2.673698     2.662519     2.651339     2.640160     2.628980     2.617801     2.606621     2.595442     2.584262
      2.573083     2.561903     2.550724     2.539545     2.528365     2.517186     2.506006     2.494827     2.483647     2.472468
      2.461288     2.450109     2.438930     2.427750     2.416571     2.405391     2.394212     2.383032     2.371853     2.360673
      2.349494     2.338315     2.327135     2.315956     2.304776     2.293597     2.282417     2.271238     2.260058     2.248879
      2.237700     2.226520     2.215341     2.204161     2.192982     2.181802     2.170623     2.159443     2.148264     2.137084
      2.125905     2.114726     2.103546     2.092367     2.081187     2.070008     2.058828     2.047649     2.036469     2.025290
      2.014111     2.002931     1.991752     1.980572     1.969393     1.958213     1.947034     1.935854     1.924675     1.913496
      1.902316     1.891137     1.879957     1.868778     1.857598     1.846419     1.835239     1.824060     1.812881     1.801701
      1.790522     1.779342     1.768163     1.756983     1.745804     1.734624     1.723445     1.712265     1.701086     1.689907
      1.678727     1.667548     1.656368     1.645189     1.634009     1.622830     1.611650     1.600471     1.589292     1.578112
      1.566933     1.555753     1.544574     1.533394     1.522215     1.511035     1.499856     1.488677     1.477497     1.466318
      1.455138     1.443959     1.432779     1.421600     1.410420     1.399241     1.388062     1.376882     1.365703     1.354523
      1.343344     1.332164     1.320985     1.309805     1.298626     1.287446     1.276267     1.265088     1.253908     1.242729
      1.231549     1.220370     1.209190     1.198011     1.186831     1.175652     1.164473     1.153293     1.142114     1.130934
      1.119755     1.108575     1.097396     1.086216     1.075037     1.063858     1.052678     1.041499     1.030319     1.019140
      1.007960     0.996781     0.985601     0.974422     0.963243     0.952063     0.940884     0.929704     0.918525     0.907345
      0.896166     0.884986     0.873807     0.862628     0.851448     0.840269     0.829089     0.817910     0.806730     0.795551
      0.784371     0.773192     0.762012     0.750833     0.739654     0.728474     0.717295     0.706115     0.694936     0.683756
      0.672577     0.661397     0.650218     0.639039     0.627859     0.616680     0.605500     0.594321     0.583141     0.571962
      0.560782     0.549603     0.538424     0.527244     0.516065     0.504885     0.493706     0.482526     0.471347     0.460167
      0.448988     0.437809     0.426629     0.415450     0.404270     0.393091     0.381911     0.370732     0.359552     0.348373
      0.337193     0.326014     0.314835     0.303655     0.292476     0.281296     0.270117     0.258937     0.247758     0.236578
      0.225399     0.214220     0.203040
 NY phased data points follow
   1.76140E-08  1.90530E-08  1.58122E-08  1.43050E-08  1.05277E-08  1.08576E-08  8.76998E-09  1.01443E-08  8.90392E-09  9.74466E-09
   8.63039E-09  1.03944E-08  9.63138E-09  1.09133E-08  1.02048E-08  1.11202E-08  9.77477E-09  9.83709E-09  8.53534E-09  9.59968E-09
   7.81131E-09  8.92982E-09  6.76501E-09  8.05831E-09  7.24931E-09  8.88964E-09  8.65964E-09  9.08367E-09  7.27076E-09  7.74997E-09
   6.81406E-09  8.66423E-09  8.77244E-09  1.06954E-08  8.88081E-09  8.64613E-09  5.61859E-09  5.87183E-09  4.14943E-09  4.90124E-09
   3.69163E-09  4.55027E-09  3.62640E-09  4.28496E-09  3.67302E-09  4.42264E-09  3.73473E-09  3.61597E-09  2.32646E-09  4.05486E-09
   3.10713E-09  4.46869E-09  4.17226E-09  5.00735E-09  4.22870E-09  4.55227E-09  3.25275E-09  4.46840E-09  4.47509E-09  5.71503E-09
   5.46978E-09  6.85212E-09  6.66651E-09  9.31807E-09  1.04171E-08  1.16042E-08  8.72789E-09  7.96300E-09  5.71831E-09  5.41598E-09
   3.80115E-09  5.27459E-09  3.47743E-09  4.31822E-09  3.54613E-09  5.25872E-09  4.21809E-09  5.88819E-09  5.52514E-09  9.44129E-09
   1.25102E-08  1.55167E-08  1.48033E-08  1.32655E-08  9.23274E-09  9.02635E-09  7.35527E-09  7.18086E-09  5.99555E-09  6.11079E-09
   5.21641E-09  5.65557E-09  4.50536E-09  4.50298E-09  3.61340E-09  3.57252E-09  2.94270E-09  2.91141E-09  2.50699E-09  3.28909E-09
   2.11320E-09  3.07720E-09  2.59963E-09  3.96356E-09  2.89753E-09  3.57108E-09  2.72362E-09  3.16436E-09  2.63084E-09  2.43751E-09
   9.22961E-10  2.00847E-09  5.76287E-10  1.24732E-09  1.78918E-09  2.78206E-09  2.26283E-09  2.71445E-09  2.23381E-09  3.09506E-09
   2.43153E-09  3.01448E-09  2.19604E-09  2.36094E-09  1.29361E-09  1.50073E-09  3.95697E-10  7.72614E-10  6.57001E-10  1.53969E-09
   1.56991E-09  2.31523E-09  1.17405E-09  1.97801E-09  1.63473E-09  2.52202E-09  2.48530E-09  2.13318E-09  1.46643E-09  2.75234E-09
   3.09691E-09  4.82638E-09  5.49843E-09  5.80204E-09  4.54776E-09  5.10997E-09  5.24952E-09  6.99356E-09  6.08892E-09  6.56475E-09
   5.89552E-09  6.45343E-09  5.67429E-09  6.42049E-09  5.51947E-09  5.67983E-09  5.65308E-09  6.25973E-09  6.02620E-09  5.67667E-09
   6.46367E-09  6.23113E-09  6.55805E-09  6.73747E-09  6.94420E-09  7.18795E-09  7.00957E-09  7.67371E-09  8.94012E-09  8.93776E-09
   9.98713E-09  1.38342E-08  1.89445E-08  2.15305E-08  1.99251E-08  1.68383E-08  1.43695E-08  1.27289E-08  1.12700E-08  1.06790E-08
   8.81008E-09  7.98778E-09  7.28638E-09  6.32241E-09  5.22095E-09  4.45818E-09  3.15016E-09  2.36236E-09  6.70631E-10 -6.11215E-10
  -1.88253E-09 -2.83300E-09 -4.92780E-09 -6.43320E-09 -8.29377E-09 -1.02151E-08 -1.22417E-08 -1.37206E-08 -1.57548E-08 -1.74845E-08
  -1.86660E-08 -1.96874E-08 -2.03034E-08 -2.05164E-08 -2.05383E-08 -2.01093E-08 -1.89235E-08 -1.78052E-08 -1.62075E-08 -1.41647E-08
  -1.23333E-08 -1.03580E-08 -8.38451E-09 -6.91780E-09 -4.85881E-09 -3.35020E-09 -2.14428E-09 -1.58078E-09 -1.19071E-09 -1.10325E-09
  -9.15637E-10 -1.58555E-09 -1.06977E-09 -1.72440E-09 -1.64093E-09 -1.91151E-09 -1.45500E-09 -1.59031E-09 -1.43799E-09 -1.33919E-09
  -1.22656E-09 -1.09703E-09 -1.46005E-09 -9.05601E-10 -9.67060E-10 -1.71891E-09 -1.32706E-09 -1.31052E-09 -1.50021E-09 -1.67558E-09
  -1.05158E-09 -8.71407E-10 -4.45554E-10 -4.10500E-10 -8.60061E-10 -9.67903E-10 -1.13177E-09 -1.30040E-09 -1.13960E-09 -1.09372E-09
  -1.22249E-09 -1.21005E-09 -5.02752E-10 -6.07502E-10 -4.38680E-10 -1.95654E-10  1.15067E-11  1.08582E-10 -2.47574E-10 -1.54380E-10
  -2.91348E-10 -8.67316E-10 -9.42235E-10 -8.12061E-10 -9.60706E-10 -1.63523E-09 -1.37288E-09 -1.60165E-09 -1.33624E-09 -1.29294E-09
  -7.01915E-10 -9.55666E-10 -1.99285E-13 -3.58743E-10  2.87206E-10  2.91416E-10  7.98163E-10  5.68875E-10  8.15674E-11  4.69766E-10
   2.19084E-10 -1.80511E-10  2.60859E-10 -2.13385E-10  1.86699E-10 -8.61540E-10 -4.30136E-10 -6.29289E-10 -6.42678E-10 -1.05486E-09
  -7.25019E-10 -7.78605E-10 -6.16921E-10 -1.25598E-09 -1.10537E-09 -6.20014E-10 -9.39698E-10 -8.13406E-10 -8.38129E-10 -9.02585E-10
  -1.00006E-09 -9.97971E-10 -9.58337E-10 -8.81661E-10 -8.60128E-10 -5.41085E-10 -1.07323E-09 -1.01815E-09 -4.69816E-10 -1.07413E-09
  -1.04109E-09 -1.38891E-09 -7.95322E-10 -1.16376E-09 -1.08125E-09 -1.63708E-09 -9.92520E-10 -1.42337E-09 -9.46117E-10 -1.02471E-09
  -1.51477E-09 -1.21006E-09 -1.02985E-09 -7.73046E-10 -1.16254E-09 -1.46178E-09 -6.97209E-10 -1.36259E-09 -8.89199E-10 -1.48654E-09
  -9.38473E-10 -1.72777E-09 -1.09788E-09 -1.49629E-09 -1.20836E-09 -1.47664E-09 -1.22235E-09 -1.47185E-09 -1.00225E-09 -1.42692E-09
  -1.75837E-09 -1.62900E-09 -1.08906E-09 -1.77425E-09 -1.14978E-09 -1.66803E-09 -1.39442E-09 -1.46246E-09 -1.46944E-09 -1.49918E-09
  -1.23705E-09 -1.67001E-09 -1.67903E-09 -1.24971E-09 -1.65610E-09 -1.84471E-09 -1.39194E-09 -1.91701E-09 -1.41345E-09 -1.80535E-09
  -1.66041E-09 -1.83692E-09 -1.44118E-09
 NY points of the fit to the data follow
   1.86760E-08  1.66783E-08  1.48242E-08  1.35282E-08  1.28824E-08  1.20521E-08  1.08881E-08  9.84537E-09  9.31940E-09  9.35761E-09
   9.55570E-09  9.76376E-09  1.01504E-08  1.05101E-08  1.07270E-08  1.04923E-08  9.94187E-09  9.53867E-09  8.92161E-09  7.99936E-09
   7.43542E-09  7.41712E-09  7.65906E-09  7.89901E-09  8.21735E-09  8.54198E-09  8.75980E-09  8.74188E-09  8.56902E-09  8.54324E-09
   8.56280E-09  8.37301E-09  7.99062E-09  7.37132E-09  6.68605E-09  6.16762E-09  6.11592E-09  6.13870E-09  6.03238E-09  5.73473E-09
   5.26476E-09  4.65984E-09  3.93014E-09  3.44687E-09  3.33630E-09  3.28944E-09  3.23142E-09  3.23965E-09  3.28878E-09  3.34816E-09
   3.42364E-09  3.50987E-09  3.63071E-09  3.78214E-09  4.01978E-09  4.41201E-09  4.87242E-09  5.36178E-09  5.96227E-09  6.55400E-09
   7.04771E-09  7.50341E-09  7.93040E-09  8.16470E-09  8.18995E-09  7.94281E-09  7.50435E-09  7.03306E-09  6.38103E-09  5.71033E-09
   5.34585E-09  5.06614E-09  4.77098E-09  4.68478E-09  4.83255E-09  5.15209E-09  5.73029E-09  6.90190E-09  8.21145E-09  9.48485E-09
   1.07104E-08  1.17430E-08  1.23342E-08  1.24335E-08  1.19746E-08  1.08480E-08  9.23908E-09  7.35552E-09  5.46543E-09  4.68080E-09
   4.32641E-09  4.12582E-09  3.98301E-09  3.81540E-09  3.67047E-09  3.57953E-09  3.45718E-09  3.33631E-09  3.26525E-09  3.20200E-09
   3.14521E-09  3.10668E-09  3.08048E-09  3.06295E-09  3.05190E-09  3.04595E-09  3.04409E-09  3.04568E-09  3.05026E-09  3.05747E-09
   3.06700E-09  3.07860E-09  3.09215E-09  3.10742E-09  3.12415E-09  3.14208E-09  3.16095E-09  3.18050E-09  3.20053E-09  3.22081E-09
   3.24117E-09  3.26139E-09  3.28129E-09  3.30068E-09  3.31937E-09  3.33719E-09  3.35396E-09  3.36950E-09  3.38366E-09  3.39625E-09
   3.40712E-09  3.41609E-09  3.42301E-09  3.42771E-09  3.43004E-09  3.42983E-09  3.42693E-09  3.42119E-09  3.41246E-09  3.40058E-09
   3.38540E-09  3.36680E-09  3.34465E-09  3.31881E-09  3.28916E-09  3.25559E-09  3.21800E-09  3.17628E-09  3.13035E-09  3.08012E-09
   3.02556E-09  2.96663E-09  2.90335E-09  2.83576E-09  2.76400E-09  2.68825E-09  2.60887E-09  2.52640E-09  2.44165E-09  2.35592E-09
   2.27130E-09  2.19122E-09  2.12171E-09  2.07420E-09  2.07328E-09  2.18392E-09  2.65433E-09  4.36992E-09  7.13732E-09  1.01707E-08
   1.33471E-08  1.65767E-08  1.93521E-08  2.09251E-08  2.08047E-08  1.89274E-08  1.53322E-08  1.01328E-08  4.48003E-09  1.17610E-09
   1.14275E-11 -6.34328E-10 -1.09085E-09 -1.45665E-09 -1.77100E-09 -2.05251E-09 -2.31090E-09 -2.55165E-09 -2.77791E-09 -2.99154E-09
  -3.19361E-09 -3.38470E-09 -3.56501E-09 -3.73455E-09 -3.89318E-09 -4.04064E-09 -4.17674E-09 -4.30180E-09 -4.41621E-09 -4.52031E-09
  -4.61443E-09 -4.69884E-09 -4.77385E-09 -4.83971E-09 -4.89669E-09 -4.94503E-09 -4.98497E-09 -5.01675E-09 -5.04059E-09 -5.05673E-09
  -5.06538E-09 -5.06677E-09 -5.06110E-09 -5.04861E-09 -5.02950E-09 -5.00398E-09 -4.97226E-09 -4.93455E-09 -4.89107E-09 -4.84201E-09
  -4.78758E-09 -4.72799E-09 -4.66345E-09 -4.59415E-09 -4.52034E-09 -4.44228E-09 -4.36028E-09 -4.27461E-09 -4.18557E-09 -4.09345E-09
  -3.99852E-09 -3.90109E-09 -3.80143E-09 -3.69984E-09 -3.59658E-09 -3.49197E-09 -3.38628E-09 -3.27980E-09 -3.17280E-09 -3.06560E-09
  -2.95847E-09 -2.85167E-09 -2.74552E-09 -2.64031E-09 -2.53629E-09 -2.43377E-09 -2.33303E-09 -2.23435E-09 -2.13803E-09 -2.04435E-09
  -1.95357E-09 -1.86603E-09 -1.78182E-09 -1.70091E-09 -1.62326E-09 -1.54881E-09 -1.47749E-09 -1.40926E-09 -1.34405E-09 -1.28182E-09
  -1.22250E-09 -1.16604E-09 -1.11240E-09 -1.06149E-09 -1.01329E-09 -9.67721E-10 -9.24718E-10 -8.84263E-10 -8.46279E-10 -8.10701E-10
  -7.77476E-10 -7.46565E-10 -7.17890E-10 -6.91404E-10 -6.67067E-10 -6.44787E-10 -6.24547E-10 -6.06267E-10 -5.89904E-10 -5.75387E-10
  -5.62673E-10 -5.51709E-10 -5.42439E-10 -5.34808E-10 -5.28773E-10 -5.24270E-10 -5.21257E-10 -5.19672E-10 -5.19465E-10 -5.20588E-10
  -5.22983E-10 -5.26600E-10 -5.31385E-10 -5.37285E-10 -5.44250E-10 -5.52224E-10 -5.61156E-10 -5.70992E-10 -5.81685E-10 -5.93169E-10
  -6.05408E-10 -6.18336E-10 -6.31905E-10 -6.46069E-10 -6.60765E-10 -6.75944E-10 -6.91557E-10 -7.07545E-10 -7.23885E-10 -7.40560E-10
  -7.57552E-10 -7.74846E-10 -7.92426E-10 -8.10273E-10 -8.28374E-10 -8.46712E-10 -8.65269E-10 -8.84029E-10 -9.02979E-10 -9.22097E-10
  -9.41374E-10 -9.60787E-10 -9.80321E-10 -9.99964E-10 -1.01969E-09 -1.03950E-09 -1.05936E-09 -1.07927E-09 -1.09919E-09 -1.11913E-09
  -1.13906E-09 -1.15896E-09 -1.17882E-09 -1.19863E-09 -1.21836E-09 -1.23801E-09 -1.25757E-09 -1.27704E-09 -1.29643E-09 -1.31575E-09
  -1.33499E-09 -1.35417E-09 -1.37328E-09 -1.39233E-09 -1.41132E-09 -1.43027E-09 -1.44917E-09 -1.46802E-09 -1.48683E-09 -1.50561E-09
  -1.52436E-09 -1.54308E-09 -1.56178E-09 -1.58046E-09 -1.59912E-09 -1.61777E-09 -1.63642E-09 -1.65506E-09 -1.67370E-09 -1.69236E-09
  -1.71102E-09 -1.72969E-09 -1.74838E-09
 NY background values follow
     2.252E-10    2.465E-10    2.679E-10    2.894E-10    3.109E-10    3.324E-10    3.539E-10    3.755E-10    3.970E-10    4.185E-10
     4.400E-10    4.614E-10    4.828E-10    5.040E-10    5.252E-10    5.463E-10    5.672E-10    5.880E-10    6.086E-10    6.291E-10
     6.494E-10    6.694E-10    6.893E-10    7.089E-10    7.283E-10    7.475E-10    7.663E-10    7.849E-10    8.032E-10    8.212E-10
     8.388E-10    8.562E-10    8.733E-10    8.901E-10    9.067E-10    9.230E-10    9.391E-10    9.550E-10    9.706E-10    9.861E-10
     1.001E-09    1.016E-09    1.031E-09    1.046E-09    1.061E-09    1.075E-09    1.089E-09    1.103E-09    1.117E-09    1.131E-09
     1.145E-09    1.159E-09    1.173E-09    1.186E-09    1.200E-09    1.213E-09    1.227E-09    1.240E-09    1.254E-09    1.267E-09
     1.281E-09    1.294E-09    1.308E-09    1.321E-09    1.335E-09    1.348E-09    1.361E-09    1.375E-09    1.388E-09    1.402E-09
     1.415E-09    1.429E-09    1.442E-09    1.456E-09    1.470E-09    1.483E-09    1.497E-09    1.511E-09    1.524E-09    1.538E-09
     1.552E-09    1.566E-09    1.580E-09    1.594E-09    1.608E-09    1.622E-09    1.637E-09    1.651E-09    1.665E-09    1.680E-09
     1.695E-09    1.710E-09    1.726E-09    1.741E-09    1.757E-09    1.774E-09    1.790E-09    1.807E-09    1.825E-09    1.843E-09
     1.861E-09    1.880E-09    1.899E-09    1.919E-09    1.940E-09    1.961E-09    1.982E-09    2.005E-09    2.028E-09    2.051E-09
     2.076E-09    2.101E-09    2.127E-09    2.153E-09    2.180E-09    2.208E-09    2.236E-09    2.263E-09    2.291E-09    2.318E-09
     2.346E-09    2.372E-09    2.398E-09    2.423E-09    2.447E-09    2.469E-09    2.491E-09    2.511E-09    2.529E-09    2.545E-09
     2.560E-09    2.572E-09    2.583E-09    2.590E-09    2.596E-09    2.598E-09    2.598E-09    2.594E-09    2.588E-09    2.578E-09
     2.564E-09    2.547E-09    2.527E-09    2.502E-09    2.473E-09    2.440E-09    2.403E-09    2.361E-09    2.314E-09    2.263E-09
     2.207E-09    2.145E-09    2.079E-09    2.007E-09    1.929E-09    1.846E-09    1.757E-09    1.663E-09    1.562E-09    1.455E-09
     1.341E-09    1.221E-09    1.094E-09    9.609E-10    8.204E-10    6.729E-10    5.181E-10    3.559E-10    1.863E-10    9.739E-12
    -1.731E-10   -3.617E-10   -5.553E-10   -7.534E-10   -9.552E-10   -1.160E-09   -1.368E-09   -1.577E-09   -1.788E-09   -1.999E-09
    -2.210E-09   -2.421E-09   -2.631E-09   -2.838E-09   -3.043E-09   -3.245E-09   -3.443E-09   -3.636E-09   -3.825E-09   -4.008E-09
    -4.184E-09   -4.354E-09   -4.515E-09   -4.669E-09   -4.814E-09   -4.949E-09   -5.075E-09   -5.190E-09   -5.296E-09   -5.392E-09
    -5.479E-09   -5.557E-09   -5.626E-09   -5.687E-09   -5.739E-09   -5.783E-09   -5.818E-09   -5.846E-09   -5.866E-09   -5.879E-09
    -5.884E-09   -5.883E-09   -5.874E-09   -5.859E-09   -5.837E-09   -5.809E-09   -5.775E-09   -5.735E-09   -5.689E-09   -5.638E-09
    -5.582E-09   -5.521E-09   -5.454E-09   -5.383E-09   -5.308E-09   -5.228E-09   -5.144E-09   -5.057E-09   -4.967E-09   -4.873E-09
    -4.777E-09   -4.678E-09   -4.577E-09   -4.475E-09   -4.370E-09   -4.264E-09   -4.157E-09   -4.050E-09   -3.942E-09   -3.834E-09
    -3.725E-09   -3.618E-09   -3.510E-09   -3.404E-09   -3.299E-09   -3.196E-09   -3.094E-09   -2.995E-09   -2.898E-09   -2.803E-09
    -2.711E-09   -2.623E-09   -2.538E-09   -2.456E-09   -2.378E-09   -2.303E-09   -2.231E-09   -2.162E-09   -2.096E-09   -2.033E-09
    -1.973E-09   -1.916E-09   -1.861E-09   -1.810E-09   -1.761E-09   -1.715E-09   -1.671E-09   -1.630E-09   -1.591E-09   -1.555E-09
    -1.521E-09   -1.490E-09   -1.460E-09   -1.433E-09   -1.408E-09   -1.385E-09   -1.365E-09   -1.346E-09   -1.329E-09   -1.314E-09
    -1.301E-09   -1.289E-09   -1.279E-09   -1.271E-09   -1.264E-09   -1.259E-09   -1.256E-09   -1.254E-09   -1.253E-09   -1.254E-09
    -1.255E-09   -1.259E-09   -1.263E-09   -1.268E-09   -1.275E-09   -1.282E-09   -1.291E-09   -1.300E-09   -1.310E-09   -1.321E-09
    -1.333E-09   -1.345E-09   -1.358E-09   -1.372E-09   -1.386E-09   -1.401E-09   -1.416E-09   -1.432E-09   -1.448E-09   -1.464E-09
    -1.480E-09   -1.497E-09   -1.514E-09   -1.532E-09   -1.549E-09   -1.567E-09   -1.585E-09   -1.604E-09   -1.622E-09   -1.641E-09
    -1.660E-09   -1.679E-09   -1.698E-09   -1.717E-09   -1.736E-09   -1.755E-09   -1.775E-09   -1.794E-09   -1.814E-09   -1.833E-09
    -1.853E-09   -1.872E-09   -1.892E-09   -1.911E-09   -1.930E-09   -1.949E-09   -1.969E-09   -1.988E-09   -2.007E-09   -2.025E-09
    -2.044E-09   -2.063E-09   -2.082E-09   -2.100E-09   -2.119E-09   -2.137E-09   -2.156E-09   -2.174E-09   -2.193E-09   -2.211E-09
    -2.229E-09   -2.247E-09   -2.266E-09   -2.284E-09   -2.302E-09   -2.320E-09   -2.339E-09   -2.357E-09   -2.375E-09   -2.393E-09
    -2.411E-09   -2.430E-09   -2.448E-09
 Cr       Conc. = 3.23E-10
   1.54042E-09  1.26623E-09  8.90202E-10  5.55911E-10  4.74537E-10  4.54330E-10  4.53484E-10  4.61156E-10  4.73324E-10  4.88148E-10
   5.04658E-10  5.22297E-10  5.40720E-10  5.59703E-10  5.79093E-10  5.98787E-10  6.18710E-10  6.38814E-10  6.59073E-10  6.79476E-10
   7.00034E-10  7.20783E-10  7.41791E-10  7.63176E-10  7.85134E-10  8.07995E-10  8.32338E-10  8.59246E-10  8.90984E-10  9.33205E-10
   1.00511E-09  1.20719E-09  1.52446E-09  1.86965E-09  2.23002E-09  2.59985E-09  2.92892E-09  3.13822E-09  3.17387E-09  3.02887E-09
   2.70744E-09  2.21366E-09  1.64973E-09  1.33035E-09  1.24483E-09  1.21376E-09  1.20234E-09  1.20012E-09  1.20288E-09  1.20864E-09
   1.21630E-09  1.22525E-09  1.23510E-09  1.24561E-09  1.25660E-09  1.26796E-09  1.27962E-09  1.29152E-09  1.30361E-09  1.31585E-09
   1.32823E-09  1.34072E-09  1.35330E-09  1.36597E-09  1.37870E-09  1.39151E-09  1.40438E-09  1.41731E-09  1.43029E-09  1.44332E-09
   1.45641E-09  1.46955E-09  1.48274E-09  1.49598E-09  1.50927E-09  1.52262E-09  1.53602E-09  1.54947E-09  1.56299E-09  1.57656E-09
   1.59020E-09  1.60390E-09  1.61766E-09  1.63149E-09  1.64539E-09  1.65938E-09  1.67347E-09  1.68770E-09  1.70208E-09  1.71665E-09
   1.73143E-09  1.74644E-09  1.76172E-09  1.77727E-09  1.79314E-09  1.80935E-09  1.82591E-09  1.84287E-09  1.86023E-09  1.87804E-09
   1.89630E-09  1.91506E-09  1.93433E-09  1.95414E-09  1.97452E-09  1.99548E-09  2.01707E-09  2.03930E-09  2.06219E-09  2.08578E-09
   2.11009E-09  2.13515E-09  2.16096E-09  2.18746E-09  2.21449E-09  2.24190E-09  2.26953E-09  2.29723E-09  2.32484E-09  2.35221E-09
   2.37918E-09  2.40559E-09  2.43131E-09  2.45616E-09  2.47999E-09  2.50266E-09  2.52400E-09  2.54386E-09  2.56209E-09  2.57853E-09
   2.59303E-09  2.60542E-09  2.61557E-09  2.62331E-09  2.62849E-09  2.63096E-09  2.63055E-09  2.62712E-09  2.62051E-09  2.61057E-09
   2.59714E-09  2.58008E-09  2.55924E-09  2.53448E-09  2.50566E-09  2.47263E-09  2.43526E-09  2.39339E-09  2.34688E-09  2.29560E-09
   2.23941E-09  2.17815E-09  2.11171E-09  2.03993E-09  1.96268E-09  1.87983E-09  1.79126E-09  1.69685E-09  1.59649E-09  1.49009E-09
   1.37761E-09  1.25905E-09  1.13455E-09  1.00452E-09  8.70146E-10  7.35261E-10  6.18708E-10  5.51346E-10  4.92470E-10  4.31035E-10
   3.69212E-10  2.97476E-10  1.90644E-10  2.46331E-11 -2.08099E-10 -5.04200E-10 -8.63186E-10 -1.26998E-09 -1.64689E-09 -1.90506E-09
  -2.13579E-09 -2.35698E-09 -2.57295E-09 -2.78492E-09 -2.99309E-09 -3.19730E-09 -3.39718E-09 -3.59224E-09 -3.78195E-09 -3.96575E-09
  -4.14306E-09 -4.31328E-09 -4.47581E-09 -4.63001E-09 -4.77529E-09 -4.91103E-09 -5.03676E-09 -5.15258E-09 -5.25870E-09 -5.35534E-09
  -5.44267E-09 -5.52092E-09 -5.59029E-09 -5.65096E-09 -5.70316E-09 -5.74707E-09 -5.78290E-09 -5.81084E-09 -5.83111E-09 -5.84389E-09
  -5.84940E-09 -5.84782E-09 -5.83936E-09 -5.82422E-09 -5.80260E-09 -5.77471E-09 -5.74072E-09 -5.70086E-09 -5.65531E-09 -5.60429E-09
  -5.54798E-09 -5.48658E-09 -5.42030E-09 -5.34934E-09 -5.27393E-09 -5.19433E-09 -5.11084E-09 -5.02373E-09 -4.93330E-09 -4.83983E-09
  -4.74361E-09 -4.64490E-09 -4.54402E-09 -4.44124E-09 -4.33683E-09 -4.23110E-09 -4.12431E-09 -4.01677E-09 -3.90873E-09 -3.80051E-09
  -3.69239E-09 -3.58463E-09 -3.47754E-09 -3.37140E-09 -3.26648E-09 -3.16308E-09 -3.06147E-09 -2.96194E-09 -2.86479E-09 -2.77030E-09
  -2.67872E-09 -2.59039E-09 -2.50541E-09 -2.42375E-09 -2.34535E-09 -2.27017E-09 -2.19813E-09 -2.12919E-09 -2.06328E-09 -2.00036E-09
  -1.94037E-09 -1.88324E-09 -1.82893E-09 -1.77738E-09 -1.72853E-09 -1.68233E-09 -1.63871E-09 -1.59763E-09 -1.55904E-09 -1.52286E-09
  -1.48904E-09 -1.45754E-09 -1.42828E-09 -1.40122E-09 -1.37631E-09 -1.35347E-09 -1.33267E-09 -1.31384E-09 -1.29693E-09 -1.28187E-09
  -1.26862E-09 -1.25713E-09 -1.24733E-09 -1.23917E-09 -1.23262E-09 -1.22760E-09 -1.22408E-09 -1.22199E-09 -1.22128E-09 -1.22190E-09
  -1.22380E-09 -1.22692E-09 -1.23122E-09 -1.23663E-09 -1.24311E-09 -1.25061E-09 -1.25906E-09 -1.26842E-09 -1.27864E-09 -1.28966E-09
  -1.30143E-09 -1.31389E-09 -1.32700E-09 -1.34070E-09 -1.35494E-09 -1.36967E-09 -1.38483E-09 -1.40036E-09 -1.41625E-09 -1.43248E-09
  -1.44902E-09 -1.46587E-09 -1.48301E-09 -1.50041E-09 -1.51807E-09 -1.53597E-09 -1.55409E-09 -1.57241E-09 -1.59093E-09 -1.60961E-09
  -1.62845E-09 -1.64743E-09 -1.66654E-09 -1.68575E-09 -1.70505E-09 -1.72442E-09 -1.74386E-09 -1.76333E-09 -1.78283E-09 -1.80234E-09
  -1.82184E-09 -1.84132E-09 -1.86076E-09 -1.88014E-09 -1.89945E-09 -1.91867E-09 -1.93780E-09 -1.95685E-09 -1.97582E-09 -1.99471E-09
  -2.01353E-09 -2.03228E-09 -2.05097E-09 -2.06959E-09 -2.08816E-09 -2.10668E-09 -2.12515E-09 -2.14358E-09 -2.16197E-09 -2.18032E-09
  -2.19864E-09 -2.21694E-09 -2.23520E-09 -2.25345E-09 -2.27169E-09 -2.28991E-09 -2.30813E-09 -2.32634E-09 -2.34455E-09 -2.36277E-09
  -2.38100E-09 -2.39924E-09 -2.41749E-09
 GABA     Conc. = 4.68E-10
   2.66360E-10  2.88126E-10  3.10005E-10  3.31986E-10  3.54059E-10  3.76215E-10  3.98446E-10  4.20744E-10  4.43103E-10  4.65524E-10
   4.87998E-10  5.10534E-10  5.33140E-10  5.55815E-10  5.78591E-10  6.01485E-10  6.24499E-10  6.47701E-10  6.71150E-10  6.94894E-10
   7.19064E-10  7.43834E-10  7.69439E-10  7.96268E-10  8.24890E-10  8.56228E-10  8.92026E-10  9.35679E-10  9.95707E-10  1.09266E-09
   1.19032E-09  1.29548E-09  1.46322E-09  1.64047E-09  1.78832E-09  1.93481E-09  2.06364E-09  2.14682E-09  2.16103E-09  2.10882E-09
   2.02984E-09  1.96117E-09  1.80245E-09  1.61252E-09  1.53475E-09  1.45460E-09  1.34476E-09  1.29590E-09  1.27673E-09  1.27104E-09
   1.27284E-09  1.27933E-09  1.28914E-09  1.30161E-09  1.31641E-09  1.33350E-09  1.35323E-09  1.37629E-09  1.40403E-09  1.43907E-09
   1.48700E-09  1.56358E-09  1.66738E-09  1.77038E-09  1.90672E-09  2.07829E-09  2.22960E-09  2.35264E-09  2.45059E-09  2.50569E-09
   2.49705E-09  2.41715E-09  2.29272E-09  2.17799E-09  2.06112E-09  1.89400E-09  1.79199E-09  1.76471E-09  1.71863E-09  1.69221E-09
   1.70904E-09  1.73199E-09  1.77280E-09  1.85037E-09  1.92746E-09  2.00446E-09  2.10231E-09  2.20250E-09  2.29103E-09  2.35651E-09
   2.39425E-09  2.42707E-09  2.44235E-09  2.39126E-09  2.33487E-09  2.31439E-09  2.24992E-09  2.17642E-09  2.14494E-09  2.11523E-09
   2.08739E-09  2.07425E-09  2.07041E-09  2.07265E-09  2.07919E-09  2.08893E-09  2.10126E-09  2.11576E-09  2.13211E-09  2.15010E-09
   2.16954E-09  2.19029E-09  2.21229E-09  2.23541E-09  2.25944E-09  2.28418E-09  2.30942E-09  2.33493E-09  2.36056E-09  2.38610E-09
   2.41141E-09  2.43630E-09  2.46062E-09  2.48417E-09  2.50681E-09  2.52837E-09  2.54867E-09  2.56756E-09  2.58489E-09  2.60049E-09
   2.61419E-09  2.62585E-09  2.63530E-09  2.64238E-09  2.64695E-09  2.64883E-09  2.64787E-09  2.64392E-09  2.63683E-09  2.62642E-09
   2.61255E-09  2.59508E-09  2.57385E-09  2.54872E-09  2.51955E-09  2.48619E-09  2.44850E-09  2.40634E-09  2.35957E-09  2.30803E-09
   2.25161E-09  2.19014E-09  2.12350E-09  2.05156E-09  1.97418E-09  1.89123E-09  1.80260E-09  1.70818E-09  1.60788E-09  1.50163E-09
   1.38942E-09  1.27132E-09  1.14759E-09  1.01883E-09  8.86699E-10  7.56329E-10  6.51844E-10  6.25642E-10  6.16983E-10  6.07602E-10
   6.00928E-10  5.84379E-10  5.21373E-10  3.75199E-10  1.33223E-10 -1.99742E-10 -6.23449E-10 -1.12049E-09 -1.58498E-09 -1.86870E-09
  -2.10928E-09 -2.33563E-09 -2.55477E-09 -2.76888E-09 -2.97859E-09 -3.18397E-09 -3.38476E-09 -3.58056E-09 -3.77087E-09 -3.95519E-09
  -4.13293E-09 -4.30354E-09 -4.46640E-09 -4.62090E-09 -4.76644E-09 -4.90241E-09 -5.02835E-09 -5.14437E-09 -5.25068E-09 -5.34748E-09
  -5.43498E-09 -5.51337E-09 -5.58287E-09 -5.64367E-09 -5.69599E-09 -5.74001E-09 -5.77595E-09 -5.80400E-09 -5.82436E-09 -5.83724E-09
  -5.84283E-09 -5.84134E-09 -5.83296E-09 -5.81790E-09 -5.79635E-09 -5.76853E-09 -5.73461E-09 -5.69482E-09 -5.64934E-09 -5.59837E-09
  -5.54212E-09 -5.48078E-09 -5.41456E-09 -5.34366E-09 -5.26829E-09 -5.18875E-09 -5.10531E-09 -5.01825E-09 -4.92787E-09 -4.83444E-09
