 LCModel (Version 6.3-1R) Copyright: S.W. Provencher.          Ref.: Magn. Reson. Med. 30:672-679 (1993).                
 onepulse 24x23_ftSpec_smooth_lcm
 26 lines in following concentration table = NCONC+1
    Conc.  %SD /Cr+PCr  Metabolite                                         
 2.37E-10 147%   4.038 Ala                                                 
 9.57E-10 105%  16.283 Asp                                                 
 2.76E-11 999%   0.470 Cr                                                  
 3.23E-09  22%  54.947 GABA                                                
 2.23E-09  34%  37.927 Glc                                                 
    0.000 999%   0.000 Gln                                                 
    0.000 999%   0.000 Glu                                                 
    0.000 999%   0.000 Glyc                                                
 1.44E-10 556%   2.456 GPC                                                 
    0.000 999%   0.000 GSH                                                 
 3.67E-10 130%   6.238 Ins                                                 
    0.000 999%   0.000 Lac                                                 
    0.000 999%   0.000 NAAG                                                
 1.37E-09  19%  23.298 NAA                                                 
 3.81E-11 999%   0.647 PCh                                                 
 3.11E-11 999%   0.530 PCr                                                 
    0.000 999%   0.000 PE                                                  
    0.000 999%   0.000 Scyllo                                              
 5.66E-10 299%   9.628 Ser                                                 
    0.000 999%   0.000 Tau                                                 
 1.82E-10  56%   3.104 GPC+PCh                                             
 1.37E-09  19%  23.298 NAA+NAAG                                            
 3.67E-10 130%   6.238 Ins+Glyc                                            
 5.88E-11 617%   1.000 Cr+PCr                                              
    0.000 999%   0.000 Glu+Gln                                             
   6 lines in following misc. output table
  FWHM = 0.089 ppm    S/N =   3                                            
  Data shift = 0.347 ppm                                                   
  Ph:  55 deg      20.9 deg/ppm                                            
  alphaB,S = 1.8E-01,   4.3E+01                                            
   16 spline knots.   Ns = 5(1)                                            
  ( 9) 2 infls.   ( 5) 1 extrs.                                            
  363 points on ppm-axis = NY
      4.250000     4.238821     4.227641     4.216462     4.205282     4.194103     4.182923     4.171744     4.160564     4.149385
      4.138206     4.127026     4.115847     4.104667     4.093488     4.082308     4.071129     4.059949     4.048770     4.037591
      4.026411     4.015232     4.004052     3.992873     3.981693     3.970514     3.959334     3.948155     3.936975     3.925796
      3.914617     3.903437     3.892258     3.881078     3.869899     3.858719     3.847540     3.836360     3.825181     3.814002
      3.802822     3.791643     3.780463     3.769284     3.758104     3.746925     3.735745     3.724566     3.713387     3.702207
      3.691028     3.679848     3.668669     3.657489     3.646310     3.635130     3.623951     3.612772     3.601592     3.590413
      3.579233     3.568054     3.556874     3.545695     3.534515     3.523336     3.512156     3.500977     3.489798     3.478618
      3.467439     3.456259     3.445080     3.433900     3.422721     3.411541     3.400362     3.389183     3.378003     3.366824
      3.355644     3.344465     3.333285     3.322106     3.310926     3.299747     3.288568     3.277388     3.266209     3.255029
      3.243850     3.232670     3.221491     3.210311     3.199132     3.187953     3.176773     3.165594     3.154414     3.143235
      3.132055     3.120876     3.109696     3.098517     3.087337     3.076158     3.064979     3.053799     3.042620     3.031440
      3.020261     3.009081     2.997902     2.986722     2.975543     2.964364     2.953184     2.942005     2.930825     2.919646
      2.908466     2.897287     2.886107     2.874928     2.863749     2.852569     2.841390     2.830210     2.819031     2.807851
      2.796672     2.785492     2.774313     2.763134     2.751954     2.740775     2.729595     2.718416     2.707236     2.696057
      2.684877     2.673698     2.662519     2.651339     2.640160     2.628980     2.617801     2.606621     2.595442     2.584262
      2.573083     2.561903     2.550724     2.539545     2.528365     2.517186     2.506006     2.494827     2.483647     2.472468
      2.461288     2.450109     2.438930     2.427750     2.416571     2.405391     2.394212     2.383032     2.371853     2.360673
      2.349494     2.338315     2.327135     2.315956     2.304776     2.293597     2.282417     2.271238     2.260058     2.248879
      2.237700     2.226520     2.215341     2.204161     2.192982     2.181802     2.170623     2.159443     2.148264     2.137084
      2.125905     2.114726     2.103546     2.092367     2.081187     2.070008     2.058828     2.047649     2.036469     2.025290
      2.014111     2.002931     1.991752     1.980572     1.969393     1.958213     1.947034     1.935854     1.924675     1.913496
      1.902316     1.891137     1.879957     1.868778     1.857598     1.846419     1.835239     1.824060     1.812881     1.801701
      1.790522     1.779342     1.768163     1.756983     1.745804     1.734624     1.723445     1.712265     1.701086     1.689907
      1.678727     1.667548     1.656368     1.645189     1.634009     1.622830     1.611650     1.600471     1.589292     1.578112
      1.566933     1.555753     1.544574     1.533394     1.522215     1.511035     1.499856     1.488677     1.477497     1.466318
      1.455138     1.443959     1.432779     1.421600     1.410420     1.399241     1.388062     1.376882     1.365703     1.354523
      1.343344     1.332164     1.320985     1.309805     1.298626     1.287446     1.276267     1.265088     1.253908     1.242729
      1.231549     1.220370     1.209190     1.198011     1.186831     1.175652     1.164473     1.153293     1.142114     1.130934
      1.119755     1.108575     1.097396     1.086216     1.075037     1.063858     1.052678     1.041499     1.030319     1.019140
      1.007960     0.996781     0.985601     0.974422     0.963243     0.952063     0.940884     0.929704     0.918525     0.907345
      0.896166     0.884986     0.873807     0.862628     0.851448     0.840269     0.829089     0.817910     0.806730     0.795551
      0.784371     0.773192     0.762012     0.750833     0.739654     0.728474     0.717295     0.706115     0.694936     0.683756
      0.672577     0.661397     0.650218     0.639039     0.627859     0.616680     0.605500     0.594321     0.583141     0.571962
      0.560782     0.549603     0.538424     0.527244     0.516065     0.504885     0.493706     0.482526     0.471347     0.460167
      0.448988     0.437809     0.426629     0.415450     0.404270     0.393091     0.381911     0.370732     0.359552     0.348373
      0.337193     0.326014     0.314835     0.303655     0.292476     0.281296     0.270117     0.258937     0.247758     0.236578
      0.225399     0.214220     0.203040
 NY phased data points follow
   1.11446E-08  1.50287E-08  1.54025E-08  1.63922E-08  1.47919E-08  1.42755E-08  1.26014E-08  1.25835E-08  1.06178E-08  1.17177E-08
   1.01811E-08  1.16452E-08  1.05639E-08  1.18600E-08  1.14294E-08  1.34875E-08  1.23509E-08  1.34977E-08  1.23555E-08  1.29264E-08
   1.20959E-08  1.25468E-08  1.09173E-08  1.17357E-08  1.11340E-08  1.21372E-08  1.23074E-08  1.35415E-08  1.15701E-08  1.18980E-08
   1.06716E-08  1.22871E-08  1.21733E-08  1.49157E-08  1.48414E-08  1.55732E-08  1.36844E-08  1.33840E-08  1.10789E-08  1.08584E-08
   1.02220E-08  9.94166E-09  9.97258E-09  9.78029E-09  8.50727E-09  9.25662E-09  7.93887E-09  8.14361E-09  7.10445E-09  6.92277E-09
   6.79031E-09  7.50766E-09  7.26894E-09  8.18118E-09  6.75055E-09  7.18718E-09  5.92566E-09  6.06428E-09  5.92028E-09  6.65023E-09
   6.55694E-09  7.39114E-09  7.72869E-09  1.13429E-08  1.28885E-08  1.49281E-08  1.40050E-08  1.31758E-08  1.03840E-08  1.00337E-08
   8.86075E-09  8.59828E-09  6.82823E-09  7.44724E-09  6.41524E-09  6.03684E-09  5.72633E-09  6.09170E-09  6.30068E-09  1.00150E-08
   1.33051E-08  1.64450E-08  1.68061E-08  1.63854E-08  1.44170E-08  1.32918E-08  1.22501E-08  1.21424E-08  1.09762E-08  1.13887E-08
   1.05009E-08  1.00882E-08  9.30584E-09  9.42213E-09  8.32521E-09  8.34901E-09  6.92390E-09  7.63680E-09  6.85395E-09  6.32959E-09
   6.69263E-09  6.50806E-09  6.19097E-09  7.01940E-09  6.70880E-09  6.56137E-09  6.02718E-09  6.65910E-09  5.40164E-09  5.67221E-09
   4.76526E-09  4.29788E-09  3.42270E-09  4.19688E-09  5.04723E-09  5.15186E-09  4.83657E-09  5.22335E-09  4.67138E-09  5.35782E-09
   5.02877E-09  4.97426E-09  4.66301E-09  4.80537E-09  3.87438E-09  3.25637E-09  2.95693E-09  2.80964E-09  2.50689E-09  3.45312E-09
   3.49188E-09  3.43156E-09  3.13002E-09  3.40371E-09  3.42801E-09  3.61578E-09  2.95727E-09  3.09874E-09  2.20476E-09  3.20411E-09
   4.20706E-09  5.04909E-09  4.91944E-09  4.73935E-09  4.73544E-09  4.73473E-09  5.62682E-09  5.42335E-09  5.46476E-09  6.17287E-09
   5.21182E-09  5.75144E-09  5.84678E-09  5.67521E-09  5.34717E-09  5.52124E-09  5.76022E-09  5.96007E-09  5.67646E-09  6.15955E-09
   5.92239E-09  6.81347E-09  6.80039E-09  6.92105E-09  6.90881E-09  7.42757E-09  6.84230E-09  8.45234E-09  9.64429E-09  1.15033E-08
   1.47314E-08  1.78583E-08  2.04925E-08  2.00273E-08  1.69463E-08  1.40291E-08  1.19950E-08  1.03270E-08  9.36611E-09  8.20140E-09
   7.10375E-09  6.90226E-09  5.70722E-09  5.00074E-09  4.09996E-09  3.56197E-09  2.13886E-09  1.80783E-09  4.91451E-10  1.08684E-10
  -1.62430E-09 -2.78977E-09 -4.31020E-09 -5.17833E-09 -6.62864E-09 -8.47080E-09 -9.87252E-09 -1.18862E-08 -1.33380E-08 -1.50269E-08
  -1.67058E-08 -1.78722E-08 -1.86033E-08 -1.94914E-08 -1.94087E-08 -1.98429E-08 -1.91573E-08 -1.81001E-08 -1.64689E-08 -1.51918E-08
  -1.29744E-08 -1.12623E-08 -9.13409E-09 -6.96243E-09 -4.78793E-09 -2.97798E-09 -1.97385E-09 -6.62469E-10  3.87764E-10  6.01835E-10
   7.45420E-10  1.89792E-10 -3.49081E-10  3.21279E-10 -9.25574E-10 -9.38971E-10 -1.45258E-09 -8.93092E-10 -3.22218E-10 -6.03126E-11
  -3.21665E-10 -2.88103E-10  1.04569E-10 -2.50709E-10 -1.70199E-09 -6.75680E-10 -8.39425E-10 -8.21645E-10 -8.69797E-10 -1.15624E-10
  -1.33624E-10  1.86979E-10  2.28564E-12 -5.48041E-10 -2.14110E-10 -3.00923E-10 -9.21137E-10 -5.04104E-10 -6.60569E-10 -4.73634E-10
  -5.70434E-10  1.89992E-11  2.52705E-11  2.29726E-11  2.14546E-10  5.80928E-10  2.82779E-10  6.22412E-10 -5.93238E-11  2.75276E-10
  -9.62141E-10 -3.94987E-10 -1.00964E-09 -8.42233E-10 -1.26174E-09 -2.83860E-10 -5.39322E-10 -3.88507E-10  1.72210E-10  8.11393E-10
   4.21811E-10  4.02719E-10  5.83342E-10  1.39347E-09  5.05416E-10  9.73456E-10  8.37252E-10  4.70021E-10  2.89745E-10  5.66000E-10
   1.67243E-11 -2.06464E-10 -2.63593E-10 -4.70160E-11  1.49029E-10  3.86455E-10 -8.63311E-10 -1.12952E-10 -2.37869E-10 -4.13493E-11
   1.30970E-10  1.57395E-10 -9.37099E-11 -1.36473E-10  9.29798E-11  4.19244E-11  3.18326E-10 -2.46982E-10  3.24182E-10 -7.64615E-11
  -4.27018E-10  1.60236E-11 -1.50725E-10  1.35571E-10  2.93848E-10  2.40125E-10 -7.46017E-11  5.22196E-10 -4.55553E-10  1.38605E-10
   2.16542E-11  4.49465E-10  1.40362E-10  5.99178E-10  3.11459E-13  5.25682E-10  4.54259E-10  5.34620E-10  3.57643E-10  5.49120E-10
   4.13530E-10  5.64097E-10  3.52995E-10  5.01638E-10  8.33615E-11  6.83615E-10  6.77710E-10  6.34845E-10  9.16207E-11  6.86501E-10
   9.60400E-10  7.42034E-10  6.21410E-10  1.01298E-09  1.19077E-09  9.36576E-10  3.17468E-10  6.89471E-10  4.48759E-10  1.00172E-09
   8.33431E-10  1.15072E-09  1.03113E-09  1.30056E-09  1.10076E-09  8.75878E-10  8.89861E-10  8.39048E-10  8.84864E-10  1.52055E-09
   6.81779E-10  1.74244E-09  1.08117E-09  9.17993E-10  1.29733E-09  1.28156E-09  7.36205E-10  1.62106E-09  1.18273E-09  1.76835E-09
   1.55849E-09  1.21729E-09  1.28624E-09
 NY points of the fit to the data follow
   1.43338E-08  1.43123E-08  1.40948E-08  1.39680E-08  1.37187E-08  1.32660E-08  1.26344E-08  1.20017E-08  1.16240E-08  1.12027E-08
   1.10250E-08  1.10177E-08  1.11144E-08  1.13690E-08  1.17769E-08  1.22563E-08  1.28070E-08  1.34248E-08  1.37926E-08  1.37546E-08
   1.35243E-08  1.30324E-08  1.23547E-08  1.19056E-08  1.15974E-08  1.12722E-08  1.11900E-08  1.15774E-08  1.20781E-08  1.25703E-08
   1.26867E-08  1.27499E-08  1.31867E-08  1.33041E-08  1.29294E-08  1.30256E-08  1.33494E-08  1.33607E-08  1.28803E-08  1.20554E-08
   1.12118E-08  1.05974E-08  9.36747E-09  8.12493E-09  7.88288E-09  7.70647E-09  7.29014E-09  7.21918E-09  7.31231E-09  7.40411E-09
   7.50400E-09  7.57660E-09  7.64329E-09  7.59671E-09  7.43044E-09  7.26898E-09  7.15686E-09  7.22551E-09  7.28361E-09  7.29283E-09
   7.47639E-09  7.92921E-09  8.51360E-09  9.10923E-09  1.01636E-08  1.11995E-08  1.17925E-08  1.21593E-08  1.23561E-08  1.22252E-08
   1.17596E-08  1.08793E-08  9.80009E-09  9.02116E-09  8.24368E-09  7.18945E-09  7.06944E-09  8.23926E-09  9.49169E-09  1.10301E-08
   1.27587E-08  1.41819E-08  1.50995E-08  1.53191E-08  1.48186E-08  1.41412E-08  1.33441E-08  1.18945E-08  9.98364E-09  9.41719E-09
   9.20556E-09  9.14807E-09  8.98016E-09  8.36741E-09  7.88344E-09  7.64638E-09  7.07657E-09  6.54886E-09  6.31173E-09  6.09163E-09
   5.96474E-09  5.91573E-09  5.92758E-09  6.02142E-09  6.11289E-09  6.16535E-09  6.17568E-09  6.15132E-09  6.08205E-09  5.93580E-09
   5.71087E-09  5.49488E-09  5.39693E-09  5.24183E-09  5.05467E-09  4.97784E-09  4.93358E-09  4.90150E-09  4.87504E-09  4.85132E-09
   4.82890E-09  4.80695E-09  4.78487E-09  4.76225E-09  4.73881E-09  4.71433E-09  4.68860E-09  4.66149E-09  4.63288E-09  4.60265E-09
   4.57068E-09  4.53689E-09  4.50120E-09  4.46352E-09  4.42380E-09  4.38195E-09  4.33793E-09  4.29166E-09  4.24310E-09  4.19221E-09
   4.13891E-09  4.08320E-09  4.02501E-09  3.96429E-09  3.90101E-09  3.83514E-09  3.76669E-09  3.69566E-09  3.62207E-09  3.54597E-09
   3.46746E-09  3.38666E-09  3.30378E-09  3.21907E-09  3.13291E-09  3.04582E-09  2.95854E-09  2.87211E-09  2.78807E-09  2.70868E-09
   2.63749E-09  2.58025E-09  2.54704E-09  2.55708E-09  2.65306E-09  2.95529E-09  3.97191E-09  6.63529E-09  9.96024E-09  1.34322E-08
   1.68071E-08  1.94406E-08  2.05356E-08  1.97827E-08  1.77039E-08  1.50282E-08  1.17133E-08  7.18258E-09  2.37924E-09  2.75560E-10
  -5.05217E-10 -9.58740E-10 -1.29128E-09 -1.56541E-09 -1.80617E-09 -2.02536E-09 -2.22904E-09 -2.42055E-09 -2.60172E-09 -2.77359E-09
  -2.93667E-09 -3.09117E-09 -3.23709E-09 -3.37426E-09 -3.50247E-09 -3.62142E-09 -3.73090E-09 -3.83110E-09 -3.92232E-09 -4.00479E-09
  -4.07876E-09 -4.14446E-09 -4.20210E-09 -4.25190E-09 -4.29406E-09 -4.32878E-09 -4.35626E-09 -4.37670E-09 -4.39028E-09 -4.39719E-09
  -4.39764E-09 -4.39179E-09 -4.37984E-09 -4.36198E-09 -4.33839E-09 -4.30925E-09 -4.27475E-09 -4.23506E-09 -4.19038E-09 -4.14088E-09
  -4.08675E-09 -4.02816E-09 -3.96530E-09 -3.89836E-09 -3.82752E-09 -3.75305E-09 -3.67517E-09 -3.59413E-09 -3.51019E-09 -3.42360E-09
  -3.33459E-09 -3.24342E-09 -3.15033E-09 -3.05558E-09 -2.95938E-09 -2.86202E-09 -2.76372E-09 -2.66475E-09 -2.56531E-09 -2.46571E-09
  -2.36615E-09 -2.26689E-09 -2.16818E-09 -2.07027E-09 -1.97339E-09 -1.87779E-09 -1.78373E-09 -1.69145E-09 -1.60119E-09 -1.51321E-09
  -1.42774E-09 -1.34504E-09 -1.26522E-09 -1.18822E-09 -1.11399E-09 -1.04246E-09 -9.73561E-10 -9.07243E-10 -8.43430E-10 -7.82064E-10
  -7.23084E-10 -6.66416E-10 -6.12009E-10 -5.59788E-10 -5.09700E-10 -4.61676E-10 -4.15637E-10 -3.71553E-10 -3.29343E-10 -2.88935E-10
  -2.50268E-10 -2.13293E-10 -1.77927E-10 -1.44114E-10 -1.11803E-10 -8.09021E-11 -5.13788E-11 -2.31501E-11  3.83799E-12  2.96609E-11
   5.43632E-11  7.79899E-11  1.00589E-10  1.22206E-10  1.42880E-10  1.62662E-10  1.81591E-10  1.99718E-10  2.17085E-10  2.33734E-10
   2.49714E-10  2.65068E-10  2.79841E-10  2.94077E-10  3.07821E-10  3.21120E-10  3.34016E-10  3.46555E-10  3.58778E-10  3.70740E-10
   3.82473E-10  3.94031E-10  4.05456E-10  4.16788E-10  4.28078E-10  4.39370E-10  4.50705E-10  4.62132E-10  4.73662E-10  4.85301E-10
   4.97051E-10  5.08914E-10  5.20893E-10  5.32990E-10  5.45209E-10  5.57550E-10  5.70017E-10  5.82613E-10  5.95339E-10  6.08200E-10
   6.21195E-10  6.34329E-10  6.47605E-10  6.61022E-10  6.74587E-10  6.88299E-10  7.02161E-10  7.16178E-10  7.30350E-10  7.44679E-10
   7.59170E-10  7.73824E-10  7.88644E-10  8.03631E-10  8.18789E-10  8.34120E-10  8.49617E-10  8.65274E-10  8.81082E-10  8.97035E-10
   9.13124E-10  9.29342E-10  9.45681E-10  9.62134E-10  9.78693E-10  9.95350E-10  1.01210E-09  1.02893E-09  1.04583E-09  1.06281E-09
   1.07984E-09  1.09692E-09  1.11405E-09  1.13122E-09  1.14842E-09  1.16563E-09  1.18287E-09  1.20010E-09  1.21734E-09  1.23457E-09
   1.25178E-09  1.26897E-09  1.28612E-09
 NY background values follow
     2.933E-09    2.936E-09    2.939E-09    2.942E-09    2.945E-09    2.949E-09    2.952E-09    2.955E-09    2.959E-09    2.962E-09
     2.966E-09    2.970E-09    2.973E-09    2.977E-09    2.981E-09    2.985E-09    2.989E-09    2.993E-09    2.997E-09    3.001E-09
     3.006E-09    3.010E-09    3.015E-09    3.020E-09    3.024E-09    3.029E-09    3.035E-09    3.040E-09    3.045E-09    3.051E-09
     3.056E-09    3.062E-09    3.068E-09    3.074E-09    3.081E-09    3.087E-09    3.094E-09    3.101E-09    3.108E-09    3.116E-09
     3.124E-09    3.132E-09    3.140E-09    3.149E-09    3.158E-09    3.168E-09    3.177E-09    3.187E-09    3.198E-09    3.209E-09
     3.220E-09    3.232E-09    3.244E-09    3.257E-09    3.270E-09    3.283E-09    3.297E-09    3.312E-09    3.327E-09    3.342E-09
     3.358E-09    3.374E-09    3.390E-09    3.407E-09    3.424E-09    3.442E-09    3.459E-09    3.477E-09    3.495E-09    3.513E-09
     3.531E-09    3.550E-09    3.568E-09    3.587E-09    3.605E-09    3.624E-09    3.642E-09    3.661E-09    3.679E-09    3.698E-09
     3.716E-09    3.734E-09    3.751E-09    3.769E-09    3.786E-09    3.803E-09    3.820E-09    3.837E-09    3.853E-09    3.869E-09
     3.884E-09    3.899E-09    3.913E-09    3.927E-09    3.940E-09    3.953E-09    3.965E-09    3.976E-09    3.987E-09    3.997E-09
     4.007E-09    4.015E-09    4.023E-09    4.030E-09    4.036E-09    4.042E-09    4.046E-09    4.049E-09    4.052E-09    4.053E-09
     4.054E-09    4.053E-09    4.051E-09    4.048E-09    4.044E-09    4.039E-09    4.032E-09    4.024E-09    4.015E-09    4.004E-09
     3.991E-09    3.977E-09    3.961E-09    3.943E-09    3.924E-09    3.902E-09    3.879E-09    3.854E-09    3.827E-09    3.797E-09
     3.766E-09    3.732E-09    3.696E-09    3.657E-09    3.616E-09    3.573E-09    3.527E-09    3.479E-09    3.428E-09    3.374E-09
     3.317E-09    3.258E-09    3.195E-09    3.130E-09    3.062E-09    2.990E-09    2.915E-09    2.837E-09    2.755E-09    2.670E-09
     2.581E-09    2.488E-09    2.392E-09    2.292E-09    2.188E-09    2.080E-09    1.967E-09    1.851E-09    1.730E-09    1.605E-09
     1.476E-09    1.342E-09    1.204E-09    1.060E-09    9.124E-10    7.596E-10    6.019E-10    4.391E-10    2.713E-10    9.887E-11
    -7.769E-11   -2.579E-10   -4.412E-10   -6.271E-10   -8.152E-10   -1.005E-09   -1.196E-09   -1.387E-09   -1.578E-09   -1.769E-09
    -1.960E-09   -2.148E-09   -2.335E-09   -2.519E-09   -2.701E-09   -2.879E-09   -3.053E-09   -3.223E-09   -3.387E-09   -3.546E-09
    -3.700E-09   -3.846E-09   -3.986E-09   -4.118E-09   -4.243E-09   -4.358E-09   -4.465E-09   -4.564E-09   -4.653E-09   -4.734E-09
    -4.807E-09   -4.872E-09   -4.929E-09   -4.979E-09   -5.021E-09   -5.055E-09   -5.083E-09   -5.103E-09   -5.117E-09   -5.124E-09
    -5.125E-09   -5.119E-09   -5.107E-09   -5.090E-09   -5.066E-09   -5.038E-09   -5.003E-09   -4.964E-09   -4.920E-09   -4.871E-09
    -4.817E-09   -4.759E-09   -4.696E-09   -4.630E-09   -4.559E-09   -4.485E-09   -4.408E-09   -4.327E-09   -4.244E-09   -4.158E-09
    -4.069E-09   -3.978E-09   -3.885E-09   -3.791E-09   -3.695E-09   -3.598E-09   -3.500E-09   -3.402E-09   -3.303E-09   -3.204E-09
    -3.104E-09   -3.005E-09   -2.907E-09   -2.810E-09   -2.713E-09   -2.618E-09   -2.524E-09   -2.432E-09   -2.342E-09   -2.254E-09
    -2.169E-09   -2.087E-09   -2.007E-09   -1.931E-09   -1.857E-09   -1.785E-09   -1.717E-09   -1.651E-09   -1.587E-09   -1.526E-09
    -1.467E-09   -1.411E-09   -1.357E-09   -1.305E-09   -1.255E-09   -1.207E-09   -1.161E-09   -1.118E-09   -1.076E-09   -1.035E-09
    -9.969E-10   -9.601E-10   -9.249E-10   -8.913E-10   -8.592E-10   -8.285E-10   -7.991E-10   -7.710E-10   -7.442E-10   -7.186E-10
    -6.940E-10   -6.705E-10   -6.481E-10   -6.266E-10   -6.060E-10   -5.864E-10   -5.676E-10   -5.496E-10   -5.323E-10   -5.158E-10
    -4.999E-10   -4.846E-10   -4.700E-10   -4.558E-10   -4.422E-10   -4.289E-10   -4.161E-10   -4.036E-10   -3.915E-10   -3.796E-10
    -3.679E-10   -3.564E-10   -3.450E-10   -3.337E-10   -3.225E-10   -3.112E-10   -2.999E-10   -2.885E-10   -2.770E-10   -2.654E-10
    -2.537E-10   -2.418E-10   -2.298E-10   -2.177E-10   -2.055E-10   -1.932E-10   -1.807E-10   -1.681E-10   -1.553E-10   -1.424E-10
    -1.294E-10   -1.162E-10   -1.029E-10   -8.947E-11   -7.586E-11   -6.210E-11   -4.818E-11   -3.410E-11   -1.987E-11   -5.468E-12
     9.095E-12    2.383E-11    3.873E-11    5.380E-11    6.905E-11    8.447E-11    1.001E-10    1.158E-10    1.317E-10    1.478E-10
     1.640E-10    1.803E-10    1.968E-10    2.134E-10    2.301E-10    2.469E-10    2.638E-10    2.807E-10    2.978E-10    3.149E-10
     3.321E-10    3.493E-10    3.666E-10    3.840E-10    4.013E-10    4.187E-10    4.362E-10    4.536E-10    4.710E-10    4.884E-10
     5.058E-10    5.232E-10    5.406E-10
 Ala      Conc. = 2.37E-10
   3.11508E-09  3.13442E-09  3.14713E-09  3.15467E-09  3.15759E-09  3.15785E-09  3.14944E-09  3.12506E-09  3.10905E-09  3.10266E-09
   3.07587E-09  3.05346E-09  3.04773E-09  3.03773E-09  3.02870E-09  3.02519E-09  3.02442E-09  3.02523E-09  3.02704E-09  3.02954E-09
   3.03256E-09  3.03598E-09  3.03974E-09  3.04378E-09  3.04806E-09  3.05257E-09  3.05728E-09  3.06219E-09  3.06729E-09  3.07257E-09
   3.07804E-09  3.08370E-09  3.08957E-09  3.09565E-09  3.10196E-09  3.10849E-09  3.11527E-09  3.12230E-09  3.12960E-09  3.13717E-09
   3.14503E-09  3.15319E-09  3.16166E-09  3.17045E-09  3.17959E-09  3.18906E-09  3.19890E-09  3.20912E-09  3.21971E-09  3.23071E-09
   3.24213E-09  3.25395E-09  3.26622E-09  3.27894E-09  3.29215E-09  3.30580E-09  3.31993E-09  3.33456E-09  3.34966E-09  3.36519E-09
   3.38113E-09  3.39746E-09  3.41416E-09  3.43118E-09  3.44851E-09  3.46612E-09  3.48399E-09  3.50210E-09  3.52041E-09  3.53890E-09
   3.55755E-09  3.57634E-09  3.59523E-09  3.61422E-09  3.63326E-09  3.65236E-09  3.67147E-09  3.69058E-09  3.70967E-09  3.72873E-09
   3.74773E-09  3.76667E-09  3.78551E-09  3.80428E-09  3.82295E-09  3.84153E-09  3.86002E-09  3.87844E-09  3.89682E-09  3.91520E-09
   3.93366E-09  3.95232E-09  3.97135E-09  3.99104E-09  4.01183E-09  4.03446E-09  4.06029E-09  4.09203E-09  4.13610E-09  4.21302E-09
   4.35243E-09  4.48291E-09  4.62268E-09  4.81196E-09  4.97705E-09  5.08798E-09  5.14550E-09  5.15976E-09  5.12241E-09  5.00269E-09
   4.80022E-09  4.60346E-09  4.52196E-09  4.38098E-09  4.20590E-09  4.13924E-09  4.10377E-09  4.07929E-09  4.05938E-09  4.04131E-09
   4.02372E-09  4.00583E-09  3.98716E-09  3.96739E-09  3.94627E-09  3.92363E-09  3.89932E-09  3.87323E-09  3.84526E-09  3.81530E-09
   3.78327E-09  3.74910E-09  3.71271E-09  3.67402E-09  3.63298E-09  3.58950E-09  3.54352E-09  3.49500E-09  3.44385E-09  3.39001E-09
   3.33339E-09  3.27397E-09  3.21163E-09  3.14630E-09  3.07789E-09  3.00632E-09  2.93150E-09  2.85336E-09  2.77181E-09  2.68676E-09
   2.59816E-09  2.50591E-09  2.40993E-09  2.31016E-09  2.20652E-09  2.09895E-09  1.98738E-09  1.87175E-09  1.75203E-09  1.62819E-09
   1.50024E-09  1.36826E-09  1.23244E-09  1.09319E-09  9.51608E-10  8.10889E-10  6.85194E-10  6.06072E-10  5.31636E-10  4.55707E-10
   3.73012E-10  2.64616E-10  1.08900E-10 -9.98267E-11 -3.42895E-10 -5.99110E-10 -8.73438E-10 -1.18498E-09 -1.50312E-09 -1.72701E-09
  -1.92895E-09 -2.12345E-09 -2.31357E-09 -2.50004E-09 -2.68288E-09 -2.86187E-09 -3.03664E-09 -3.20679E-09 -3.37183E-09 -3.53133E-09
  -3.68480E-09 -3.83175E-09 -3.97169E-09 -4.10410E-09 -4.22851E-09 -4.34441E-09 -4.45144E-09 -4.54969E-09 -4.63935E-09 -4.72060E-09
  -4.79361E-09 -4.85857E-09 -4.91567E-09 -4.96507E-09 -5.00697E-09 -5.04153E-09 -5.06895E-09 -5.08940E-09 -5.10307E-09 -5.11012E-09
  -5.11075E-09 -5.10513E-09 -5.09344E-09 -5.07587E-09 -5.05259E-09 -5.02378E-09 -4.98963E-09 -4.95031E-09 -4.90600E-09 -4.85688E-09
  -4.80314E-09 -4.74495E-09 -4.68249E-09 -4.61595E-09 -4.54552E-09 -4.47145E-09 -4.39398E-09 -4.31335E-09 -4.22981E-09 -4.14362E-09
  -4.05502E-09 -3.96424E-09 -3.87155E-09 -3.77718E-09 -3.68137E-09 -3.58439E-09 -3.48647E-09 -3.38787E-09 -3.28880E-09 -3.18956E-09
  -3.09036E-09 -2.99145E-09 -2.89309E-09 -2.79552E-09 -2.69898E-09 -2.60371E-09 -2.50998E-09 -2.41801E-09 -2.32807E-09 -2.24041E-09
  -2.15524E-09 -2.07284E-09 -1.99331E-09 -1.91660E-09 -1.84265E-09 -1.77140E-09 -1.70277E-09 -1.63672E-09 -1.57317E-09 -1.51206E-09
  -1.45333E-09 -1.39690E-09 -1.34274E-09 -1.29075E-09 -1.24089E-09 -1.19309E-09 -1.14727E-09 -1.10340E-09 -1.06140E-09 -1.02119E-09
  -9.82724E-10 -9.45941E-10 -9.10762E-10 -8.77132E-10 -8.44999E-10 -8.14271E-10 -7.84915E-10 -7.56849E-10 -7.30018E-10 -7.04348E-10
  -6.79794E-10 -6.56310E-10 -6.33850E-10 -6.12366E-10 -5.91821E-10 -5.72163E-10 -5.53353E-10 -5.35341E-10 -5.18084E-10 -5.01541E-10
  -4.85662E-10 -4.70405E-10 -4.55724E-10 -4.41575E-10 -4.27914E-10 -4.14694E-10 -4.01872E-10 -3.89403E-10 -3.77245E-10 -3.65344E-10
  -3.53667E-10 -3.42162E-10 -3.30783E-10 -3.19495E-10 -3.08244E-10 -2.96986E-10 -2.85682E-10 -2.74281E-10 -2.62772E-10 -2.51150E-10
  -2.39413E-10 -2.27559E-10 -2.15585E-10 -2.03488E-10 -1.91266E-10 -1.78916E-10 -1.66437E-10 -1.53824E-10 -1.41077E-10 -1.28192E-10
  -1.15168E-10 -1.02001E-10 -8.86882E-11 -7.52295E-11 -6.16194E-11 -4.78583E-11 -3.39417E-11 -1.98671E-11 -5.63300E-12  8.76214E-12
   2.33239E-11  3.80523E-11  5.29510E-11  6.80212E-11  8.32658E-11  9.86880E-11  1.14281E-10  1.30037E-10  1.45949E-10  1.62009E-10
   1.78210E-10  1.94544E-10  2.11003E-10  2.27580E-10  2.44267E-10  2.61057E-10  2.77940E-10  2.94911E-10  3.11961E-10  3.29083E-10
   3.46270E-10  3.63513E-10  3.80805E-10  3.98138E-10  4.15504E-10  4.32897E-10  4.50307E-10  4.67729E-10  4.85153E-10  5.02573E-10
   5.19980E-10  5.37367E-10  5.54728E-10
 Asp      Conc. = 9.57E-10
   4.06582E-09  3.91430E-09  3.75774E-09  3.60587E-09  3.47907E-09  3.33878E-09  3.23354E-09  3.13149E-09  3.09047E-09  3.07149E-09
   3.06242E-09  3.05868E-09  3.05841E-09  3.06068E-09  3.06405E-09  3.06789E-09  3.07238E-09  3.07748E-09  3.08314E-09  3.08931E-09
   3.09599E-09  3.10319E-09  3.11092E-09  3.11923E-09  3.12816E-09  3.13781E-09  3.14826E-09  3.15967E-09  3.17220E-09  3.18612E-09
   3.20178E-09  3.21970E-09  3.24064E-09  3.26584E-09  3.29753E-09  3.34032E-09  3.40534E-09  3.48049E-09  3.57382E-09  3.65787E-09
   3.72438E-09  3.77167E-09  3.81136E-09  3.88332E-09  3.98594E-09  4.18192E-09  4.37502E-09  4.54241E-09  4.72771E-09  4.86025E-09
   4.93543E-09  4.93329E-09  4.86741E-09  4.71967E-09  4.48508E-09  4.25371E-09  4.02945E-09  3.99459E-09  3.94980E-09  3.84660E-09
   3.79784E-09  3.78169E-09  3.74754E-09  3.73107E-09  3.74095E-09  3.72777E-09  3.67244E-09  3.64752E-09  3.63883E-09  3.63855E-09
   3.64328E-09  3.65131E-09  3.66163E-09  3.67360E-09  3.68679E-09  3.70091E-09  3.71572E-09  3.73105E-09  3.74677E-09  3.76277E-09
   3.77894E-09  3.79522E-09  3.81153E-09  3.82783E-09  3.84403E-09  3.86011E-09  3.87601E-09  3.89169E-09  3.90710E-09  3.92219E-09
   3.93695E-09  3.95130E-09  3.96523E-09  3.97870E-09  3.99167E-09  4.00409E-09  4.01595E-09  4.02721E-09  4.03783E-09  4.04779E-09
   4.05703E-09  4.06554E-09  4.07328E-09  4.08022E-09  4.08633E-09  4.09157E-09  4.09592E-09  4.09933E-09  4.10179E-09  4.10326E-09
   4.10371E-09  4.10310E-09  4.10140E-09  4.09857E-09  4.09456E-09  4.08928E-09  4.08269E-09  4.07473E-09  4.06533E-09  4.05443E-09
   4.04198E-09  4.02791E-09  4.01216E-09  3.99468E-09  3.97540E-09  3.95427E-09  3.93122E-09  3.90619E-09  3.87914E-09  3.84999E-09
   3.81868E-09  3.78516E-09  3.74937E-09  3.71124E-09  3.67073E-09  3.62776E-09  3.58229E-09  3.53426E-09  3.48361E-09  3.43028E-09
   3.37418E-09  3.31530E-09  3.25353E-09  3.18879E-09  3.12101E-09  3.05011E-09  2.97602E-09  2.89867E-09  2.81798E-09  2.73389E-09
   2.64634E-09  2.55526E-09  2.46061E-09  2.36234E-09  2.26042E-09  2.15482E-09  2.04557E-09  1.93269E-09  1.81628E-09  1.69650E-09
   1.57363E-09  1.44820E-09  1.32114E-09  1.19419E-09  1.07123E-09  9.62369E-10  9.05428E-10  1.05498E-09  1.25908E-09  1.47271E-09
   1.67879E-09  1.80782E-09  1.76756E-09  1.51715E-09  1.11766E-09  6.62732E-10  1.51786E-10 -5.00492E-10 -1.24020E-09 -1.61314E-09
  -1.85906E-09 -2.07252E-09 -2.27256E-09 -2.46481E-09 -2.65124E-09 -2.83257E-09 -3.00891E-09 -3.18013E-09 -3.34591E-09 -3.50591E-09
  -3.65972E-09 -3.80690E-09 -3.94698E-09 -4.07948E-09 -4.20392E-09 -4.31982E-09 -4.42683E-09 -4.52503E-09 -4.61463E-09 -4.69581E-09
  -4.76875E-09 -4.83363E-09 -4.89064E-09 -4.93995E-09 -4.98176E-09 -5.01624E-09 -5.04356E-09 -5.06393E-09 -5.07750E-09 -5.08447E-09
  -5.08501E-09 -5.07931E-09 -5.06753E-09 -5.04988E-09 -5.02652E-09 -4.99763E-09 -4.96340E-09 -4.92400E-09 -4.87962E-09 -4.83043E-09
  -4.77662E-09 -4.71836E-09 -4.65584E-09 -4.58923E-09 -4.51874E-09 -4.44460E-09 -4.36707E-09 -4.28638E-09 -4.20279E-09 -4.11654E-09
