 LCModel (Version 6.3-1R) Copyright: S.W. Provencher.          Ref.: Magn. Reson. Med. 30:672-679 (1993).                
 onepulse 24x28_ftSpec_smooth_lcm
 26 lines in following concentration table = NCONC+1
    Conc.  %SD /Cr+PCr  Metabolite                                         
    0.000 999%   0.000 Ala                                                 
 4.16E-10 199%   1.102 Asp                                                 
    0.000 999%   0.000 Cr                                                  
 4.44E-10 163%   1.176 GABA                                                
    0.000 999%   0.000 Glc                                                 
 1.97E-09  37%   5.201 Gln                                                 
    0.000 999%   0.000 Glu                                                 
    0.000 999%   0.000 Glyc                                                
    0.000 999%   0.000 GPC                                                 
    0.000 999%   0.000 GSH                                                 
 1.63E-09  22%   4.325 Ins                                                 
    0.000 999%   0.000 Lac                                                 
 1.17E-10 355%   0.311 NAAG                                                
 6.69E-10  79%   1.769 NAA                                                 
 2.29E-10  41%   0.606 PCh                                                 
 3.78E-10 101%   1.000 PCr                                                 
    0.000 999%   0.000 PE                                                  
 3.49E-10  40%   0.923 Scyllo                                              
 3.10E-09  25%   8.194 Ser                                                 
    0.000 999%   0.000 Tau                                                 
 2.29E-10  41%   0.606 GPC+PCh                                             
 7.86E-10  41%   2.080 NAA+NAAG                                            
 1.63E-09  22%   4.325 Ins+Glyc                                            
 3.78E-10 101%   1.000 Cr+PCr                                              
 1.97E-09  37%   5.201 Glu+Gln                                             
   6 lines in following misc. output table
  FWHM = 0.089 ppm    S/N =   3                                            
  Data shift = 0.347 ppm                                                   
  Ph: -44 deg     -27.9 deg/ppm                                            
  alphaB,S = 1.7E-01,   4.5E+01                                            
   16 spline knots.   Ns = 5(1)                                            
  (11) 4 infls.   (11) 1 extrs.                                            
  363 points on ppm-axis = NY
      4.250000     4.238821     4.227641     4.216462     4.205282     4.194103     4.182923     4.171744     4.160564     4.149385
      4.138206     4.127026     4.115847     4.104667     4.093488     4.082308     4.071129     4.059949     4.048770     4.037591
      4.026411     4.015232     4.004052     3.992873     3.981693     3.970514     3.959334     3.948155     3.936975     3.925796
      3.914617     3.903437     3.892258     3.881078     3.869899     3.858719     3.847540     3.836360     3.825181     3.814002
      3.802822     3.791643     3.780463     3.769284     3.758104     3.746925     3.735745     3.724566     3.713387     3.702207
      3.691028     3.679848     3.668669     3.657489     3.646310     3.635130     3.623951     3.612772     3.601592     3.590413
      3.579233     3.568054     3.556874     3.545695     3.534515     3.523336     3.512156     3.500977     3.489798     3.478618
      3.467439     3.456259     3.445080     3.433900     3.422721     3.411541     3.400362     3.389183     3.378003     3.366824
      3.355644     3.344465     3.333285     3.322106     3.310926     3.299747     3.288568     3.277388     3.266209     3.255029
      3.243850     3.232670     3.221491     3.210311     3.199132     3.187953     3.176773     3.165594     3.154414     3.143235
      3.132055     3.120876     3.109696     3.098517     3.087337     3.076158     3.064979     3.053799     3.042620     3.031440
      3.020261     3.009081     2.997902     2.986722     2.975543     2.964364     2.953184     2.942005     2.930825     2.919646
      2.908466     2.897287     2.886107     2.874928     2.863749     2.852569     2.841390     2.830210     2.819031     2.807851
      2.796672     2.785492     2.774313     2.763134     2.751954     2.740775     2.729595     2.718416     2.707236     2.696057
      2.684877     2.673698     2.662519     2.651339     2.640160     2.628980     2.617801     2.606621     2.595442     2.584262
      2.573083     2.561903     2.550724     2.539545     2.528365     2.517186     2.506006     2.494827     2.483647     2.472468
      2.461288     2.450109     2.438930     2.427750     2.416571     2.405391     2.394212     2.383032     2.371853     2.360673
      2.349494     2.338315     2.327135     2.315956     2.304776     2.293597     2.282417     2.271238     2.260058     2.248879
      2.237700     2.226520     2.215341     2.204161     2.192982     2.181802     2.170623     2.159443     2.148264     2.137084
      2.125905     2.114726     2.103546     2.092367     2.081187     2.070008     2.058828     2.047649     2.036469     2.025290
      2.014111     2.002931     1.991752     1.980572     1.969393     1.958213     1.947034     1.935854     1.924675     1.913496
      1.902316     1.891137     1.879957     1.868778     1.857598     1.846419     1.835239     1.824060     1.812881     1.801701
      1.790522     1.779342     1.768163     1.756983     1.745804     1.734624     1.723445     1.712265     1.701086     1.689907
      1.678727     1.667548     1.656368     1.645189     1.634009     1.622830     1.611650     1.600471     1.589292     1.578112
      1.566933     1.555753     1.544574     1.533394     1.522215     1.511035     1.499856     1.488677     1.477497     1.466318
      1.455138     1.443959     1.432779     1.421600     1.410420     1.399241     1.388062     1.376882     1.365703     1.354523
      1.343344     1.332164     1.320985     1.309805     1.298626     1.287446     1.276267     1.265088     1.253908     1.242729
      1.231549     1.220370     1.209190     1.198011     1.186831     1.175652     1.164473     1.153293     1.142114     1.130934
      1.119755     1.108575     1.097396     1.086216     1.075037     1.063858     1.052678     1.041499     1.030319     1.019140
      1.007960     0.996781     0.985601     0.974422     0.963243     0.952063     0.940884     0.929704     0.918525     0.907345
      0.896166     0.884986     0.873807     0.862628     0.851448     0.840269     0.829089     0.817910     0.806730     0.795551
      0.784371     0.773192     0.762012     0.750833     0.739654     0.728474     0.717295     0.706115     0.694936     0.683756
      0.672577     0.661397     0.650218     0.639039     0.627859     0.616680     0.605500     0.594321     0.583141     0.571962
      0.560782     0.549603     0.538424     0.527244     0.516065     0.504885     0.493706     0.482526     0.471347     0.460167
      0.448988     0.437809     0.426629     0.415450     0.404270     0.393091     0.381911     0.370732     0.359552     0.348373
      0.337193     0.326014     0.314835     0.303655     0.292476     0.281296     0.270117     0.258937     0.247758     0.236578
      0.225399     0.214220     0.203040
 NY phased data points follow
   1.80027E-08  1.48205E-08  1.40696E-08  1.03316E-08  1.08680E-08  8.77297E-09  1.02936E-08  8.95649E-09  9.87540E-09  8.50238E-09
   1.03271E-08  9.42869E-09  1.09264E-08  1.01110E-08  1.12182E-08  9.92984E-09  1.01214E-08  8.42434E-09  9.84361E-09  7.97408E-09
   9.24580E-09  7.10483E-09  8.39064E-09  7.40765E-09  8.87106E-09  8.61099E-09  9.23248E-09  7.29797E-09  8.10572E-09  7.13331E-09
   8.82623E-09  8.67788E-09  1.08927E-08  9.26674E-09  9.35508E-09  6.50062E-09  6.86440E-09  5.20249E-09  5.92460E-09  4.85995E-09
   5.60835E-09  4.45144E-09  5.14015E-09  4.67407E-09  5.35604E-09  4.66071E-09  4.76255E-09  3.39285E-09  4.67263E-09  3.68244E-09
   4.99907E-09  4.59968E-09  5.35359E-09  4.43424E-09  5.02130E-09  3.57108E-09  4.64170E-09  4.49304E-09  5.72651E-09  5.37330E-09
   6.59557E-09  6.17209E-09  8.52959E-09  9.24149E-09  1.09757E-08  8.48285E-09  8.18922E-09  6.19727E-09  6.12838E-09  4.52077E-09
   5.66924E-09  4.16855E-09  4.79447E-09  3.83972E-09  5.31101E-09  4.27290E-09  5.63008E-09  5.10267E-09  8.61930E-09  1.13455E-08
   1.43256E-08  1.41801E-08  1.33689E-08  9.86379E-09  9.70932E-09  8.37445E-09  8.14550E-09  7.14741E-09  7.03181E-09  6.24943E-09
   6.60965E-09  5.77292E-09  5.58470E-09  4.81081E-09  4.90792E-09  4.10299E-09  4.17571E-09  3.52127E-09  4.34703E-09  3.14379E-09
   3.94675E-09  3.52000E-09  4.67490E-09  3.79031E-09  4.31297E-09  3.68572E-09  3.94115E-09  3.64182E-09  3.36370E-09  1.89178E-09
   2.77989E-09  1.49044E-09  2.07018E-09  2.34985E-09  3.06057E-09  2.74734E-09  3.19313E-09  2.60421E-09  3.32116E-09  2.92010E-09
   3.26002E-09  2.79121E-09  2.74302E-09  1.77703E-09  1.82182E-09  8.84328E-10  1.16799E-09  9.89695E-10  1.55809E-09  1.63589E-09
   2.13788E-09  1.33590E-09  1.85431E-09  1.68729E-09  2.24493E-09  2.64031E-09  2.25742E-09  1.45081E-09  2.71397E-09  3.01887E-09
   4.51763E-09  5.31538E-09  5.87583E-09  4.95162E-09  5.32471E-09  5.52196E-09  7.10212E-09  6.80230E-09  7.03216E-09  6.45750E-09
   6.89900E-09  6.43394E-09  6.94829E-09  6.36456E-09  6.22647E-09  6.37042E-09  6.64159E-09  6.94229E-09  6.19830E-09  6.99455E-09
   6.70182E-09  7.03707E-09  7.26027E-09  7.43141E-09  7.46953E-09  7.24848E-09  7.65381E-09  8.88109E-09  8.66553E-09  9.58159E-09
   1.25221E-08  1.74004E-08  2.05262E-08  1.99960E-08  1.77918E-08  1.60129E-08  1.46077E-08  1.35326E-08  1.29581E-08  1.12598E-08
   1.05974E-08  9.93073E-09  8.94291E-09  8.05151E-09  7.17414E-09  6.04221E-09  5.30787E-09  3.61596E-09  2.04800E-09  5.54794E-10
  -3.69966E-10 -2.41719E-09 -4.27855E-09 -5.82308E-09 -8.18483E-09 -1.03403E-08 -1.19770E-08 -1.39709E-08 -1.61049E-08 -1.71875E-08
  -1.84009E-08 -1.86894E-08 -1.91532E-08 -1.90565E-08 -1.86101E-08 -1.73192E-08 -1.61036E-08 -1.45084E-08 -1.23947E-08 -1.04408E-08
  -8.80144E-09 -6.71617E-09 -5.72832E-09 -4.11563E-09 -2.88974E-09 -1.77927E-09 -1.48477E-09 -1.01405E-09 -1.35120E-09 -1.23574E-09
  -1.89869E-09 -1.39055E-09 -1.85970E-09 -1.69771E-09 -1.73713E-09 -1.36638E-09 -1.54256E-09 -1.12391E-09 -1.54799E-09 -1.59833E-09
  -1.36561E-09 -1.64869E-09 -1.29334E-09 -8.79288E-10 -1.61534E-09 -1.20112E-09 -1.21052E-09 -1.38168E-09 -1.79430E-09 -1.20583E-09
  -1.28310E-09 -6.39229E-10 -5.64481E-10 -9.54896E-10 -1.08673E-09 -1.15173E-09 -1.43086E-09 -1.08666E-09 -1.18951E-09 -9.20857E-10
  -1.20882E-09 -7.21574E-10 -7.57702E-10 -8.18764E-10 -5.80894E-10 -5.01846E-10 -1.81601E-10 -4.85208E-10 -3.92220E-10 -3.42672E-10
  -8.96824E-10 -9.07529E-10 -8.70898E-10 -7.97975E-10 -1.44011E-09 -1.22110E-09 -1.86727E-09 -1.28743E-09 -1.44328E-09 -9.94569E-10
  -1.31581E-09 -3.56586E-10 -8.45081E-10 -2.34982E-10 -1.62167E-10  2.67020E-10  2.64400E-10 -1.52053E-10  4.00702E-11  5.61485E-11
  -4.41426E-10  2.87773E-11 -4.01396E-10  2.27172E-10 -7.41304E-10 -6.77945E-10 -7.58458E-10 -5.57378E-10 -1.20211E-09 -9.41261E-10
  -1.02195E-09 -7.59504E-10 -1.35239E-09 -1.28903E-09 -9.93507E-10 -1.08253E-09 -1.15061E-09 -9.01925E-10 -1.06675E-09 -1.10887E-09
  -1.17725E-09 -1.03866E-09 -1.09252E-09 -1.12454E-09 -7.11483E-10 -1.09835E-09 -1.27597E-09 -4.82235E-10 -1.20663E-09 -9.96862E-10
  -1.48907E-09 -8.03355E-10 -1.16578E-09 -9.87903E-10 -1.69422E-09 -1.12033E-09 -1.60999E-09 -1.21486E-09 -8.40086E-10 -1.46289E-09
  -1.41203E-09 -1.17950E-09 -1.02945E-09 -1.10082E-09 -1.67561E-09 -6.33246E-10 -1.69878E-09 -8.51358E-10 -1.69528E-09 -9.22340E-10
  -1.73018E-09 -1.23376E-09 -1.56872E-09 -1.31885E-09 -1.54966E-09 -1.41159E-09 -1.85277E-09 -1.13296E-09 -1.45090E-09 -1.71949E-09
  -1.89298E-09 -1.36035E-09 -1.97362E-09 -1.36247E-09 -1.88691E-09 -1.57003E-09 -1.74016E-09 -1.62891E-09 -1.73406E-09 -1.55579E-09
  -1.97173E-09 -1.74807E-09 -1.52775E-09 -1.64476E-09 -2.20573E-09 -1.34301E-09 -2.07118E-09 -1.45299E-09 -2.00031E-09 -1.73565E-09
  -2.23619E-09 -1.73156E-09 -2.44502E-09
 NY points of the fit to the data follow
   1.69831E-08  1.50670E-08  1.30071E-08  1.18514E-08  1.14746E-08  1.10115E-08  1.01014E-08  9.25022E-09  8.99496E-09  9.34771E-09
   9.76080E-09  1.00152E-08  1.04543E-08  1.07985E-08  1.08624E-08  1.03460E-08  9.55857E-09  9.40059E-09  9.07028E-09  8.09121E-09
   7.38006E-09  7.37927E-09  7.64745E-09  7.81683E-09  8.23897E-09  8.83870E-09  9.33435E-09  9.35633E-09  8.81119E-09  8.56308E-09
   8.57236E-09  8.62481E-09  8.59791E-09  8.22334E-09  7.46287E-09  6.65905E-09  6.50626E-09  6.41880E-09  6.26975E-09  6.04950E-09
   5.72830E-09  5.21715E-09  4.40603E-09  3.82108E-09  3.72832E-09  3.75313E-09  3.73297E-09  3.76227E-09  3.86405E-09  3.97176E-09
   4.10428E-09  4.24283E-09  4.39006E-09  4.49237E-09  4.62612E-09  4.91116E-09  5.27692E-09  5.77642E-09  6.41460E-09  6.95382E-09
   7.37813E-09  7.75936E-09  8.08023E-09  8.19884E-09  8.11392E-09  7.77461E-09  7.29526E-09  6.88433E-09  6.25994E-09  5.59481E-09
   5.34383E-09  5.24961E-09  5.13313E-09  5.19288E-09  5.45163E-09  5.87216E-09  6.49178E-09  7.63231E-09  8.82426E-09  9.92819E-09
   1.09482E-08  1.16573E-08  1.17944E-08  1.15958E-08  1.11945E-08  1.03714E-08  9.18370E-09  7.72843E-09  6.04443E-09  5.28759E-09
   4.94017E-09  4.74459E-09  4.61639E-09  4.45174E-09  4.29533E-09  4.21732E-09  4.10424E-09  3.97457E-09  3.90224E-09  3.83665E-09
   3.77525E-09  3.73346E-09  3.70238E-09  3.67922E-09  3.66327E-09  3.65283E-09  3.64657E-09  3.64374E-09  3.64371E-09  3.64618E-09
   3.65079E-09  3.65727E-09  3.66544E-09  3.67507E-09  3.68593E-09  3.69779E-09  3.71042E-09  3.72358E-09  3.73709E-09  3.75076E-09
   3.76441E-09  3.77790E-09  3.79105E-09  3.80371E-09  3.81572E-09  3.82694E-09  3.83721E-09  3.84640E-09  3.85437E-09  3.86098E-09
   3.86610E-09  3.86960E-09  3.87134E-09  3.87119E-09  3.86903E-09  3.86473E-09  3.85818E-09  3.84924E-09  3.83780E-09  3.82374E-09
   3.80693E-09  3.78728E-09  3.76467E-09  3.73898E-09  3.71011E-09  3.67795E-09  3.64243E-09  3.60344E-09  3.56093E-09  3.51482E-09
   3.46510E-09  3.41173E-09  3.35475E-09  3.29423E-09  3.23031E-09  3.16320E-09  3.09329E-09  3.02113E-09  2.94761E-09  2.87410E-09
   2.80280E-09  2.73743E-09  2.68454E-09  2.65677E-09  2.68188E-09  2.83516E-09  3.41388E-09  5.51100E-09  8.58586E-09  1.17290E-08
   1.48978E-08  1.77932E-08  1.96785E-08  2.01407E-08  1.95351E-08  1.82840E-08  1.59666E-08  1.16088E-08  5.74365E-09  2.23314E-09
   1.04898E-09  4.13410E-10 -2.51988E-11 -3.70804E-10 -6.64503E-10 -9.25639E-10 -1.16434E-09 -1.38632E-09 -1.59491E-09 -1.79215E-09
  -1.97923E-09 -2.15686E-09 -2.32538E-09 -2.48492E-09 -2.63546E-09 -2.77686E-09 -2.90902E-09 -3.03222E-09 -3.14679E-09 -3.25302E-09
  -3.35116E-09 -3.44146E-09 -3.52412E-09 -3.59937E-09 -3.66740E-09 -3.72839E-09 -3.78253E-09 -3.82999E-09 -3.87094E-09 -3.90555E-09
  -3.93397E-09 -3.95637E-09 -3.97291E-09 -3.98373E-09 -3.98899E-09 -3.98885E-09 -3.98344E-09 -3.97293E-09 -3.95745E-09 -3.93714E-09
  -3.91217E-09 -3.88267E-09 -3.84878E-09 -3.81066E-09 -3.76847E-09 -3.72242E-09 -3.67276E-09 -3.61971E-09 -3.56349E-09 -3.50434E-09
  -3.44249E-09 -3.37815E-09 -3.31157E-09 -3.24296E-09 -3.17254E-09 -3.10056E-09 -3.02723E-09 -2.95279E-09 -2.87744E-09 -2.80145E-09
  -2.72501E-09 -2.64835E-09 -2.57171E-09 -2.49531E-09 -2.41937E-09 -2.34412E-09 -2.26979E-09 -2.19659E-09 -2.12476E-09 -2.05454E-09
  -1.98611E-09 -1.91975E-09 -1.85554E-09 -1.79347E-09 -1.73353E-09 -1.67570E-09 -1.61993E-09 -1.56622E-09 -1.51453E-09 -1.46484E-09
  -1.41714E-09 -1.37137E-09 -1.32755E-09 -1.28562E-09 -1.24557E-09 -1.20738E-09 -1.17099E-09 -1.13644E-09 -1.10366E-09 -1.07263E-09
  -1.04332E-09 -1.01573E-09 -9.89812E-10 -9.65546E-10 -9.42922E-10 -9.21885E-10 -9.02443E-10 -8.84552E-10 -8.68196E-10 -8.53339E-10
  -8.39958E-10 -8.28018E-10 -8.17479E-10 -8.08302E-10 -8.00461E-10 -7.93909E-10 -7.88619E-10 -7.84546E-10 -7.81657E-10 -7.79921E-10
  -7.79294E-10 -7.79743E-10 -7.81232E-10 -7.83723E-10 -7.87184E-10 -7.91572E-10 -7.96856E-10 -8.02996E-10 -8.09964E-10 -8.17708E-10
  -8.26209E-10 -8.35418E-10 -8.45302E-10 -8.55832E-10 -8.66964E-10 -8.78661E-10 -8.90893E-10 -9.03616E-10 -9.16814E-10 -9.30469E-10
  -9.44566E-10 -9.59090E-10 -9.74027E-10 -9.89356E-10 -1.00507E-09 -1.02114E-09 -1.03757E-09 -1.05432E-09 -1.07140E-09 -1.08878E-09
  -1.10645E-09 -1.12439E-09 -1.14258E-09 -1.16102E-09 -1.17968E-09 -1.19855E-09 -1.21762E-09 -1.23686E-09 -1.25627E-09 -1.27583E-09
  -1.29552E-09 -1.31532E-09 -1.33523E-09 -1.35523E-09 -1.37530E-09 -1.39542E-09 -1.41559E-09 -1.43582E-09 -1.45609E-09 -1.47640E-09
  -1.49677E-09 -1.51717E-09 -1.53761E-09 -1.55809E-09 -1.57861E-09 -1.59916E-09 -1.61974E-09 -1.64036E-09 -1.66100E-09 -1.68167E-09
  -1.70236E-09 -1.72307E-09 -1.74381E-09 -1.76456E-09 -1.78534E-09 -1.80612E-09 -1.82692E-09 -1.84773E-09 -1.86855E-09 -1.88938E-09
  -1.91021E-09 -1.93105E-09 -1.95188E-09
 NY background values follow
    -5.905E-10   -5.531E-10   -5.157E-10   -4.783E-10   -4.408E-10   -4.033E-10   -3.657E-10   -3.282E-10   -2.907E-10   -2.531E-10
    -2.157E-10   -1.783E-10   -1.409E-10   -1.037E-10   -6.649E-11   -2.944E-11    7.492E-12    4.428E-11    8.092E-11    1.174E-10
     1.537E-10    1.898E-10    2.256E-10    2.613E-10    2.967E-10    3.319E-10    3.668E-10    4.014E-10    4.357E-10    4.698E-10
     5.035E-10    5.369E-10    5.700E-10    6.029E-10    6.355E-10    6.678E-10    6.999E-10    7.317E-10    7.632E-10    7.945E-10
     8.256E-10    8.564E-10    8.870E-10    9.174E-10    9.476E-10    9.776E-10    1.007E-09    1.037E-09    1.066E-09    1.096E-09
     1.125E-09    1.154E-09    1.182E-09    1.211E-09    1.239E-09    1.267E-09    1.296E-09    1.324E-09    1.351E-09    1.379E-09
     1.407E-09    1.434E-09    1.461E-09    1.489E-09    1.515E-09    1.542E-09    1.569E-09    1.595E-09    1.621E-09    1.647E-09
     1.673E-09    1.699E-09    1.724E-09    1.749E-09    1.774E-09    1.799E-09    1.823E-09    1.847E-09    1.871E-09    1.895E-09
     1.918E-09    1.942E-09    1.964E-09    1.987E-09    2.009E-09    2.031E-09    2.053E-09    2.075E-09    2.096E-09    2.117E-09
     2.138E-09    2.159E-09    2.180E-09    2.201E-09    2.222E-09    2.242E-09    2.263E-09    2.283E-09    2.304E-09    2.325E-09
     2.345E-09    2.366E-09    2.387E-09    2.408E-09    2.430E-09    2.451E-09    2.473E-09    2.495E-09    2.517E-09    2.540E-09
     2.562E-09    2.586E-09    2.609E-09    2.633E-09    2.657E-09    2.681E-09    2.705E-09    2.729E-09    2.752E-09    2.775E-09
     2.798E-09    2.820E-09    2.841E-09    2.861E-09    2.880E-09    2.898E-09    2.915E-09    2.930E-09    2.944E-09    2.956E-09
     2.966E-09    2.975E-09    2.981E-09    2.986E-09    2.988E-09    2.988E-09    2.985E-09    2.980E-09    2.972E-09    2.962E-09
     2.948E-09    2.931E-09    2.911E-09    2.888E-09    2.862E-09    2.831E-09    2.797E-09    2.760E-09    2.718E-09    2.672E-09
     2.622E-09    2.568E-09    2.509E-09    2.445E-09    2.377E-09    2.304E-09    2.226E-09    2.143E-09    2.055E-09    1.961E-09
     1.862E-09    1.757E-09    1.647E-09    1.531E-09    1.408E-09    1.280E-09    1.145E-09    1.004E-09    8.571E-10    7.037E-10
     5.449E-10    3.810E-10    2.127E-10    4.042E-11   -1.353E-10   -3.139E-10   -4.949E-10   -6.779E-10   -8.621E-10   -1.047E-09
    -1.233E-09   -1.418E-09   -1.603E-09   -1.786E-09   -1.968E-09   -2.147E-09   -2.324E-09   -2.497E-09   -2.666E-09   -2.832E-09
    -2.992E-09   -3.147E-09   -3.296E-09   -3.439E-09   -3.575E-09   -3.703E-09   -3.824E-09   -3.936E-09   -4.042E-09   -4.140E-09
    -4.230E-09   -4.313E-09   -4.389E-09   -4.459E-09   -4.521E-09   -4.577E-09   -4.626E-09   -4.669E-09   -4.706E-09   -4.736E-09
    -4.761E-09   -4.780E-09   -4.793E-09   -4.801E-09   -4.803E-09   -4.800E-09   -4.792E-09   -4.778E-09   -4.760E-09   -4.738E-09
    -4.710E-09   -4.678E-09   -4.642E-09   -4.602E-09   -4.558E-09   -4.510E-09   -4.458E-09   -4.403E-09   -4.345E-09   -4.285E-09
    -4.221E-09   -4.155E-09   -4.087E-09   -4.017E-09   -3.945E-09   -3.871E-09   -3.796E-09   -3.721E-09   -3.644E-09   -3.567E-09
    -3.489E-09   -3.411E-09   -3.333E-09   -3.255E-09   -3.178E-09   -3.102E-09   -3.026E-09   -2.952E-09   -2.879E-09   -2.808E-09
    -2.738E-09   -2.671E-09   -2.605E-09   -2.542E-09   -2.481E-09   -2.423E-09   -2.366E-09   -2.311E-09   -2.259E-09   -2.208E-09
    -2.159E-09   -2.113E-09   -2.068E-09   -2.025E-09   -1.984E-09   -1.945E-09   -1.908E-09   -1.872E-09   -1.839E-09   -1.807E-09
    -1.777E-09   -1.749E-09   -1.722E-09   -1.697E-09   -1.673E-09   -1.652E-09   -1.631E-09   -1.613E-09   -1.596E-09   -1.580E-09
    -1.566E-09   -1.553E-09   -1.542E-09   -1.532E-09   -1.524E-09   -1.516E-09   -1.510E-09   -1.506E-09   -1.502E-09   -1.500E-09
    -1.498E-09   -1.498E-09   -1.499E-09   -1.501E-09   -1.504E-09   -1.508E-09   -1.512E-09   -1.518E-09   -1.524E-09   -1.531E-09
    -1.539E-09   -1.548E-09   -1.557E-09   -1.567E-09   -1.577E-09   -1.589E-09   -1.600E-09   -1.612E-09   -1.625E-09   -1.638E-09
    -1.652E-09   -1.666E-09   -1.680E-09   -1.695E-09   -1.710E-09   -1.725E-09   -1.741E-09   -1.757E-09   -1.774E-09   -1.791E-09
    -1.808E-09   -1.825E-09   -1.843E-09   -1.861E-09   -1.879E-09   -1.897E-09   -1.916E-09   -1.935E-09   -1.954E-09   -1.973E-09
    -1.992E-09   -2.011E-09   -2.030E-09   -2.050E-09   -2.069E-09   -2.089E-09   -2.109E-09   -2.128E-09   -2.148E-09   -2.168E-09
    -2.188E-09   -2.208E-09   -2.228E-09   -2.248E-09   -2.268E-09   -2.288E-09   -2.308E-09   -2.328E-09   -2.348E-09   -2.368E-09
    -2.389E-09   -2.409E-09   -2.429E-09   -2.449E-09   -2.470E-09   -2.490E-09   -2.510E-09   -2.530E-09   -2.551E-09   -2.571E-09
    -2.591E-09   -2.612E-09   -2.632E-09
 Asp      Conc. = 4.16E-10
  -8.93555E-11 -1.12651E-10 -1.29261E-10 -1.55448E-10 -1.67495E-10 -1.93706E-10 -2.15789E-10 -2.26914E-10 -2.13589E-10 -1.90453E-10
  -1.62489E-10 -1.31689E-10 -9.89017E-11 -6.46655E-11 -2.99625E-11  5.03858E-12  4.03143E-11  7.57892E-11  1.11401E-10  1.47097E-10
   1.82836E-10  2.18588E-10  2.54325E-10  2.90040E-10  3.25726E-10  3.61378E-10  3.97017E-10  4.32671E-10  4.68383E-10  5.04229E-10
   5.40341E-10  5.76920E-10  6.14275E-10  6.52940E-10  6.93928E-10  7.39590E-10  7.95776E-10  8.54084E-10  9.20015E-10  9.81572E-10
   1.03588E-09  1.08339E-09  1.13244E-09  1.19380E-09  1.27459E-09  1.38335E-09  1.48022E-09  1.56344E-09  1.67133E-09  1.76323E-09
   1.84555E-09  1.90660E-09  1.93719E-09  1.91182E-09  1.83266E-09  1.74057E-09  1.68072E-09  1.69607E-09  1.68938E-09  1.64676E-09
   1.64319E-09  1.64710E-09  1.64623E-09  1.66639E-09  1.69418E-09  1.70479E-09  1.69781E-09  1.70376E-09  1.71621E-09  1.73213E-09
   1.75014E-09  1.76950E-09  1.78976E-09  1.81063E-09  1.83192E-09  1.85347E-09  1.87520E-09  1.89701E-09  1.91885E-09  1.94066E-09
   1.96241E-09  1.98406E-09  2.00558E-09  2.02695E-09  2.04814E-09  2.06916E-09  2.09001E-09  2.11071E-09  2.13127E-09  2.15170E-09
   2.17204E-09  2.19229E-09  2.21247E-09  2.23261E-09  2.25271E-09  2.27281E-09  2.29292E-09  2.31307E-09  2.33327E-09  2.35355E-09
   2.37392E-09  2.39442E-09  2.41505E-09  2.43585E-09  2.45684E-09  2.47804E-09  2.49947E-09  2.52114E-09  2.54310E-09  2.56536E-09
   2.58794E-09  2.61086E-09  2.63414E-09  2.65773E-09  2.68149E-09  2.70532E-09  2.72909E-09  2.75268E-09  2.77597E-09  2.79883E-09
   2.82116E-09  2.84283E-09  2.86371E-09  2.88370E-09  2.90266E-09  2.92048E-09  2.93704E-09  2.95221E-09  2.96589E-09  2.97794E-09
   2.98824E-09  2.99669E-09  3.00315E-09  3.00751E-09  3.00964E-09  3.00943E-09  3.00676E-09  3.00151E-09  2.99355E-09  2.98277E-09
   2.96904E-09  2.95225E-09  2.93227E-09  2.90896E-09  2.88222E-09  2.85190E-09  2.81790E-09  2.78007E-09  2.73830E-09  2.69247E-09
   2.64245E-09  2.58811E-09  2.52935E-09  2.46604E-09  2.39807E-09  2.32533E-09  2.24772E-09  2.16513E-09  2.07750E-09  1.98477E-09
   1.88693E-09  1.78405E-09  1.67638E-09  1.56447E-09  1.44990E-09  1.33751E-09  1.24991E-09  1.24854E-09  1.25412E-09  1.25308E-09
   1.24895E-09  1.21642E-09  1.11821E-09  9.49657E-10  7.40631E-10  5.01907E-10  1.94170E-10 -2.26038E-10 -6.78786E-10 -9.40499E-10
  -1.15506E-09 -1.35540E-09 -1.54914E-09 -1.73863E-09 -1.92462E-09 -2.10726E-09 -2.28639E-09 -2.46172E-09 -2.63286E-09 -2.79940E-09
  -2.96089E-09 -3.11687E-09 -3.26684E-09 -3.41030E-09 -3.54678E-09 -3.67576E-09 -3.79687E-09 -3.91018E-09 -4.01583E-09 -4.11398E-09
  -4.20475E-09 -4.28829E-09 -4.36474E-09 -4.43425E-09 -4.49696E-09 -4.55300E-09 -4.60251E-09 -4.64564E-09 -4.68253E-09 -4.71330E-09
  -4.73812E-09 -4.75709E-09 -4.77038E-09 -4.77812E-09 -4.78045E-09 -4.77750E-09 -4.76942E-09 -4.75634E-09 -4.73841E-09 -4.71575E-09
  -4.68851E-09 -4.65682E-09 -4.62084E-09 -4.58068E-09 -4.53653E-09 -4.48860E-09 -4.43710E-09 -4.38227E-09 -4.32433E-09 -4.26351E-09
  -4.20003E-09 -4.13411E-09 -4.06599E-09 -3.99588E-09 -3.92401E-09 -3.85061E-09 -3.77589E-09 -3.70010E-09 -3.62343E-09 -3.54614E-09
  -3.46843E-09 -3.39054E-09 -3.31269E-09 -3.23510E-09 -3.15800E-09 -3.08161E-09 -3.00615E-09 -2.93186E-09 -2.85896E-09 -2.78767E-09
  -2.71821E-09 -2.65082E-09 -2.58561E-09 -2.52256E-09 -2.46164E-09 -2.40285E-09 -2.34615E-09 -2.29151E-09 -2.23891E-09 -2.18832E-09
  -2.13973E-09 -2.09310E-09 -2.04841E-09 -2.00563E-09 -1.96474E-09 -1.92572E-09 -1.88852E-09 -1.85316E-09 -1.81959E-09 -1.78777E-09
  -1.75769E-09 -1.72933E-09 -1.70265E-09 -1.67763E-09 -1.65427E-09 -1.63250E-09 -1.61233E-09 -1.59372E-09 -1.57666E-09 -1.56110E-09
  -1.54702E-09 -1.53439E-09 -1.52317E-09 -1.51332E-09 -1.50481E-09 -1.49759E-09 -1.49164E-09 -1.48692E-09 -1.48339E-09 -1.48101E-09
  -1.47975E-09 -1.47957E-09 -1.48043E-09 -1.48231E-09 -1.48515E-09 -1.48893E-09 -1.49361E-09 -1.49915E-09 -1.50552E-09 -1.51267E-09
  -1.52059E-09 -1.52921E-09 -1.53852E-09 -1.54847E-09 -1.55903E-09 -1.57016E-09 -1.58183E-09 -1.59399E-09 -1.60663E-09 -1.61973E-09
  -1.63328E-09 -1.64725E-09 -1.66164E-09 -1.67643E-09 -1.69160E-09 -1.70714E-09 -1.72303E-09 -1.73926E-09 -1.75581E-09 -1.77266E-09
  -1.78980E-09 -1.80722E-09 -1.82490E-09 -1.84282E-09 -1.86096E-09 -1.87932E-09 -1.89788E-09 -1.91662E-09 -1.93552E-09 -1.95457E-09
  -1.97376E-09 -1.99307E-09 -2.01247E-09 -2.03197E-09 -2.05154E-09 -2.07117E-09 -2.09085E-09 -2.11058E-09 -2.13036E-09 -2.15019E-09
  -2.17006E-09 -2.18998E-09 -2.20994E-09 -2.22993E-09 -2.24996E-09 -2.27003E-09 -2.29013E-09 -2.31026E-09 -2.33043E-09 -2.35061E-09
  -2.37082E-09 -2.39106E-09 -2.41132E-09 -2.43160E-09 -2.45189E-09 -2.47220E-09 -2.49252E-09 -2.51285E-09 -2.53320E-09 -2.55355E-09
  -2.57390E-09 -2.59427E-09 -2.61462E-09
 GABA     Conc. = 4.44E-10
  -5.63940E-10 -5.26372E-10 -4.88706E-10 -4.50952E-10 -4.13121E-10 -3.75225E-10 -3.37268E-10 -2.99266E-10 -2.61223E-10 -2.23136E-10
  -1.85021E-10 -1.46871E-10 -1.08679E-10 -7.04509E-11 -3.21560E-11  6.21486E-12  4.46546E-11  8.32307E-11  1.21993E-10  1.60971E-10
   2.00293E-10  2.40126E-10  2.80669E-10  3.22285E-10  3.65520E-10  4.11240E-10  4.61183E-10  5.18767E-10  5.92813E-10  7.06833E-10
   8.16038E-10  9.29835E-10  1.11328E-09  1.29437E-09  1.43564E-09  1.58993E-09  1.73763E-09  1.83725E-09  1.86463E-09  1.83064E-09
   1.77962E-09  1.76392E-09  1.64351E-09  1.45623E-09  1.40754E-09  1.36766E-09  1.27090E-09  1.23217E-09  1.22543E-09  1.23290E-09
   1.24813E-09  1.26811E-09  1.29139E-09  1.31729E-09  1.34543E-09  1.37571E-09  1.40843E-09  1.44424E-09  1.48443E-09  1.53163E-09
   1.59155E-09  1.68090E-09  1.79949E-09  1.91021E-09  2.05408E-09  2.23422E-09  2.37951E-09  2.49487E-09  2.60016E-09  2.67235E-09
   2.68222E-09  2.62274E-09  2.52289E-09  2.44381E-09  2.37451E-09  2.21797E-09  2.10990E-09  2.10627E-09  2.07759E-09  2.05514E-09
   2.07932E-09  2.10632E-09  2.15245E-09  2.24102E-09  2.32036E-09  2.39485E-09  2.49734E-09  2.60117E-09  2.68933E-09  2.75578E-09
   2.79393E-09  2.83264E-09  2.86717E-09  2.82323E-09  2.76528E-09  2.76774E-09  2.71978E-09  2.64486E-09  2.62120E-09  2.60020E-09
   2.57488E-09  2.56358E-09  2.56126E-09  2.56466E-09  2.57197E-09  2.58208E-09  2.59435E-09  2.60835E-09  2.62380E-09  2.64050E-09
   2.65827E-09  2.67694E-09  2.69644E-09  2.71666E-09  2.73743E-09  2.75860E-09  2.77998E-09  2.80139E-09  2.82270E-09  2.84375E-09
   2.86441E-09  2.88455E-09  2.90403E-09  2.92271E-09  2.94047E-09  2.95717E-09  2.97268E-09  2.98688E-09  2.99964E-09  3.01084E-09
   3.02034E-09  3.02803E-09  3.03378E-09  3.03747E-09  3.03897E-09  3.03817E-09  3.03493E-09  3.02914E-09  3.02067E-09  3.00941E-09
   2.99522E-09  2.97799E-09  2.95759E-09  2.93389E-09  2.90676E-09  2.87608E-09  2.84173E-09  2.80357E-09  2.76148E-09  2.71534E-09
   2.66503E-09  2.61042E-09  2.55139E-09  2.48783E-09  2.41962E-09  2.34664E-09  2.26881E-09  2.18603E-09  2.09822E-09  2.00533E-09
   1.90736E-09  1.80439E-09  1.69671E-09  1.58494E-09  1.47080E-09  1.35965E-09  1.27692E-09  1.28520E-09  1.30056E-09  1.30939E-09
   1.31497E-09  1.28978E-09  1.19461E-09  1.02539E-09  8.13767E-10  5.70061E-10  2.51736E-10 -1.85584E-10 -6.52077E-10 -9.16850E-10
  -1.13307E-09 -1.33444E-09 -1.52888E-09 -1.71890E-09 -1.90530E-09 -2.08828E-09 -2.26769E-09 -2.44327E-09 -2.61462E-09 -2.78136E-09
  -2.94302E-09 -3.09916E-09 -3.24928E-09 -3.39288E-09 -3.52948E-09 -3.65858E-09 -3.77981E-09 -3.89322E-09 -3.99898E-09 -4.09722E-09
  -4.18808E-09 -4.27171E-09 -4.34826E-09 -4.41785E-09 -4.48064E-09 -4.53675E-09 -4.58634E-09 -4.62955E-09 -4.66650E-09 -4.69735E-09
  -4.72222E-09 -4.74127E-09 -4.75462E-09 -4.76242E-09 -4.76481E-09 -4.76192E-09 -4.75390E-09 -4.74087E-09 -4.72299E-09 -4.70038E-09
  -4.67320E-09 -4.64156E-09 -4.60562E-09 -4.56552E-09 -4.52141E-09 -4.47353E-09 -4.42208E-09 -4.36729E-09 -4.30939E-09 -4.24862E-09
