 LCModel (Version 6.3-1R) Copyright: S.W. Provencher.          Ref.: Magn. Reson. Med. 30:672-679 (1993).                
 onepulse 24x30_ftSpec_smooth_lcm
 26 lines in following concentration table = NCONC+1
    Conc.  %SD   /Cr    Metabolite                                         
    0.000 999%   0.000 Ala                                                 
 4.14E-12 999%   0.000 Asp                                                 
    0.000 999%   0.000 Cr                                                  
 7.50E-11 502%   0.000 GABA                                                
    0.000 999%   0.000 Glc                                                 
 3.30E-10 166%   0.000 Gln                                                 
    0.000 999%   0.000 Glu                                                 
    0.000 999%   0.000 Glyc                                                
    0.000 999%   0.000 GPC                                                 
 3.94E-10  72%   0.000 GSH                                                 
 1.08E-09  20%   0.000 Ins                                                 
    0.000 999%   0.000 Lac                                                 
 2.74E-10  64%   0.000 NAAG                                                
    0.000 999%   0.000 NAA                                                 
    0.000 999%   0.000 PCh                                                 
    0.000 999%   0.000 PCr                                                 
 3.13E-10 150%   0.000 PE                                                  
 2.15E-10  54%   0.000 Scyllo                                              
 4.17E-09  19%   0.000 Ser                                                 
    0.000 999%   0.000 Tau                                                 
    0.000 999%   0.000 GPC+PCh                                             
 2.74E-10  64%   0.000 NAA+NAAG                                            
 1.08E-09  20%   0.000 Ins+Glyc                                            
    0.000 999%   0.000 Cr+PCr                                              
 3.30E-10 166%   0.000 Glu+Gln                                             
   6 lines in following misc. output table
  FWHM = 0.101 ppm    S/N =   2                                            
  Data shift = 0.436 ppm                                                   
  Ph: -54 deg     -58.4 deg/ppm                                            
  alphaB,S = 5.4E+01,   4.7E+01                                            
    9 spline knots.   Ns = 5(1)                                            
  (12) 4 infls.   (11) 3 extrs.                                            
  363 points on ppm-axis = NY
      4.250000     4.238821     4.227641     4.216462     4.205282     4.194103     4.182923     4.171744     4.160564     4.149385
      4.138206     4.127026     4.115847     4.104667     4.093488     4.082308     4.071129     4.059949     4.048770     4.037591
      4.026411     4.015232     4.004052     3.992873     3.981693     3.970514     3.959334     3.948155     3.936975     3.925796
      3.914617     3.903437     3.892258     3.881078     3.869899     3.858719     3.847540     3.836360     3.825181     3.814002
      3.802822     3.791643     3.780463     3.769284     3.758104     3.746925     3.735745     3.724566     3.713387     3.702207
      3.691028     3.679848     3.668669     3.657489     3.646310     3.635130     3.623951     3.612772     3.601592     3.590413
      3.579233     3.568054     3.556874     3.545695     3.534515     3.523336     3.512156     3.500977     3.489798     3.478618
      3.467439     3.456259     3.445080     3.433900     3.422721     3.411541     3.400362     3.389183     3.378003     3.366824
      3.355644     3.344465     3.333285     3.322106     3.310926     3.299747     3.288568     3.277388     3.266209     3.255029
      3.243850     3.232670     3.221491     3.210311     3.199132     3.187953     3.176773     3.165594     3.154414     3.143235
      3.132055     3.120876     3.109696     3.098517     3.087337     3.076158     3.064979     3.053799     3.042620     3.031440
      3.020261     3.009081     2.997902     2.986722     2.975543     2.964364     2.953184     2.942005     2.930825     2.919646
      2.908466     2.897287     2.886107     2.874928     2.863749     2.852569     2.841390     2.830210     2.819031     2.807851
      2.796672     2.785492     2.774313     2.763134     2.751954     2.740775     2.729595     2.718416     2.707236     2.696057
      2.684877     2.673698     2.662519     2.651339     2.640160     2.628980     2.617801     2.606621     2.595442     2.584262
      2.573083     2.561903     2.550724     2.539545     2.528365     2.517186     2.506006     2.494827     2.483647     2.472468
      2.461288     2.450109     2.438930     2.427750     2.416571     2.405391     2.394212     2.383032     2.371853     2.360673
      2.349494     2.338315     2.327135     2.315956     2.304776     2.293597     2.282417     2.271238     2.260058     2.248879
      2.237700     2.226520     2.215341     2.204161     2.192982     2.181802     2.170623     2.159443     2.148264     2.137084
      2.125905     2.114726     2.103546     2.092367     2.081187     2.070008     2.058828     2.047649     2.036469     2.025290
      2.014111     2.002931     1.991752     1.980572     1.969393     1.958213     1.947034     1.935854     1.924675     1.913496
      1.902316     1.891137     1.879957     1.868778     1.857598     1.846419     1.835239     1.824060     1.812881     1.801701
      1.790522     1.779342     1.768163     1.756983     1.745804     1.734624     1.723445     1.712265     1.701086     1.689907
      1.678727     1.667548     1.656368     1.645189     1.634009     1.622830     1.611650     1.600471     1.589292     1.578112
      1.566933     1.555753     1.544574     1.533394     1.522215     1.511035     1.499856     1.488677     1.477497     1.466318
      1.455138     1.443959     1.432779     1.421600     1.410420     1.399241     1.388062     1.376882     1.365703     1.354523
      1.343344     1.332164     1.320985     1.309805     1.298626     1.287446     1.276267     1.265088     1.253908     1.242729
      1.231549     1.220370     1.209190     1.198011     1.186831     1.175652     1.164473     1.153293     1.142114     1.130934
      1.119755     1.108575     1.097396     1.086216     1.075037     1.063858     1.052678     1.041499     1.030319     1.019140
      1.007960     0.996781     0.985601     0.974422     0.963243     0.952063     0.940884     0.929704     0.918525     0.907345
      0.896166     0.884986     0.873807     0.862628     0.851448     0.840269     0.829089     0.817910     0.806730     0.795551
      0.784371     0.773192     0.762012     0.750833     0.739654     0.728474     0.717295     0.706115     0.694936     0.683756
      0.672577     0.661397     0.650218     0.639039     0.627859     0.616680     0.605500     0.594321     0.583141     0.571962
      0.560782     0.549603     0.538424     0.527244     0.516065     0.504885     0.493706     0.482526     0.471347     0.460167
      0.448988     0.437809     0.426629     0.415450     0.404270     0.393091     0.381911     0.370732     0.359552     0.348373
      0.337193     0.326014     0.314835     0.303655     0.292476     0.281296     0.270117     0.258937     0.247758     0.236578
      0.225399     0.214220     0.203040
 NY phased data points follow
   5.25680E-09  4.73130E-09  4.50104E-09  4.54885E-09  4.66487E-09  4.82219E-09  5.23303E-09  5.46199E-09  5.97629E-09  5.26983E-09
   5.41406E-09  5.37077E-09  5.36416E-09  5.30245E-09  4.96344E-09  4.96567E-09  4.75645E-09  4.84080E-09  5.49731E-09  5.18675E-09
   4.72672E-09  4.60421E-09  4.65776E-09  4.43385E-09  5.04633E-09  5.91334E-09  6.33168E-09  6.35496E-09  5.83712E-09  5.93365E-09
   5.44569E-09  5.40729E-09  5.42449E-09  5.23492E-09  4.84596E-09  4.85722E-09  4.96936E-09  4.90207E-09  5.02993E-09  4.66271E-09
   4.66153E-09  4.17858E-09  4.15626E-09  4.25577E-09  4.29199E-09  4.26945E-09  4.22872E-09  3.88932E-09  3.31354E-09  3.20123E-09
   3.21244E-09  2.91378E-09  3.15942E-09  2.86289E-09  3.08134E-09  3.34211E-09  4.41663E-09  4.90259E-09  4.88015E-09  5.08197E-09
   4.71027E-09  4.47747E-09  4.16535E-09  4.23800E-09  3.95248E-09  3.47328E-09  3.23344E-09  2.75404E-09  2.33757E-09  1.54958E-09
   1.20405E-09  2.33659E-09  3.62050E-09  5.17524E-09  6.41813E-09  6.65491E-09  6.00830E-09  6.61455E-09  6.19626E-09  6.57616E-09
   6.09133E-09  6.11408E-09  6.01059E-09  6.12838E-09  6.03309E-09  5.79169E-09  5.93806E-09  5.68522E-09  5.47647E-09  5.13150E-09
   5.25921E-09  5.06752E-09  4.60294E-09  4.80102E-09  4.72470E-09  5.01649E-09  4.75399E-09  4.97104E-09  4.61147E-09  4.99547E-09
   5.17402E-09  4.59451E-09  4.33713E-09  4.31027E-09  3.54855E-09  3.96415E-09  3.45149E-09  3.84295E-09  3.65238E-09  3.85756E-09
   3.41145E-09  3.90379E-09  3.65037E-09  3.91867E-09  3.91254E-09  3.64619E-09  3.43054E-09  3.10305E-09  2.45965E-09  2.58380E-09
   1.98118E-09  2.23181E-09  2.02259E-09  2.01779E-09  1.39006E-09  1.57666E-09  1.12507E-09  1.41532E-09  1.43412E-09  7.08749E-10
   4.14415E-10  5.77570E-10  5.77783E-10  1.32300E-09  1.52352E-09  1.85002E-09  1.57518E-09  1.83594E-09  2.05899E-09  3.03653E-09
   3.15877E-09  3.49665E-09  3.29835E-09  3.75498E-09  3.63863E-09  4.19411E-09  3.54669E-09  4.19203E-09  3.76086E-09  4.49195E-09
   3.99181E-09  4.33968E-09  4.25276E-09  4.35944E-09  4.51993E-09  4.85753E-09  4.83589E-09  4.91314E-09  4.19380E-09  4.76935E-09
   4.44911E-09  4.41865E-09  4.71549E-09  6.39225E-09  8.96547E-09  1.11054E-08  1.15698E-08  1.20665E-08  1.22824E-08  1.24969E-08
   1.29587E-08  1.28689E-08  1.26396E-08  1.33516E-08  1.29430E-08  1.31400E-08  1.30356E-08  1.30761E-08  1.30373E-08  1.29492E-08
   1.22639E-08  1.16086E-08  1.09087E-08  1.05824E-08  8.79992E-09  8.01057E-09  6.61654E-09  4.74998E-09  2.77137E-09  1.43691E-09
  -1.20819E-09 -2.62226E-09 -4.80111E-09 -6.08708E-09 -7.41000E-09 -8.48433E-09 -9.35039E-09 -9.44441E-09 -9.20828E-09 -8.87332E-09
  -8.11650E-09 -6.49834E-09 -5.83624E-09 -3.97362E-09 -3.17485E-09 -2.18363E-09 -1.54593E-09 -3.94414E-10 -3.20276E-10  3.17397E-10
   9.97266E-12 -9.77712E-11 -4.67527E-10 -4.33072E-10 -5.41350E-10 -2.53695E-10 -3.37877E-10  3.37385E-10 -2.01488E-10  7.09647E-10
   2.56205E-10 -4.08099E-10 -4.47468E-10 -5.45977E-10 -6.71143E-10  2.51284E-11 -9.91345E-11  4.67392E-11 -8.32294E-11  1.98221E-10
  -4.67898E-10 -1.62804E-10 -7.60605E-10 -3.49693E-10 -7.31351E-11 -6.19878E-11 -3.95307E-10 -7.53074E-11 -4.25840E-10 -1.20863E-10
  -2.70554E-10  2.71836E-10  1.26555E-10  3.20185E-11  8.15065E-11 -7.13846E-11 -3.56029E-10 -4.28495E-10 -1.90320E-10  5.28435E-11
  -1.43036E-10  1.88795E-10  4.18466E-11  6.88069E-11  1.09298E-10  3.26900E-10 -4.21111E-11  2.60535E-10 -5.98520E-10 -2.70604E-10
  -3.32622E-10 -2.55511E-10 -6.28296E-10 -5.40732E-11 -5.75014E-10 -4.16343E-10 -3.23314E-10 -1.43113E-10 -2.24748E-10 -1.69204E-10
  -2.73823E-10 -5.77368E-11 -3.66251E-10  2.13473E-11 -3.18070E-10  1.50854E-10  1.48556E-11 -2.16761E-10 -3.03948E-10  7.10341E-11
  -2.52428E-10 -2.35348E-10 -4.73033E-10 -1.32839E-10 -4.20874E-10 -4.09332E-10 -6.01958E-10 -2.82257E-10 -6.42261E-10 -5.64381E-10
  -5.49460E-10 -3.92756E-10 -6.51672E-10 -3.93108E-10 -6.56020E-10 -6.97029E-10 -6.09577E-10 -3.34863E-10 -8.27980E-10 -2.31538E-10
  -6.87470E-10 -3.95096E-10 -6.48156E-10 -5.06080E-10 -5.28337E-10 -2.28477E-10 -6.92444E-10 -4.12484E-10 -7.61200E-10 -7.88970E-10
  -1.91267E-10 -3.32321E-10 -5.68002E-10 -2.06428E-10 -4.44410E-10 -6.26070E-11 -7.98333E-10  1.23784E-10 -7.42596E-10 -2.11438E-10
  -6.52995E-10 -2.10874E-10 -5.33868E-10 -4.17823E-10 -5.89374E-10 -3.35971E-10 -4.40325E-10 -3.79440E-10 -7.34003E-10 -4.55043E-10
  -5.06029E-10 -5.43870E-10 -7.19227E-10 -5.68648E-10 -6.71636E-10 -5.93813E-10 -8.46330E-10 -5.10146E-10 -7.44402E-10 -5.91701E-10
  -8.14895E-10 -6.16608E-10 -1.01947E-09 -7.60697E-10 -7.92953E-10 -5.00193E-10 -1.20586E-09 -3.54849E-10 -8.94094E-10 -4.40980E-10
  -9.10596E-10 -6.03099E-10 -1.04208E-09 -7.82505E-10 -1.10887E-09 -8.91152E-10 -8.62066E-10 -3.61936E-10 -9.20542E-10 -6.41562E-10
  -8.85980E-10 -1.13989E-09 -9.24402E-10
 NY points of the fit to the data follow
   3.50834E-09  4.87688E-09  5.08294E-09  5.27375E-09  5.77082E-09  6.29801E-09  6.24763E-09  5.66196E-09  5.12967E-09  4.77972E-09
   4.56692E-09  4.58453E-09  4.62845E-09  4.79941E-09  5.03760E-09  5.15628E-09  5.10013E-09  5.07876E-09  5.31195E-09  5.29360E-09
   5.08501E-09  4.93681E-09  4.90670E-09  4.88022E-09  4.92896E-09  5.23309E-09  5.75768E-09  6.23456E-09  6.30827E-09  5.89827E-09
   5.69137E-09  5.54152E-09  5.30013E-09  5.03553E-09  4.93182E-09  4.82895E-09  4.68135E-09  4.61101E-09  4.61482E-09  4.63743E-09
   4.66631E-09  4.72110E-09  4.78875E-09  4.83327E-09  4.79483E-09  4.65227E-09  4.50739E-09  4.29522E-09  4.05518E-09  3.88062E-09
   3.75755E-09  3.70202E-09  3.63619E-09  3.55962E-09  3.59612E-09  3.72854E-09  3.84492E-09  3.99040E-09  4.16688E-09  4.30632E-09
   4.37642E-09  4.41748E-09  4.46280E-09  4.49913E-09  4.41558E-09  4.27122E-09  4.17978E-09  4.07645E-09  3.90005E-09  3.77326E-09
   3.75098E-09  3.77674E-09  3.85465E-09  3.96768E-09  4.05547E-09  4.15455E-09  4.59837E-09  5.22393E-09  5.79333E-09  6.19814E-09
   6.42465E-09  6.53518E-09  6.62909E-09  6.75248E-09  6.87109E-09  6.81300E-09  6.44787E-09  5.90281E-09  5.57815E-09  5.36288E-09
   5.19350E-09  5.05434E-09  4.94012E-09  4.83265E-09  4.72700E-09  4.63770E-09  4.55522E-09  4.47114E-09  4.39271E-09  4.31538E-09
   4.24377E-09  4.18214E-09  4.12381E-09  4.06590E-09  4.01184E-09  3.96142E-09  3.91398E-09  3.86903E-09  3.82602E-09  3.78472E-09
   3.74495E-09  3.70648E-09  3.66917E-09  3.63286E-09  3.59745E-09  3.56283E-09  3.52890E-09  3.49558E-09  3.46280E-09  3.43051E-09
   3.39861E-09  3.36710E-09  3.33590E-09  3.30500E-09  3.27434E-09  3.24390E-09  3.21365E-09  3.18357E-09  3.15363E-09  3.12380E-09
   3.09408E-09  3.06446E-09  3.03489E-09  3.00540E-09  2.97595E-09  2.94655E-09  2.91719E-09  2.88786E-09  2.85856E-09  2.82929E-09
   2.80006E-09  2.77086E-09  2.74171E-09  2.71262E-09  2.68360E-09  2.65467E-09  2.62586E-09  2.59721E-09  2.56876E-09  2.54058E-09
   2.51273E-09  2.48532E-09  2.45848E-09  2.43239E-09  2.40728E-09  2.38350E-09  2.36151E-09  2.34200E-09  2.32600E-09  2.31512E-09
   2.31195E-09  2.32107E-09  2.35101E-09  2.41969E-09  2.57132E-09  2.94705E-09  4.23476E-09  8.07828E-09  1.16880E-08  1.37205E-08
   1.43472E-08  1.43066E-08  1.42713E-08  1.44908E-08  1.46322E-08  1.39194E-08  1.15576E-08  7.59179E-09  3.84840E-09  2.78204E-09
   2.35564E-09  2.12009E-09  1.96489E-09  1.85083E-09  1.76058E-09  1.68529E-09  1.62002E-09  1.56176E-09  1.50859E-09  1.45923E-09
   1.41280E-09  1.36868E-09  1.32639E-09  1.28560E-09  1.24605E-09  1.20753E-09  1.16989E-09  1.13301E-09  1.09679E-09  1.06115E-09
   1.02602E-09  9.91354E-10  9.57108E-10  9.23248E-10  8.89742E-10  8.56568E-10  8.23703E-10  7.91142E-10  7.58859E-10  7.26846E-10
   6.95095E-10  6.63603E-10  6.32359E-10  6.01363E-10  5.70602E-10  5.40082E-10  5.09804E-10  4.79760E-10  4.49948E-10  4.20376E-10
   3.91043E-10  3.61949E-10  3.33094E-10  3.04477E-10  2.76101E-10  2.47979E-10  2.20099E-10  1.92468E-10  1.65097E-10  1.37981E-10
   1.11124E-10  8.45305E-11  5.82049E-11  3.21462E-11  6.36299E-12 -1.91421E-11 -4.43685E-11 -6.93114E-11 -9.39667E-11 -1.18327E-10
  -1.42396E-10 -1.66164E-10 -1.89629E-10 -2.12786E-10 -2.35633E-10 -2.58166E-10 -2.80381E-10 -3.02273E-10 -3.23839E-10 -3.45076E-10
  -3.65979E-10 -3.86546E-10 -4.06772E-10 -4.26654E-10 -4.46188E-10 -4.65369E-10 -4.84196E-10 -5.02664E-10 -5.20769E-10 -5.38509E-10
  -5.55879E-10 -5.72878E-10 -5.89500E-10 -6.05742E-10 -6.21603E-10 -6.37078E-10 -6.52163E-10 -6.66857E-10 -6.81156E-10 -6.95056E-10
  -7.08556E-10 -7.21650E-10 -7.34339E-10 -7.46618E-10 -7.58484E-10 -7.69935E-10 -7.80969E-10 -7.91582E-10 -8.01774E-10 -8.11539E-10
  -8.20877E-10 -8.29788E-10 -8.38265E-10 -8.46307E-10 -8.53913E-10 -8.61082E-10 -8.67809E-10 -8.74094E-10 -8.79937E-10 -8.85332E-10
  -8.90280E-10 -8.94777E-10 -8.98826E-10 -9.02421E-10 -9.05563E-10 -9.08251E-10 -9.10481E-10 -9.12254E-10 -9.13567E-10 -9.14421E-10
  -9.14815E-10 -9.14749E-10 -9.14217E-10 -9.13222E-10 -9.11764E-10 -9.09842E-10 -9.07454E-10 -9.04600E-10 -9.01281E-10 -8.97495E-10
  -8.93242E-10 -8.88523E-10 -8.83337E-10 -8.77684E-10 -8.71564E-10 -8.64978E-10 -8.57925E-10 -8.50405E-10 -8.42420E-10 -8.33969E-10
  -8.25054E-10 -8.15674E-10 -8.05831E-10 -7.95526E-10 -7.84758E-10 -7.73530E-10 -7.61841E-10 -7.49694E-10 -7.37090E-10 -7.24029E-10
  -7.10512E-10 -6.96542E-10 -6.82120E-10 -6.67247E-10 -6.51925E-10 -6.36155E-10 -6.19939E-10 -6.03280E-10 -5.86179E-10 -5.68639E-10
  -5.50661E-10 -5.32247E-10 -5.13399E-10 -4.94121E-10 -4.74415E-10 -4.54282E-10 -4.33726E-10 -4.12748E-10 -3.91353E-10 -3.69542E-10
  -3.47318E-10 -3.24685E-10 -3.01645E-10 -2.78201E-10 -2.54357E-10 -2.30116E-10 -2.05481E-10 -1.80456E-10 -1.55043E-10 -1.29247E-10
  -1.03071E-10 -7.65185E-11 -4.95935E-11
 NY background values follow
    -6.946E-10   -6.404E-10   -5.865E-10   -5.330E-10   -4.799E-10   -4.271E-10   -3.747E-10   -3.226E-10   -2.710E-10   -2.197E-10
    -1.688E-10   -1.183E-10   -6.819E-11   -1.850E-11    3.079E-11    7.966E-11    1.281E-10    1.762E-10    2.238E-10    2.709E-10
     3.177E-10    3.640E-10    4.098E-10    4.552E-10    5.002E-10    5.447E-10    5.887E-10    6.323E-10    6.754E-10    7.180E-10
     7.602E-10    8.019E-10    8.431E-10    8.838E-10    9.240E-10    9.638E-10    1.003E-09    1.042E-09    1.080E-09    1.118E-09
     1.155E-09    1.192E-09    1.228E-09    1.264E-09    1.299E-09    1.334E-09    1.368E-09    1.401E-09    1.434E-09    1.467E-09
     1.499E-09    1.531E-09    1.562E-09    1.592E-09    1.622E-09    1.651E-09    1.680E-09    1.709E-09    1.736E-09    1.764E-09
     1.790E-09    1.817E-09    1.842E-09    1.867E-09    1.892E-09    1.916E-09    1.939E-09    1.962E-09    1.985E-09    2.007E-09
     2.028E-09    2.049E-09    2.069E-09    2.088E-09    2.108E-09    2.126E-09    2.144E-09    2.162E-09    2.179E-09    2.195E-09
     2.211E-09    2.226E-09    2.241E-09    2.255E-09    2.269E-09    2.282E-09    2.295E-09    2.307E-09    2.319E-09    2.330E-09
     2.340E-09    2.350E-09    2.360E-09    2.369E-09    2.377E-09    2.385E-09    2.393E-09    2.400E-09    2.406E-09    2.412E-09
     2.417E-09    2.422E-09    2.426E-09    2.430E-09    2.434E-09    2.437E-09    2.439E-09    2.441E-09    2.442E-09    2.443E-09
     2.444E-09    2.444E-09    2.443E-09    2.442E-09    2.441E-09    2.439E-09    2.437E-09    2.434E-09    2.431E-09    2.427E-09
     2.423E-09    2.419E-09    2.414E-09    2.408E-09    2.402E-09    2.396E-09    2.389E-09    2.382E-09    2.375E-09    2.367E-09
     2.358E-09    2.350E-09    2.341E-09    2.331E-09    2.321E-09    2.311E-09    2.300E-09    2.289E-09    2.278E-09    2.266E-09
     2.254E-09    2.242E-09    2.229E-09    2.216E-09    2.202E-09    2.189E-09    2.175E-09    2.160E-09    2.145E-09    2.130E-09
     2.115E-09    2.099E-09    2.083E-09    2.067E-09    2.051E-09    2.034E-09    2.017E-09    2.000E-09    1.982E-09    1.964E-09
     1.946E-09    1.928E-09    1.909E-09    1.891E-09    1.872E-09    1.852E-09    1.833E-09    1.813E-09    1.793E-09    1.773E-09
     1.753E-09    1.733E-09    1.712E-09    1.691E-09    1.670E-09    1.649E-09    1.628E-09    1.607E-09    1.585E-09    1.564E-09
     1.542E-09    1.520E-09    1.498E-09    1.476E-09    1.454E-09    1.431E-09    1.409E-09    1.386E-09    1.364E-09    1.341E-09
     1.318E-09    1.296E-09    1.273E-09    1.250E-09    1.227E-09    1.204E-09    1.181E-09    1.158E-09    1.135E-09    1.112E-09
     1.089E-09    1.066E-09    1.043E-09    1.019E-09    9.965E-10    9.735E-10    9.505E-10    9.276E-10    9.047E-10    8.818E-10
     8.590E-10    8.363E-10    8.137E-10    7.911E-10    7.686E-10    7.461E-10    7.238E-10    7.016E-10    6.794E-10    6.574E-10
     6.355E-10    6.137E-10    5.920E-10    5.705E-10    5.491E-10    5.278E-10    5.067E-10    4.858E-10    4.650E-10    4.443E-10
     4.239E-10    4.036E-10    3.835E-10    3.635E-10    3.438E-10    3.243E-10    3.049E-10    2.858E-10    2.669E-10    2.482E-10
     2.297E-10    2.115E-10    1.934E-10    1.756E-10    1.581E-10    1.408E-10    1.238E-10    1.070E-10    9.043E-11    7.417E-11
     5.817E-11    4.245E-11    2.700E-11    1.184E-11   -3.032E-12   -1.761E-11   -3.190E-11   -4.589E-11   -5.957E-11   -7.295E-11
    -8.601E-11   -9.876E-11   -1.112E-10   -1.233E-10   -1.351E-10   -1.465E-10   -1.576E-10   -1.684E-10   -1.788E-10   -1.889E-10
    -1.987E-10   -2.081E-10   -2.171E-10   -2.258E-10   -2.341E-10   -2.420E-10   -2.496E-10   -2.568E-10   -2.637E-10   -2.701E-10
    -2.762E-10   -2.819E-10   -2.872E-10   -2.922E-10   -2.967E-10   -3.009E-10   -3.046E-10   -3.080E-10   -3.109E-10   -3.135E-10
    -3.157E-10   -3.174E-10   -3.188E-10   -3.198E-10   -3.203E-10   -3.204E-10   -3.202E-10   -3.195E-10   -3.184E-10   -3.168E-10
    -3.149E-10   -3.125E-10   -3.098E-10   -3.066E-10   -3.029E-10   -2.989E-10   -2.944E-10   -2.896E-10   -2.842E-10   -2.785E-10
    -2.723E-10   -2.658E-10   -2.588E-10   -2.513E-10   -2.435E-10   -2.352E-10   -2.264E-10   -2.173E-10   -2.077E-10   -1.977E-10
    -1.873E-10   -1.765E-10   -1.652E-10   -1.535E-10   -1.414E-10   -1.289E-10   -1.159E-10   -1.026E-10   -8.877E-11   -7.456E-11
    -5.993E-11   -4.488E-11   -2.942E-11   -1.355E-11    2.733E-12    1.943E-11    3.653E-11    5.404E-11    7.195E-11    9.027E-11
     1.090E-10    1.281E-10    1.476E-10    1.675E-10    1.878E-10    2.085E-10    2.296E-10    2.511E-10    2.729E-10    2.951E-10
     3.178E-10    3.407E-10    3.641E-10    3.878E-10    4.119E-10    4.363E-10    4.611E-10    4.863E-10    5.118E-10    5.377E-10
     5.639E-10    5.905E-10    6.174E-10
 Asp      Conc. = 4.14E-12
  -6.94065E-10 -6.39329E-10 -5.85223E-10 -5.31418E-10 -4.78075E-10 -4.25238E-10 -3.72851E-10 -3.21161E-10 -2.69813E-10 -2.18788E-10
  -1.68110E-10 -1.17796E-10 -6.78569E-11 -1.83009E-11  3.08641E-11  7.96255E-11  1.27976E-10  1.75911E-10  2.23422E-10  2.70506E-10
   3.17155E-10  3.63366E-10  4.09132E-10  4.54450E-10  4.99314E-10  5.43720E-10  5.87661E-10  6.31135E-10  6.74137E-10  7.16659E-10
   7.58700E-10  8.00250E-10  8.41306E-10  8.81863E-10  9.21913E-10  9.61458E-10  1.00060E-09  1.03937E-09  1.07780E-09  1.11575E-09
   1.15301E-09  1.18954E-09  1.22538E-09  1.26106E-09  1.29639E-09  1.33210E-09  1.36750E-09  1.40180E-09  1.43523E-09  1.46833E-09
   1.50128E-09  1.53399E-09  1.56628E-09  1.59762E-09  1.62751E-09  1.65648E-09  1.68463E-09  1.71298E-09  1.74092E-09  1.76795E-09
   1.79428E-09  1.82018E-09  1.84554E-09  1.87046E-09  1.89505E-09  1.91905E-09  1.94227E-09  1.96496E-09  1.98714E-09  2.00881E-09
   2.02996E-09  2.05058E-09  2.07068E-09  2.09024E-09  2.10927E-09  2.12777E-09  2.14573E-09  2.16316E-09  2.18004E-09  2.19640E-09
   2.21222E-09  2.22751E-09  2.24225E-09  2.25647E-09  2.27016E-09  2.28331E-09  2.29594E-09  2.30803E-09  2.31960E-09  2.33064E-09
   2.34115E-09  2.35114E-09  2.36061E-09  2.36956E-09  2.37800E-09  2.38591E-09  2.39331E-09  2.40020E-09  2.40658E-09  2.41245E-09
   2.41782E-09  2.42268E-09  2.42705E-09  2.43091E-09  2.43428E-09  2.43716E-09  2.43955E-09  2.44145E-09  2.44288E-09  2.44381E-09
   2.44428E-09  2.44426E-09  2.44378E-09  2.44282E-09  2.44141E-09  2.43953E-09  2.43720E-09  2.43441E-09  2.43118E-09  2.42751E-09
   2.42338E-09  2.41881E-09  2.41381E-09  2.40839E-09  2.40253E-09  2.39625E-09  2.38956E-09  2.38244E-09  2.37492E-09  2.36700E-09
   2.35867E-09  2.34995E-09  2.34083E-09  2.33133E-09  2.32144E-09  2.31118E-09  2.30054E-09  2.28953E-09  2.27816E-09  2.26643E-09
   2.25434E-09  2.24191E-09  2.22913E-09  2.21602E-09  2.20257E-09  2.18878E-09  2.17467E-09  2.16025E-09  2.14551E-09  2.13047E-09
   2.11513E-09  2.09948E-09  2.08354E-09  2.06733E-09  2.05082E-09  2.03404E-09  2.01700E-09  1.99969E-09  1.98212E-09  1.96431E-09
   1.94625E-09  1.92796E-09  1.90944E-09  1.89072E-09  1.87182E-09  1.85282E-09  1.83414E-09  1.81689E-09  1.79929E-09  1.78053E-09
   1.76070E-09  1.74027E-09  1.71968E-09  1.69907E-09  1.67827E-09  1.65681E-09  1.63417E-09  1.61038E-09  1.58654E-09  1.56426E-09
   1.54224E-09  1.52021E-09  1.49811E-09  1.47593E-09  1.45365E-09  1.43129E-09  1.40884E-09  1.38631E-09  1.36371E-09  1.34103E-09
   1.31829E-09  1.29548E-09  1.27263E-09  1.24972E-09  1.22678E-09  1.20379E-09  1.18078E-09  1.15775E-09  1.13469E-09  1.11163E-09
   1.08857E-09  1.06550E-09  1.04243E-09  1.01939E-09  9.96356E-10  9.73349E-10  9.50372E-10  9.27440E-10  9.04546E-10  8.81698E-10
   8.58906E-10  8.36178E-10  8.13517E-10  7.90930E-10  7.68417E-10  7.45989E-10  7.23656E-10  7.01418E-10  6.79278E-10  6.57248E-10
   6.35335E-10  6.13541E-10  5.91872E-10  5.70331E-10  5.48923E-10  5.27666E-10  5.06550E-10  4.85586E-10  4.64785E-10  4.44148E-10
   4.23679E-10  4.03386E-10  3.83274E-10  3.63345E-10  3.43609E-10  3.24070E-10  3.04731E-10  2.85597E-10  2.66675E-10  2.47973E-10
   2.29489E-10  2.11233E-10  1.93210E-10  1.75423E-10  1.57877E-10  1.40577E-10  1.23528E-10  1.06735E-10  9.02025E-11  7.39350E-11
   5.79370E-11  4.22124E-11  2.67664E-11  1.16035E-11 -3.27279E-12 -1.78566E-11 -3.21460E-11 -4.61352E-11 -5.98204E-11 -7.31977E-11
  -8.62625E-11 -9.90127E-11 -1.11443E-10 -1.23549E-10 -1.35328E-10 -1.46777E-10 -1.57890E-10 -1.68665E-10 -1.79099E-10 -1.89187E-10
  -1.98929E-10 -2.08316E-10 -2.17351E-10 -2.26025E-10 -2.34340E-10 -2.42290E-10 -2.49872E-10 -2.57084E-10 -2.63924E-10 -2.70387E-10
  -2.76472E-10 -2.82177E-10 -2.87498E-10 -2.92432E-10 -2.96977E-10 -3.01133E-10 -3.04893E-10 -3.08259E-10 -3.11230E-10 -3.13799E-10
  -3.15967E-10 -3.17730E-10 -3.19090E-10 -3.20042E-10 -3.20586E-10 -3.20720E-10 -3.20442E-10 -3.19750E-10 -3.18644E-10 -3.17121E-10
  -3.15183E-10 -3.12827E-10 -3.10050E-10 -3.06853E-10 -3.03235E-10 -2.99195E-10 -2.94732E-10 -2.89846E-10 -2.84536E-10 -2.78801E-10
  -2.72641E-10 -2.66056E-10 -2.59046E-10 -2.51609E-10 -2.43746E-10 -2.35458E-10 -2.26743E-10 -2.17603E-10 -2.08037E-10 -1.98046E-10
  -1.87629E-10 -1.76788E-10 -1.65523E-10 -1.53835E-10 -1.41724E-10 -1.29191E-10 -1.16236E-10 -1.02862E-10 -8.90678E-11 -7.48557E-11
  -6.02266E-11 -4.51817E-11 -2.97223E-11 -1.38498E-11  2.43434E-12  1.91285E-11  3.62311E-11  5.37405E-11  7.16547E-11  8.99721E-11
   1.08691E-10  1.27808E-10  1.47323E-10  1.67232E-10  1.87534E-10  2.08226E-10  2.29306E-10  2.50772E-10  2.72620E-10  2.94848E-10
   3.17454E-10  3.40434E-10  3.63786E-10  3.87507E-10  4.11594E-10  4.36044E-10  4.60853E-10  4.86019E-10  5.11537E-10  5.37405E-10
   5.63620E-10  5.90177E-10  6.17073E-10
 GABA     Conc. = 7.50E-11
  -7.33766E-10 -6.80340E-10 -6.27296E-10 -5.74642E-10 -5.22386E-10 -4.70539E-10 -4.19111E-10 -3.68110E-10 -3.17550E-10 -2.67441E-10
  -2.17795E-10 -1.68627E-10 -1.19949E-10 -7.17790E-11 -2.41343E-11  2.29697E-11  6.95043E-11  1.15436E-10  1.60740E-10  2.05375E-10
   2.49289E-10  2.92423E-10  3.34699E-10  3.76014E-10  4.16242E-10  4.55196E-10  4.92626E-10  5.28244E-10  5.62136E-10  6.01019E-10
   6.48572E-10  6.89986E-10  7.34814E-10  7.96553E-10  8.60164E-10  9.21709E-10  9.87386E-10  1.05508E-09  1.12024E-09  1.17863E-09
   1.22918E-09  1.27841E-09  1.32309E-09  1.34865E-09  1.37184E-09  1.40234E-09  1.42534E-09  1.44405E-09  1.46547E-09  1.48860E-09
   1.51269E-09  1.53725E-09  1.56195E-09  1.58655E-09  1.61090E-09  1.63482E-09  1.65818E-09  1.68086E-09  1.70273E-09  1.72379E-09
   1.74432E-09  1.76743E-09  1.80432E-09  1.84053E-09  1.87079E-09  1.91842E-09  1.97102E-09  2.01564E-09  2.05930E-09  2.10236E-09
   2.14164E-09  2.17316E-09  2.19462E-09  2.21013E-09  2.22754E-09  2.22957E-09  2.22141E-09  2.22879E-09  2.23473E-09  2.23470E-09
   2.24392E-09  2.25384E-09  2.26025E-09  2.27864E-09  2.30140E-09  2.31850E-09  2.34083E-09  2.36737E-09  2.39244E-09  2.41632E-09
   2.43634E-09  2.45476E-09  2.47482E-09  2.48524E-09  2.48697E-09  2.49569E-09  2.49983E-09  2.49475E-09  2.49368E-09  2.49351E-09
   2.49097E-09  2.48907E-09  2.48789E-09  2.48712E-09  2.48655E-09  2.48601E-09  2.48537E-09  2.48459E-09  2.48362E-09  2.48240E-09
   2.48091E-09  2.47909E-09  2.47695E-09  2.47446E-09  2.47162E-09  2.46842E-09  2.46485E-09  2.46091E-09  2.45658E-09  2.45189E-09
   2.44678E-09  2.44130E-09  2.43543E-09  2.42918E-09  2.42253E-09  2.41550E-09  2.40809E-09  2.40029E-09  2.39211E-09  2.38356E-09
   2.37462E-09  2.36532E-09  2.35564E-09  2.34560E-09  2.33519E-09  2.32443E-09  2.31331E-09  2.30183E-09  2.29001E-09  2.27784E-09
   2.26534E-09  2.25250E-09  2.23932E-09  2.22584E-09  2.21201E-09  2.19787E-09  2.18342E-09  2.16867E-09  2.15360E-09  2.13825E-09
   2.12262E-09  2.10668E-09  2.09048E-09  2.07401E-09  2.05727E-09  2.04027E-09  2.02303E-09  2.00557E-09  1.98788E-09  1.97000E-09
   1.95196E-09  1.93381E-09  1.91564E-09  1.89765E-09  1.88029E-09  1.86500E-09  1.85897E-09  1.88230E-09  1.90312E-09  1.90603E-09
   1.89289E-09  1.87203E-09  1.85107E-09  1.83296E-09  1.81412E-09  1.78592E-09  1.73923E-09  1.67398E-09  1.61011E-09  1.57694E-09
   1.55075E-09  1.52650E-09  1.50300E-09  1.47983E-09  1.45682E-09  1.43387E-09  1.41093E-09  1.38799E-09  1.36502E-09  1.34202E-09
   1.31899E-09  1.29592E-09  1.27282E-09  1.24969E-09  1.22653E-09  1.20335E-09  1.18015E-09  1.15693E-09  1.13370E-09  1.11047E-09
   1.08725E-09  1.06402E-09  1.04081E-09  1.01762E-09  9.94447E-10  9.71304E-10  9.48194E-10  9.25132E-10  9.02111E-10  8.79141E-10
   8.56229E-10  8.33383E-10  8.10606E-10  7.87907E-10  7.65284E-10  7.42748E-10  7.20310E-10  6.97968E-10  6.75726E-10  6.53597E-10
   6.31586E-10  6.09697E-10  5.87933E-10  5.66300E-10  5.44801E-10  5.23455E-10  5.02251E-10  4.81201E-10  4.60316E-10  4.39596E-10
