 LCModel (Version 6.3-1R) Copyright: S.W. Provencher.          Ref.: Magn. Reson. Med. 30:672-679 (1993).                
 onepulse 24x4_ftSpec_smooth_lcm
 26 lines in following concentration table = NCONC+1
    Conc.  %SD /Cr+PCr  Metabolite                                         
 4.67E-10  37%   2.602 Ala                                                 
 3.26E-09  10%  18.138 Asp                                                 
    0.000 999%   0.000 Cr                                                  
 6.24E-10  47%   3.478 GABA                                                
    0.000 999%   0.000 Glc                                                 
    0.000 999%   0.000 Gln                                                 
    0.000 999%   0.000 Glu                                                 
 9.93E-12 999% 5.5E-02 Glyc                                                
    0.000 999%   0.000 GPC                                                 
    0.000 999%   0.000 GSH                                                 
 1.85E-09  24%  10.319 Ins                                                 
 1.60E-10 106%   0.893 Lac                                                 
    0.000 999%   0.000 NAAG                                                
    0.000 999%   0.000 NAA                                                 
    0.000 999%   0.000 PCh                                                 
 1.80E-10  81%   1.000 PCr                                                 
 9.03E-10  37%   5.032 PE                                                  
 5.95E-11 140%   0.331 Scyllo                                              
 6.07E-09   9%  33.803 Ser                                                 
    0.000 999%   0.000 Tau                                                 
    0.000 999%   0.000 GPC+PCh                                             
    0.000 999%   0.000 NAA+NAAG                                            
 1.86E-09  10%  10.374 Ins+Glyc                                            
 1.80E-10  81%   1.000 Cr+PCr                                              
    0.000 999%   0.000 Glu+Gln                                             
   6 lines in following misc. output table
  FWHM = 0.123 ppm    S/N =   7                                            
  Data shift = 0.470 ppm                                                   
  Ph: -54 deg      60.3 deg/ppm                                            
  alphaB,S = 1.6E+00,   6.4E+00                                            
   10 spline knots.   Ns = 5(1)                                            
  (10) 6 infls.   ( 9) 5 extrs.                                            
  363 points on ppm-axis = NY
      4.250000     4.238821     4.227641     4.216462     4.205282     4.194103     4.182923     4.171744     4.160564     4.149385
      4.138206     4.127026     4.115847     4.104667     4.093488     4.082308     4.071129     4.059949     4.048770     4.037591
      4.026411     4.015232     4.004052     3.992873     3.981693     3.970514     3.959334     3.948155     3.936975     3.925796
      3.914617     3.903437     3.892258     3.881078     3.869899     3.858719     3.847540     3.836360     3.825181     3.814002
      3.802822     3.791643     3.780463     3.769284     3.758104     3.746925     3.735745     3.724566     3.713387     3.702207
      3.691028     3.679848     3.668669     3.657489     3.646310     3.635130     3.623951     3.612772     3.601592     3.590413
      3.579233     3.568054     3.556874     3.545695     3.534515     3.523336     3.512156     3.500977     3.489798     3.478618
      3.467439     3.456259     3.445080     3.433900     3.422721     3.411541     3.400362     3.389183     3.378003     3.366824
      3.355644     3.344465     3.333285     3.322106     3.310926     3.299747     3.288568     3.277388     3.266209     3.255029
      3.243850     3.232670     3.221491     3.210311     3.199132     3.187953     3.176773     3.165594     3.154414     3.143235
      3.132055     3.120876     3.109696     3.098517     3.087337     3.076158     3.064979     3.053799     3.042620     3.031440
      3.020261     3.009081     2.997902     2.986722     2.975543     2.964364     2.953184     2.942005     2.930825     2.919646
      2.908466     2.897287     2.886107     2.874928     2.863749     2.852569     2.841390     2.830210     2.819031     2.807851
      2.796672     2.785492     2.774313     2.763134     2.751954     2.740775     2.729595     2.718416     2.707236     2.696057
      2.684877     2.673698     2.662519     2.651339     2.640160     2.628980     2.617801     2.606621     2.595442     2.584262
      2.573083     2.561903     2.550724     2.539545     2.528365     2.517186     2.506006     2.494827     2.483647     2.472468
      2.461288     2.450109     2.438930     2.427750     2.416571     2.405391     2.394212     2.383032     2.371853     2.360673
      2.349494     2.338315     2.327135     2.315956     2.304776     2.293597     2.282417     2.271238     2.260058     2.248879
      2.237700     2.226520     2.215341     2.204161     2.192982     2.181802     2.170623     2.159443     2.148264     2.137084
      2.125905     2.114726     2.103546     2.092367     2.081187     2.070008     2.058828     2.047649     2.036469     2.025290
      2.014111     2.002931     1.991752     1.980572     1.969393     1.958213     1.947034     1.935854     1.924675     1.913496
      1.902316     1.891137     1.879957     1.868778     1.857598     1.846419     1.835239     1.824060     1.812881     1.801701
      1.790522     1.779342     1.768163     1.756983     1.745804     1.734624     1.723445     1.712265     1.701086     1.689907
      1.678727     1.667548     1.656368     1.645189     1.634009     1.622830     1.611650     1.600471     1.589292     1.578112
      1.566933     1.555753     1.544574     1.533394     1.522215     1.511035     1.499856     1.488677     1.477497     1.466318
      1.455138     1.443959     1.432779     1.421600     1.410420     1.399241     1.388062     1.376882     1.365703     1.354523
      1.343344     1.332164     1.320985     1.309805     1.298626     1.287446     1.276267     1.265088     1.253908     1.242729
      1.231549     1.220370     1.209190     1.198011     1.186831     1.175652     1.164473     1.153293     1.142114     1.130934
      1.119755     1.108575     1.097396     1.086216     1.075037     1.063858     1.052678     1.041499     1.030319     1.019140
      1.007960     0.996781     0.985601     0.974422     0.963243     0.952063     0.940884     0.929704     0.918525     0.907345
      0.896166     0.884986     0.873807     0.862628     0.851448     0.840269     0.829089     0.817910     0.806730     0.795551
      0.784371     0.773192     0.762012     0.750833     0.739654     0.728474     0.717295     0.706115     0.694936     0.683756
      0.672577     0.661397     0.650218     0.639039     0.627859     0.616680     0.605500     0.594321     0.583141     0.571962
      0.560782     0.549603     0.538424     0.527244     0.516065     0.504885     0.493706     0.482526     0.471347     0.460167
      0.448988     0.437809     0.426629     0.415450     0.404270     0.393091     0.381911     0.370732     0.359552     0.348373
      0.337193     0.326014     0.314835     0.303655     0.292476     0.281296     0.270117     0.258937     0.247758     0.236578
      0.225399     0.214220     0.203040
 NY phased data points follow
  -5.21187E-09 -5.20885E-09 -5.61607E-09 -5.57525E-09 -6.15307E-09 -5.68562E-09 -6.18236E-09 -5.52436E-09 -6.73956E-09 -5.59712E-09
  -6.08609E-09 -5.47141E-09 -5.65626E-09 -5.80240E-09 -6.09382E-09 -5.89354E-09 -5.85975E-09 -5.64565E-09 -5.74667E-09 -5.48671E-09
  -6.10067E-09 -6.61668E-09 -7.42133E-09 -7.19594E-09 -7.05542E-09 -6.28095E-09 -6.38720E-09 -6.13231E-09 -5.90373E-09 -5.84614E-09
  -5.95131E-09 -5.60408E-09 -6.18293E-09 -5.61749E-09 -5.92802E-09 -5.20896E-09 -5.11985E-09 -4.98864E-09 -5.13344E-09 -4.74308E-09
  -4.87308E-09 -4.81423E-09 -4.90941E-09 -4.72401E-09 -4.56180E-09 -4.07420E-09 -4.14279E-09 -4.46397E-09 -4.53503E-09 -4.66279E-09
  -4.72271E-09 -5.14977E-09 -6.43446E-09 -6.74349E-09 -6.76063E-09 -6.62707E-09 -6.16963E-09 -5.63335E-09 -5.39792E-09 -5.04840E-09
  -5.04522E-09 -4.84437E-09 -4.54559E-09 -4.23048E-09 -4.04421E-09 -3.92695E-09 -4.43571E-09 -5.50590E-09 -6.84900E-09 -7.48532E-09
  -8.34290E-09 -7.84274E-09 -7.27355E-09 -6.55744E-09 -6.53528E-09 -6.14097E-09 -6.16953E-09 -5.33766E-09 -5.98139E-09 -5.25085E-09
  -5.37953E-09 -4.76021E-09 -4.76017E-09 -3.97033E-09 -3.82994E-09 -3.51565E-09 -3.32272E-09 -3.19598E-09 -2.95981E-09 -3.01851E-09
  -2.81177E-09 -2.54231E-09 -2.95899E-09 -2.63543E-09 -2.59538E-09 -2.65856E-09 -2.35229E-09 -1.93078E-09 -1.93134E-09 -1.41756E-09
  -1.66545E-09 -1.88197E-09 -1.62078E-09 -2.06069E-09 -2.04417E-09 -1.61990E-09 -2.07727E-09 -1.63022E-09 -1.74672E-09 -1.61399E-09
  -1.99665E-09 -1.90281E-09 -1.87374E-09 -1.52068E-09 -1.30942E-09 -1.44472E-09 -2.16074E-09 -1.96779E-09 -2.42714E-09 -2.45842E-09
  -2.76819E-09 -2.70564E-09 -2.96070E-09 -2.93251E-09 -2.98122E-09 -2.44578E-09 -2.64528E-09 -3.02269E-09 -2.97926E-09 -3.59256E-09
  -3.39081E-09 -2.75041E-09 -2.89711E-09 -2.68390E-09 -2.95133E-09 -3.02561E-09 -2.81578E-09 -2.12790E-09 -2.49435E-09 -2.20333E-09
  -1.97398E-09 -1.48724E-09 -8.84771E-10 -8.35532E-10 -1.19297E-09 -5.02334E-10 -7.03796E-10 -3.95621E-10 -3.27806E-10 -2.71929E-11
   1.61882E-10  3.58765E-10  9.06285E-10  1.15432E-09  1.04682E-09  1.14555E-09  1.91152E-09  1.82820E-09  1.03584E-09  5.88364E-10
  -1.85152E-10  1.35451E-09  3.51592E-09  5.43430E-09  7.31132E-09  8.64667E-09  1.07239E-08  1.21373E-08  1.38313E-08  1.53537E-08
   1.63471E-08  1.74471E-08  1.86170E-08  1.93147E-08  1.95498E-08  1.93747E-08  1.86087E-08  1.76182E-08  1.60665E-08  1.47656E-08
   1.25037E-08  1.02015E-08  7.61890E-09  5.26015E-09  3.49624E-09  1.77350E-09 -2.44852E-10 -1.09894E-09 -1.90863E-09 -2.08448E-09
  -1.63627E-09 -1.34651E-09 -2.34735E-10  1.02090E-10  6.94365E-10  1.28798E-09  1.57355E-09  1.18136E-09  1.52976E-09  1.03377E-09
   9.93508E-10  5.53184E-10  4.86016E-10  8.89300E-10  1.04874E-09  1.67197E-09  2.05614E-09  1.93887E-09  1.87235E-09  1.22182E-09
   9.97996E-10  6.28045E-10  7.95251E-10  1.13181E-09  1.46971E-09  2.00351E-09  2.21756E-09  2.41949E-09  2.09536E-09  1.59918E-09
   1.74987E-09  9.36559E-10  8.72238E-10  6.67321E-10  1.14716E-09  6.44697E-10  1.06193E-09  1.07829E-09  1.17737E-09  1.40758E-09
   1.43934E-09  9.95438E-10  1.21273E-09  7.51374E-10  6.93164E-10  1.70206E-10  4.30176E-10  3.91822E-11  2.55214E-10 -2.75453E-10
  -4.36004E-10 -3.03250E-10 -4.15310E-10 -2.76847E-10 -5.53615E-10 -7.85879E-10 -7.93190E-10 -1.08521E-09 -9.63624E-10 -8.33869E-10
  -8.22619E-10 -2.66115E-10 -5.34754E-10 -6.38680E-10 -7.63521E-10 -5.28807E-10 -8.12818E-10 -1.16395E-09 -9.58844E-10 -1.20488E-09
  -1.13737E-09 -1.19031E-09 -7.76567E-10 -8.83731E-10 -9.28705E-10 -1.15362E-09 -5.37062E-10 -6.18411E-10 -6.53834E-10 -9.27670E-10
  -4.55262E-10 -1.05335E-09 -7.68677E-10 -1.02986E-09 -1.09029E-09 -1.19130E-09 -1.33053E-09 -1.09113E-09 -1.56700E-09 -1.46701E-09
  -1.92133E-09 -1.19236E-09 -1.61931E-09 -1.69309E-09 -1.89969E-09 -1.77109E-09 -1.51109E-09 -1.24519E-09 -1.68306E-09 -1.62658E-09
  -1.96929E-09 -1.49563E-09 -1.99185E-09 -1.94470E-09 -1.86230E-09 -2.17853E-09 -1.60867E-09 -1.56283E-09 -1.90535E-09 -1.99545E-09
  -2.04893E-09 -1.98817E-09 -1.89434E-09 -1.91032E-09 -2.44838E-09 -2.01139E-09 -1.98622E-09 -2.14896E-09 -2.42079E-09 -2.11723E-09
  -2.48653E-09 -2.29814E-09 -2.63781E-09 -2.02273E-09 -2.51563E-09 -2.24448E-09 -2.82725E-09 -2.39286E-09 -2.57762E-09 -2.64694E-09
  -2.71473E-09 -2.55235E-09 -2.87236E-09 -2.61845E-09 -2.76002E-09 -2.66272E-09 -2.67655E-09 -2.81355E-09 -3.10468E-09 -3.23340E-09
  -3.39727E-09 -2.73166E-09 -3.14760E-09 -3.42452E-09 -3.34386E-09 -3.27831E-09 -3.55728E-09 -3.47374E-09 -3.35456E-09 -3.47338E-09
  -3.83890E-09 -3.44581E-09 -3.76910E-09 -3.79715E-09 -3.73583E-09 -3.71469E-09 -3.75561E-09 -3.66780E-09 -4.25862E-09 -3.61835E-09
  -3.73490E-09 -3.95807E-09 -4.15947E-09 -3.76396E-09 -4.25528E-09 -3.66779E-09 -3.68817E-09 -3.74689E-09 -4.11020E-09 -3.74748E-09
  -3.94304E-09 -3.87478E-09 -3.77817E-09
 NY points of the fit to the data follow
  -2.39809E-09 -4.23573E-09 -3.31797E-09 -4.26991E-09 -6.06907E-09 -7.18788E-09 -8.00709E-09 -8.56302E-09 -6.78881E-09 -4.78272E-09
  -5.34611E-09 -6.38127E-09 -5.84383E-09 -4.58916E-09 -3.89350E-09 -4.50953E-09 -6.82500E-09 -5.88669E-09 -3.97961E-09 -5.20142E-09
  -7.86040E-09 -7.98784E-09 -6.90972E-09 -6.94528E-09 -7.38704E-09 -6.30322E-09 -5.70278E-09 -5.50385E-09 -5.92470E-09 -5.73482E-09
  -5.26639E-09 -4.15944E-09 -4.48746E-09 -5.85850E-09 -6.19680E-09 -5.06387E-09 -5.50742E-09 -5.71921E-09 -5.81277E-09 -5.82967E-09
  -5.76480E-09 -5.14297E-09 -5.22760E-09 -5.85629E-09 -4.87701E-09 -4.44240E-09 -3.39864E-09 -4.19290E-09 -4.68777E-09 -4.19435E-09
  -3.02262E-09 -3.85579E-09 -4.55829E-09 -4.09717E-09 -3.42505E-09 -3.63995E-09 -3.00900E-09 -5.63049E-09 -6.48811E-09 -5.65135E-09
  -4.72614E-09 -5.67841E-09 -5.50247E-09 -5.57374E-09 -5.90518E-09 -5.51906E-09 -5.12939E-09 -5.18424E-09 -5.33703E-09 -5.26309E-09
  -5.24547E-09 -5.31815E-09 -5.43973E-09 -5.59624E-09 -5.13653E-09 -5.28829E-09 -5.78265E-09 -5.48956E-09 -5.30336E-09 -5.24291E-09
  -5.09481E-09 -5.13995E-09 -4.85635E-09 -4.44708E-09 -4.54660E-09 -4.40905E-09 -4.08020E-09 -4.00290E-09 -3.88498E-09 -3.73336E-09
  -3.66406E-09 -3.70778E-09 -3.40331E-09 -3.25353E-09 -3.61744E-09 -3.34313E-09 -3.05547E-09 -3.22433E-09 -3.01508E-09 -2.50750E-09
  -2.16190E-09 -2.68945E-09 -2.29214E-09 -1.49584E-09 -1.55147E-09 -1.66001E-09 -1.73618E-09 -1.35490E-09 -1.15903E-09 -8.65137E-10
  -1.01352E-09 -2.03617E-09 -1.49441E-09 -1.25085E-09 -1.98623E-09 -2.06568E-09 -2.03814E-09 -2.10424E-09 -2.33652E-09 -2.06218E-09
  -2.07412E-09 -2.24840E-09 -2.23200E-09 -2.17794E-09 -2.11337E-09 -2.04532E-09 -1.97615E-09 -1.90693E-09 -1.83806E-09 -1.76975E-09
  -1.70215E-09 -1.63530E-09 -1.56922E-09 -1.50389E-09 -1.43934E-09 -1.37554E-09 -1.31249E-09 -1.25016E-09 -1.18852E-09 -1.12756E-09
  -1.06724E-09 -1.00751E-09 -9.48331E-10 -8.89657E-10 -8.31401E-10 -7.73510E-10 -7.15877E-10 -6.58380E-10 -6.00844E-10 -5.43107E-10
  -4.84863E-10 -4.25815E-10 -3.65525E-10 -3.03344E-10 -2.38467E-10 -1.69668E-10 -9.52888E-11 -1.26272E-11  8.24246E-11  1.96773E-10
   3.42772E-10  5.44752E-10  8.57563E-10  1.43231E-09  2.83875E-09  8.06108E-09  1.14755E-08  1.27973E-08  1.45166E-08  1.71331E-08
   1.75067E-08  1.79435E-08  1.78283E-08  1.77502E-08  1.84386E-08  2.09320E-08  1.96040E-08  1.64488E-08  1.40541E-08  1.05168E-08
   4.30477E-09  2.61688E-09  1.95640E-09  1.61448E-09  1.40950E-09  1.27543E-09  1.18258E-09  1.11565E-09  1.06585E-09  1.02789E-09
   9.98322E-10  9.74812E-10  9.55765E-10  9.39987E-10  9.26649E-10  9.15104E-10  9.04856E-10  8.95512E-10  8.86790E-10  8.78425E-10
   8.70246E-10  8.62084E-10  8.53806E-10  8.45315E-10  8.36516E-10  8.27340E-10  8.17706E-10  8.07583E-10  7.96909E-10  7.85671E-10
   7.73838E-10  7.61392E-10  7.48320E-10  7.34615E-10  7.20267E-10  7.05270E-10  6.89623E-10  6.73323E-10  6.56373E-10  6.38774E-10
   6.20529E-10  6.01645E-10  5.82128E-10  5.61980E-10  5.41213E-10  5.19832E-10  4.97845E-10  4.75264E-10  4.52098E-10  4.28352E-10
   4.04041E-10  3.79178E-10  3.53768E-10  3.27826E-10  3.01364E-10  2.74395E-10  2.46929E-10  2.18976E-10  1.90552E-10  1.61669E-10
   1.32340E-10  1.02576E-10  7.23926E-11  4.18034E-11  1.08197E-11 -2.05448E-11 -5.22760E-11 -8.43579E-11 -1.16783E-10 -1.49534E-10
  -1.82596E-10 -2.15957E-10 -2.49603E-10 -2.83521E-10 -3.17692E-10 -3.52110E-10 -3.86757E-10 -4.21621E-10 -4.56684E-10 -4.91932E-10
  -5.27359E-10 -5.62951E-10 -5.98696E-10 -6.34585E-10 -6.70606E-10 -7.06750E-10 -7.43005E-10 -7.79361E-10 -8.15807E-10 -8.52332E-10
  -8.88928E-10 -9.25580E-10 -9.62281E-10 -9.99017E-10 -1.03578E-09 -1.07256E-09 -1.10934E-09 -1.14612E-09 -1.18288E-09 -1.21962E-09
  -1.25632E-09 -1.29297E-09 -1.32956E-09 -1.36608E-09 -1.40253E-09 -1.43888E-09 -1.47514E-09 -1.51128E-09 -1.54731E-09 -1.58321E-09
  -1.61896E-09 -1.65457E-09 -1.69001E-09 -1.72528E-09 -1.76038E-09 -1.79528E-09 -1.82998E-09 -1.86447E-09 -1.89874E-09 -1.93278E-09
  -1.96659E-09 -2.00014E-09 -2.03343E-09 -2.06646E-09 -2.09920E-09 -2.13167E-09 -2.16383E-09 -2.19569E-09 -2.22724E-09 -2.25846E-09
  -2.28935E-09 -2.31990E-09 -2.35010E-09 -2.37994E-09 -2.40942E-09 -2.43853E-09 -2.46726E-09 -2.49560E-09 -2.52355E-09 -2.55110E-09
  -2.57824E-09 -2.60496E-09 -2.63126E-09 -2.65714E-09 -2.68258E-09 -2.70758E-09 -2.73212E-09 -2.75622E-09 -2.77984E-09 -2.80300E-09
  -2.82569E-09 -2.84789E-09 -2.86961E-09 -2.89083E-09 -2.91155E-09 -2.93177E-09 -2.95147E-09 -2.97065E-09 -2.98931E-09 -3.00744E-09
  -3.02504E-09 -3.04209E-09 -3.05860E-09 -3.07456E-09 -3.08995E-09 -3.10478E-09 -3.11905E-09 -3.13274E-09 -3.14586E-09 -3.15839E-09
  -3.17033E-09 -3.18168E-09 -3.19244E-09 -3.20259E-09 -3.21213E-09 -3.22107E-09 -3.22939E-09 -3.23708E-09 -3.24416E-09 -3.25060E-09
  -3.25642E-09 -3.26160E-09 -3.26614E-09
 NY background values follow
    -7.401E-09   -7.397E-09   -7.392E-09   -7.387E-09   -7.381E-09   -7.373E-09   -7.366E-09   -7.357E-09   -7.348E-09   -7.337E-09
    -7.327E-09   -7.315E-09   -7.303E-09   -7.289E-09   -7.276E-09   -7.261E-09   -7.246E-09   -7.230E-09   -7.213E-09   -7.195E-09
    -7.177E-09   -7.158E-09   -7.139E-09   -7.118E-09   -7.097E-09   -7.076E-09   -7.053E-09   -7.030E-09   -7.006E-09   -6.982E-09
    -6.957E-09   -6.931E-09   -6.905E-09   -6.878E-09   -6.850E-09   -6.822E-09   -6.793E-09   -6.764E-09   -6.733E-09   -6.703E-09
    -6.671E-09   -6.639E-09   -6.607E-09   -6.574E-09   -6.540E-09   -6.506E-09   -6.471E-09   -6.435E-09   -6.399E-09   -6.363E-09
    -6.325E-09   -6.288E-09   -6.250E-09   -6.211E-09   -6.171E-09   -6.132E-09   -6.091E-09   -6.051E-09   -6.009E-09   -5.968E-09
    -5.925E-09   -5.883E-09   -5.840E-09   -5.796E-09   -5.752E-09   -5.708E-09   -5.663E-09   -5.618E-09   -5.572E-09   -5.526E-09
    -5.480E-09   -5.433E-09   -5.386E-09   -5.339E-09   -5.291E-09   -5.243E-09   -5.195E-09   -5.146E-09   -5.097E-09   -5.048E-09
    -4.999E-09   -4.949E-09   -4.899E-09   -4.849E-09   -4.799E-09   -4.748E-09   -4.697E-09   -4.646E-09   -4.595E-09   -4.544E-09
    -4.492E-09   -4.441E-09   -4.389E-09   -4.337E-09   -4.285E-09   -4.233E-09   -4.181E-09   -4.129E-09   -4.076E-09   -4.024E-09
    -3.972E-09   -3.919E-09   -3.867E-09   -3.814E-09   -3.762E-09   -3.709E-09   -3.657E-09   -3.605E-09   -3.552E-09   -3.500E-09
    -3.448E-09   -3.396E-09   -3.344E-09   -3.292E-09   -3.240E-09   -3.189E-09   -3.137E-09   -3.086E-09   -3.035E-09   -2.984E-09
    -2.934E-09   -2.884E-09   -2.834E-09   -2.784E-09   -2.734E-09   -2.685E-09   -2.637E-09   -2.588E-09   -2.540E-09   -2.492E-09
    -2.445E-09   -2.398E-09   -2.351E-09   -2.305E-09   -2.259E-09   -2.214E-09   -2.169E-09   -2.125E-09   -2.081E-09   -2.038E-09
    -1.995E-09   -1.952E-09   -1.911E-09   -1.869E-09   -1.829E-09   -1.789E-09   -1.749E-09   -1.711E-09   -1.672E-09   -1.635E-09
    -1.598E-09   -1.562E-09   -1.526E-09   -1.491E-09   -1.457E-09   -1.424E-09   -1.391E-09   -1.359E-09   -1.328E-09   -1.297E-09
    -1.267E-09   -1.238E-09   -1.210E-09   -1.183E-09   -1.156E-09   -1.130E-09   -1.105E-09   -1.080E-09   -1.057E-09   -1.034E-09
    -1.012E-09   -9.909E-10   -9.705E-10   -9.509E-10   -9.321E-10   -9.141E-10   -8.969E-10   -8.806E-10   -8.650E-10   -8.503E-10
    -8.364E-10   -8.233E-10   -8.111E-10   -7.997E-10   -7.891E-10   -7.793E-10   -7.704E-10   -7.624E-10   -7.551E-10   -7.487E-10
    -7.432E-10   -7.384E-10   -7.346E-10   -7.315E-10   -7.293E-10   -7.280E-10   -7.275E-10   -7.278E-10   -7.290E-10   -7.310E-10
    -7.339E-10   -7.376E-10   -7.422E-10   -7.476E-10   -7.538E-10   -7.609E-10   -7.688E-10   -7.775E-10   -7.871E-10   -7.975E-10
    -8.087E-10   -8.207E-10   -8.335E-10   -8.470E-10   -8.614E-10   -8.764E-10   -8.922E-10   -9.087E-10   -9.259E-10   -9.438E-10
    -9.624E-10   -9.817E-10   -1.002E-09   -1.022E-09   -1.043E-09   -1.065E-09   -1.088E-09   -1.110E-09   -1.134E-09   -1.158E-09
    -1.183E-09   -1.208E-09   -1.234E-09   -1.260E-09   -1.287E-09   -1.314E-09   -1.341E-09   -1.369E-09   -1.398E-09   -1.427E-09
    -1.456E-09   -1.486E-09   -1.516E-09   -1.546E-09   -1.577E-09   -1.608E-09   -1.640E-09   -1.672E-09   -1.704E-09   -1.736E-09
    -1.769E-09   -1.801E-09   -1.834E-09   -1.868E-09   -1.901E-09   -1.935E-09   -1.969E-09   -2.003E-09   -2.037E-09   -2.071E-09
    -2.106E-09   -2.140E-09   -2.175E-09   -2.210E-09   -2.244E-09   -2.279E-09   -2.314E-09   -2.349E-09   -2.384E-09   -2.419E-09
    -2.455E-09   -2.490E-09   -2.525E-09   -2.560E-09   -2.595E-09   -2.630E-09   -2.665E-09   -2.700E-09   -2.735E-09   -2.769E-09
    -2.804E-09   -2.839E-09   -2.873E-09   -2.907E-09   -2.942E-09   -2.976E-09   -3.010E-09   -3.043E-09   -3.077E-09   -3.110E-09
    -3.144E-09   -3.177E-09   -3.209E-09   -3.242E-09   -3.274E-09   -3.307E-09   -3.339E-09   -3.370E-09   -3.402E-09   -3.433E-09
    -3.463E-09   -3.494E-09   -3.524E-09   -3.554E-09   -3.584E-09   -3.613E-09   -3.642E-09   -3.670E-09   -3.698E-09   -3.726E-09
    -3.754E-09   -3.781E-09   -3.807E-09   -3.834E-09   -3.860E-09   -3.885E-09   -3.910E-09   -3.935E-09   -3.959E-09   -3.983E-09
    -4.006E-09   -4.029E-09   -4.051E-09   -4.073E-09   -4.094E-09   -4.115E-09   -4.136E-09   -4.156E-09   -4.175E-09   -4.194E-09
    -4.212E-09   -4.230E-09   -4.248E-09   -4.265E-09   -4.281E-09   -4.297E-09   -4.312E-09   -4.327E-09   -4.341E-09   -4.354E-09
    -4.367E-09   -4.380E-09   -4.391E-09   -4.403E-09   -4.413E-09   -4.423E-09   -4.433E-09   -4.441E-09   -4.450E-09   -4.457E-09
    -4.464E-09   -4.471E-09   -4.476E-09   -4.481E-09   -4.486E-09   -4.490E-09   -4.493E-09   -4.495E-09   -4.497E-09   -4.498E-09
    -4.499E-09   -4.499E-09   -4.498E-09
 Ala      Conc. = 4.67E-10
  -6.99634E-09 -7.05903E-09 -7.05248E-09 -7.05877E-09 -7.07581E-09 -7.08061E-09 -7.06242E-09 -7.25394E-09 -7.22450E-09 -7.06291E-09
  -7.26800E-09 -7.31737E-09 -7.21722E-09 -7.25190E-09 -7.26525E-09 -7.25448E-09 -7.23701E-09 -7.21700E-09 -7.19582E-09 -7.17389E-09
  -7.15142E-09 -7.12848E-09 -7.10507E-09 -7.08119E-09 -7.05686E-09 -7.03204E-09 -7.00671E-09 -6.98087E-09 -6.95452E-09 -6.92762E-09
  -6.90014E-09 -6.87217E-09 -6.84360E-09 -6.81449E-09 -6.78480E-09 -6.75455E-09 -6.72373E-09 -6.69232E-09 -6.66035E-09 -6.62785E-09
  -6.59472E-09 -6.56101E-09 -6.52676E-09 -6.49195E-09 -6.45655E-09 -6.42060E-09 -6.38407E-09 -6.34699E-09 -6.30936E-09 -6.27120E-09
  -6.23244E-09 -6.19314E-09 -6.15328E-09 -6.11289E-09 -6.07198E-09 -6.03052E-09 -5.98854E-09 -5.94604E-09 -5.90302E-09 -5.85949E-09
  -5.81545E-09 -5.77092E-09 -5.72588E-09 -5.68035E-09 -5.63435E-09 -5.58784E-09 -5.54086E-09 -5.49338E-09 -5.44544E-09 -5.39702E-09
  -5.34811E-09 -5.29872E-09 -5.24885E-09 -5.19848E-09 -5.14762E-09 -5.09624E-09 -5.04434E-09 -4.99192E-09 -4.93890E-09 -4.88531E-09
  -4.83111E-09 -4.77624E-09 -4.72063E-09 -4.66426E-09 -4.60703E-09 -4.54880E-09 -4.48948E-09 -4.42884E-09 -4.36669E-09 -4.30270E-09
  -4.23641E-09 -4.16726E-09 -4.09427E-09 -4.01616E-09 -3.93071E-09 -3.83413E-09 -3.71928E-09 -3.57059E-09 -3.34644E-09 -2.90359E-09
  -2.50991E-09 -3.02961E-09 -2.64819E-09 -1.88317E-09 -1.98683E-09 -2.17290E-09 -2.41049E-09 -2.15578E-09 -1.81735E-09 -1.73112E-09
  -2.03717E-09 -3.03502E-09 -2.45564E-09 -2.16612E-09 -2.99580E-09 -3.14459E-09 -3.15237E-09 -3.12170E-09 -3.07726E-09 -3.02718E-09
  -2.97466E-09 -2.92116E-09 -2.86740E-09 -2.81374E-09 -2.76037E-09 -2.70742E-09 -2.65493E-09 -2.60295E-09 -2.55150E-09 -2.50059E-09
  -2.45022E-09 -2.40042E-09 -2.35118E-09 -2.30249E-09 -2.25437E-09 -2.20682E-09 -2.15985E-09 -2.11346E-09 -2.06766E-09 -2.02247E-09
  -1.97786E-09 -1.93385E-09 -1.89047E-09 -1.84772E-09 -1.80557E-09 -1.76407E-09 -1.72321E-09 -1.68300E-09 -1.64344E-09 -1.60455E-09
  -1.56631E-09 -1.52873E-09 -1.49183E-09 -1.45556E-09 -1.41995E-09 -1.38493E-09 -1.35055E-09 -1.31666E-09 -1.28321E-09 -1.25001E-09
  -1.21681E-09 -1.18310E-09 -1.14788E-09 -1.10887E-09 -1.05988E-09 -9.78448E-10 -7.38162E-10 -2.04662E-10 -4.66064E-10 -5.77415E-10
  -4.79820E-10 -2.45478E-10 -9.35675E-11 -2.92608E-10 -4.14764E-10 -3.50719E-10 -2.99895E-11  2.73228E-10 -4.79995E-10 -6.55531E-10
  -7.00895E-10 -7.14210E-10 -7.16287E-10 -7.13639E-10 -7.08843E-10 -7.03151E-10 -6.97180E-10 -6.91291E-10 -6.85736E-10 -6.80645E-10
  -6.76110E-10 -6.72216E-10 -6.68987E-10 -6.66494E-10 -6.64729E-10 -6.63726E-10 -6.63499E-10 -6.64070E-10 -6.65426E-10 -6.67599E-10
  -6.70581E-10 -6.74379E-10 -6.78999E-10 -6.84437E-10 -6.90701E-10 -6.97788E-10 -7.05713E-10 -7.14447E-10 -7.24017E-10 -7.34400E-10
  -7.45587E-10 -7.57565E-10 -7.70324E-10 -7.83850E-10 -7.98134E-10 -8.13160E-10 -8.28916E-10 -8.45395E-10 -8.62577E-10 -8.80452E-10
  -8.99009E-10 -9.18232E-10 -9.38108E-10 -9.58626E-10 -9.79770E-10 -1.00153E-09 -1.02389E-09 -1.04683E-09 -1.07035E-09 -1.09443E-09
  -1.11906E-09 -1.14422E-09 -1.16989E-09 -1.19607E-09 -1.22275E-09 -1.24989E-09 -1.27750E-09 -1.30556E-09 -1.33406E-09 -1.36297E-09
  -1.39229E-09 -1.42200E-09 -1.45210E-09 -1.48255E-09 -1.51336E-09 -1.54450E-09 -1.57596E-09 -1.60773E-09 -1.63979E-09 -1.67213E-09
  -1.70474E-09 -1.73760E-09 -1.77069E-09 -1.80401E-09 -1.83753E-09 -1.87125E-09 -1.90515E-09 -1.93921E-09 -1.97343E-09 -2.00778E-09
  -2.04226E-09 -2.07685E-09 -2.11155E-09 -2.14634E-09 -2.18121E-09 -2.21616E-09 -2.25117E-09 -2.28623E-09 -2.32132E-09 -2.35645E-09
  -2.39160E-09 -2.42675E-09 -2.46191E-09 -2.49705E-09 -2.53216E-09 -2.56725E-09 -2.60229E-09 -2.63727E-09 -2.67219E-09 -2.70704E-09
  -2.74179E-09 -2.77646E-09 -2.81101E-09 -2.84545E-09 -2.87976E-09 -2.91394E-09 -2.94797E-09 -2.98184E-09 -3.01554E-09 -3.04907E-09
  -3.08241E-09 -3.11555E-09 -3.14849E-09 -3.18120E-09 -3.21370E-09 -3.24595E-09 -3.27796E-09 -3.30971E-09 -3.34120E-09 -3.37242E-09
  -3.40335E-09 -3.43398E-09 -3.46432E-09 -3.49434E-09 -3.52404E-09 -3.55341E-09 -3.58244E-09 -3.61113E-09 -3.63945E-09 -3.66741E-09
  -3.69500E-09 -3.72220E-09 -3.74902E-09 -3.77543E-09 -3.80144E-09 -3.82703E-09 -3.85221E-09 -3.87696E-09 -3.90128E-09 -3.92515E-09
  -3.94858E-09 -3.97155E-09 -3.99406E-09 -4.01611E-09 -4.03768E-09 -4.05877E-09 -4.07937E-09 -4.09948E-09 -4.11909E-09 -4.13819E-09
  -4.15678E-09 -4.17486E-09 -4.19240E-09 -4.20942E-09 -4.22590E-09 -4.24184E-09 -4.25723E-09 -4.27207E-09 -4.28635E-09 -4.30006E-09
  -4.31320E-09 -4.32577E-09 -4.33776E-09 -4.34916E-09 -4.35997E-09 -4.37018E-09 -4.37979E-09 -4.38880E-09 -4.39720E-09 -4.40498E-09
  -4.41214E-09 -4.41867E-09 -4.42458E-09 -4.42986E-09 -4.43449E-09 -4.43849E-09 -4.44184E-09 -4.44454E-09 -4.44659E-09 -4.44798E-09
  -4.44871E-09 -4.44877E-09 -4.44817E-09
 Asp      Conc. = 3.26E-09
  -4.67666E-09 -4.59185E-09 -4.83356E-09 -6.34013E-09 -6.35065E-09 -6.66456E-09 -7.04724E-09 -6.63082E-09 -7.63800E-09 -7.78242E-09
  -7.69615E-09 -7.58431E-09 -7.47827E-09 -7.38317E-09 -7.29221E-09 -7.19055E-09 -7.10606E-09 -7.02725E-09 -6.95154E-09 -6.87775E-09
  -6.80511E-09 -6.73293E-09 -6.66056E-09 -6.58742E-09 -6.51294E-09 -6.43645E-09 -6.35729E-09 -6.27468E-09 -6.18771E-09 -6.09524E-09
  -5.99583E-09 -5.88765E-09 -5.76798E-09 -5.63300E-09 -5.47660E-09 -5.28834E-09 -5.04810E-09 -4.71592E-09 -4.42593E-09 -4.48189E-09
  -4.40115E-09 -4.39590E-09 -3.99912E-09 -3.46779E-09 -2.62065E-09 -2.68208E-09 -1.42146E-09 -2.24702E-09 -2.85626E-09 -2.48937E-09
  -1.44301E-09 -2.39629E-09 -3.21508E-09 -2.86730E-09 -2.30679E-09 -2.63261E-09 -2.11399E-09 -4.85260E-09 -5.83614E-09 -5.14423E-09
  -4.40063E-09 -5.61195E-09 -5.55534E-09 -5.49085E-09 -6.25522E-09 -6.12088E-09 -5.43795E-09 -5.51340E-09 -5.78987E-09 -5.84306E-09
  -5.82783E-09 -5.78609E-09 -5.73221E-09 -5.67226E-09 -5.60912E-09 -5.54434E-09 -5.47876E-09 -5.41288E-09 -5.34694E-09 -5.28116E-09
  -5.21563E-09 -5.15039E-09 -5.08546E-09 -5.02088E-09 -4.95665E-09 -4.89273E-09 -4.82915E-09 -4.76586E-09 -4.70288E-09 -4.64019E-09
  -4.57777E-09 -4.51564E-09 -4.45372E-09 -4.39208E-09 -4.33069E-09 -4.26950E-09 -4.20853E-09 -4.14779E-09 -4.08729E-09 -4.02699E-09
  -3.96695E-09 -3.90706E-09 -3.84738E-09 -3.78796E-09 -3.72869E-09 -3.66967E-09 -3.61088E-09 -3.55230E-09 -3.49397E-09 -3.43589E-09
  -3.37804E-09 -3.32045E-09 -3.26313E-09 -3.20608E-09 -3.14932E-09 -3.09285E-09 -3.03668E-09 -2.98083E-09 -2.92530E-09 -2.87010E-09
  -2.81524E-09 -2.76074E-09 -2.70659E-09 -2.65284E-09 -2.59946E-09 -2.54649E-09 -2.49391E-09 -2.44177E-09 -2.39004E-09 -2.33877E-09
  -2.28794E-09 -2.23758E-09 -2.18771E-09 -2.13830E-09 -2.08941E-09 -2.04101E-09 -1.99314E-09 -1.94579E-09 -1.89898E-09 -1.85274E-09
  -1.80703E-09 -1.76188E-09 -1.71732E-09 -1.67334E-09 -1.62992E-09 -1.58709E-09 -1.54484E-09 -1.50318E-09 -1.46209E-09 -1.42158E-09
  -1.38159E-09 -1.34214E-09 -1.30320E-09 -1.26467E-09 -1.22651E-09 -1.18859E-09 -1.15085E-09 -1.11297E-09 -1.07470E-09 -1.03553E-09
  -9.94752E-10 -9.51158E-10 -9.02695E-10 -8.45566E-10 -7.72076E-10 -6.64368E-10 -4.72217E-10 -4.67293E-12  1.86043E-09  4.68572E-09
   2.83326E-09  2.11540E-09  2.77646E-09  4.23784E-09  4.85972E-09  3.42033E-09  2.60878E-09  3.12854E-09  5.36329E-09  6.42684E-09
   1.59033E-09  4.47577E-10  7.21713E-11 -9.70858E-11 -1.87857E-10 -2.41874E-10 -2.76241E-10 -2.99154E-10 -3.15036E-10 -3.26409E-10
  -3.34838E-10 -3.41361E-10 -3.46644E-10 -3.51200E-10 -3.55344E-10 -3.59343E-10 -3.63386E-10 -3.67631E-10 -3.72171E-10 -3.77118E-10
  -3.82527E-10 -3.88464E-10 -3.94975E-10 -4.02093E-10 -4.09850E-10 -4.18270E-10 -4.27392E-10 -4.37203E-10 -4.47745E-10 -4.59005E-10
  -4.70986E-10 -4.83688E-10 -4.97107E-10 -5.11237E-10 -5.26072E-10 -5.41605E-10 -5.57830E-10 -5.74740E-10 -5.92323E-10 -6.10570E-10
  -6.29474E-10 -6.49023E-10 -6.69206E-10 -6.90012E-10 -7.11430E-10 -7.33449E-10 -7.56059E-10 -7.79243E-10 -8.02991E-10 -8.27292E-10
  -8.52134E-10 -8.77501E-10 -9.03384E-10 -9.29767E-10 -9.56638E-10 -9.83982E-10 -1.01179E-09 -1.04004E-09 -1.06873E-09 -1.09784E-09
