 LCModel (Version 6.3-1R) Copyright: S.W. Provencher.          Ref.: Magn. Reson. Med. 30:672-679 (1993).                
 onepulse 24x5_ftSpec_smooth_lcm
 26 lines in following concentration table = NCONC+1
    Conc.  %SD   /Cr    Metabolite                                         
    0.000 999%   0.000 Ala                                                 
 8.04E-10  77%   0.000 Asp                                                 
    0.000 999%   0.000 Cr                                                  
 2.25E-09  22%   0.000 GABA                                                
 1.62E-09  36%   0.000 Glc                                                 
    0.000 999%   0.000 Gln                                                 
    0.000 999%   0.000 Glu                                                 
    0.000 999%   0.000 Glyc                                                
 5.54E-11 920%   0.000 GPC                                                 
    0.000 999%   0.000 GSH                                                 
 1.56E-10 269%   0.000 Ins                                                 
    0.000 999%   0.000 Lac                                                 
    0.000 999%   0.000 NAAG                                                
 3.87E-10  65%   0.000 NAA                                                 
 1.05E-11 999%   0.000 PCh                                                 
    0.000 999%   0.000 PCr                                                 
    0.000 999%   0.000 PE                                                  
    0.000 999%   0.000 Scyllo                                              
    0.000 999%   0.000 Ser                                                 
    0.000 999%   0.000 Tau                                                 
 6.60E-11 147%   0.000 GPC+PCh                                             
 3.87E-10  65%   0.000 NAA+NAAG                                            
 1.56E-10 269%   0.000 Ins+Glyc                                            
    0.000 999%   0.000 Cr+PCr                                              
    0.000 999%   0.000 Glu+Gln                                             
   6 lines in following misc. output table
  FWHM = 0.101 ppm    S/N =   2                                            
  Data shift = 0.291 ppm                                                   
  Ph:   3 deg     -23.8 deg/ppm                                            
  alphaB,S = 6.5E-01,   2.0E+01                                            
    8 spline knots.   Ns = 5(1)                                            
  (12) 3 infls.   ( 7) 3 extrs.                                            
  363 points on ppm-axis = NY
      4.250000     4.238821     4.227641     4.216462     4.205282     4.194103     4.182923     4.171744     4.160564     4.149385
      4.138206     4.127026     4.115847     4.104667     4.093488     4.082308     4.071129     4.059949     4.048770     4.037591
      4.026411     4.015232     4.004052     3.992873     3.981693     3.970514     3.959334     3.948155     3.936975     3.925796
      3.914617     3.903437     3.892258     3.881078     3.869899     3.858719     3.847540     3.836360     3.825181     3.814002
      3.802822     3.791643     3.780463     3.769284     3.758104     3.746925     3.735745     3.724566     3.713387     3.702207
      3.691028     3.679848     3.668669     3.657489     3.646310     3.635130     3.623951     3.612772     3.601592     3.590413
      3.579233     3.568054     3.556874     3.545695     3.534515     3.523336     3.512156     3.500977     3.489798     3.478618
      3.467439     3.456259     3.445080     3.433900     3.422721     3.411541     3.400362     3.389183     3.378003     3.366824
      3.355644     3.344465     3.333285     3.322106     3.310926     3.299747     3.288568     3.277388     3.266209     3.255029
      3.243850     3.232670     3.221491     3.210311     3.199132     3.187953     3.176773     3.165594     3.154414     3.143235
      3.132055     3.120876     3.109696     3.098517     3.087337     3.076158     3.064979     3.053799     3.042620     3.031440
      3.020261     3.009081     2.997902     2.986722     2.975543     2.964364     2.953184     2.942005     2.930825     2.919646
      2.908466     2.897287     2.886107     2.874928     2.863749     2.852569     2.841390     2.830210     2.819031     2.807851
      2.796672     2.785492     2.774313     2.763134     2.751954     2.740775     2.729595     2.718416     2.707236     2.696057
      2.684877     2.673698     2.662519     2.651339     2.640160     2.628980     2.617801     2.606621     2.595442     2.584262
      2.573083     2.561903     2.550724     2.539545     2.528365     2.517186     2.506006     2.494827     2.483647     2.472468
      2.461288     2.450109     2.438930     2.427750     2.416571     2.405391     2.394212     2.383032     2.371853     2.360673
      2.349494     2.338315     2.327135     2.315956     2.304776     2.293597     2.282417     2.271238     2.260058     2.248879
      2.237700     2.226520     2.215341     2.204161     2.192982     2.181802     2.170623     2.159443     2.148264     2.137084
      2.125905     2.114726     2.103546     2.092367     2.081187     2.070008     2.058828     2.047649     2.036469     2.025290
      2.014111     2.002931     1.991752     1.980572     1.969393     1.958213     1.947034     1.935854     1.924675     1.913496
      1.902316     1.891137     1.879957     1.868778     1.857598     1.846419     1.835239     1.824060     1.812881     1.801701
      1.790522     1.779342     1.768163     1.756983     1.745804     1.734624     1.723445     1.712265     1.701086     1.689907
      1.678727     1.667548     1.656368     1.645189     1.634009     1.622830     1.611650     1.600471     1.589292     1.578112
      1.566933     1.555753     1.544574     1.533394     1.522215     1.511035     1.499856     1.488677     1.477497     1.466318
      1.455138     1.443959     1.432779     1.421600     1.410420     1.399241     1.388062     1.376882     1.365703     1.354523
      1.343344     1.332164     1.320985     1.309805     1.298626     1.287446     1.276267     1.265088     1.253908     1.242729
      1.231549     1.220370     1.209190     1.198011     1.186831     1.175652     1.164473     1.153293     1.142114     1.130934
      1.119755     1.108575     1.097396     1.086216     1.075037     1.063858     1.052678     1.041499     1.030319     1.019140
      1.007960     0.996781     0.985601     0.974422     0.963243     0.952063     0.940884     0.929704     0.918525     0.907345
      0.896166     0.884986     0.873807     0.862628     0.851448     0.840269     0.829089     0.817910     0.806730     0.795551
      0.784371     0.773192     0.762012     0.750833     0.739654     0.728474     0.717295     0.706115     0.694936     0.683756
      0.672577     0.661397     0.650218     0.639039     0.627859     0.616680     0.605500     0.594321     0.583141     0.571962
      0.560782     0.549603     0.538424     0.527244     0.516065     0.504885     0.493706     0.482526     0.471347     0.460167
      0.448988     0.437809     0.426629     0.415450     0.404270     0.393091     0.381911     0.370732     0.359552     0.348373
      0.337193     0.326014     0.314835     0.303655     0.292476     0.281296     0.270117     0.258937     0.247758     0.236578
      0.225399     0.214220     0.203040
 NY phased data points follow
   5.34913E-09  5.44830E-09  7.15720E-09  8.60036E-09  9.57406E-09  1.08452E-08  1.07205E-08  9.71161E-09  8.50070E-09  7.64052E-09
   7.79452E-09  7.65037E-09  7.26702E-09  7.18538E-09  7.94959E-09  7.92417E-09  7.78746E-09  8.20763E-09  8.35154E-09  8.87368E-09
   8.85642E-09  8.63709E-09  8.44996E-09  8.24802E-09  9.16049E-09  7.82970E-09  8.19900E-09  7.58320E-09  7.93267E-09  8.27480E-09
   8.45637E-09  8.32092E-09  7.86730E-09  7.97655E-09  7.72233E-09  7.96198E-09  8.64407E-09  9.75425E-09  1.01021E-08  9.69965E-09
   9.08809E-09  8.14502E-09  8.06095E-09  7.85936E-09  7.30509E-09  7.64389E-09  7.44084E-09  7.14671E-09  7.73282E-09  7.10801E-09
   7.18320E-09  6.40326E-09  6.10996E-09  6.29211E-09  6.38929E-09  6.12323E-09  6.18392E-09  6.17520E-09  6.06864E-09  6.13491E-09
   5.80941E-09  5.40703E-09  5.25063E-09  6.03491E-09  5.85168E-09  6.44347E-09  6.32611E-09  7.27008E-09  8.75812E-09  9.59539E-09
   9.23626E-09  9.31318E-09  8.38378E-09  7.73428E-09  7.37332E-09  7.01654E-09  6.87598E-09  6.68966E-09  6.06966E-09  5.76212E-09
   5.42583E-09  5.24673E-09  5.48850E-09  7.03740E-09  9.11603E-09  1.05717E-08  1.17501E-08  1.16642E-08  1.08198E-08  1.01415E-08
   9.88369E-09  9.52938E-09  9.56746E-09  8.55266E-09  9.04649E-09  8.81891E-09  8.54181E-09  8.35805E-09  8.04756E-09  7.56356E-09
   6.89772E-09  6.98008E-09  6.15527E-09  6.34960E-09  5.64772E-09  5.96550E-09  5.69186E-09  5.41099E-09  5.77598E-09  5.80409E-09
   5.40952E-09  5.77038E-09  5.46112E-09  5.10210E-09  4.80819E-09  4.23883E-09  4.04892E-09  4.56882E-09  4.20096E-09  4.54914E-09
   4.75943E-09  4.20557E-09  4.72816E-09  4.40935E-09  4.33855E-09  4.31014E-09  4.67233E-09  4.66715E-09  4.59238E-09  4.28996E-09
   3.67280E-09  3.45026E-09  4.07999E-09  4.03419E-09  4.36737E-09  4.71840E-09  4.99607E-09  5.11381E-09  5.33093E-09  5.67705E-09
   5.96060E-09  5.71132E-09  5.21950E-09  6.06912E-09  5.94570E-09  6.82062E-09  7.81954E-09  7.22718E-09  7.22891E-09  7.30113E-09
   7.60973E-09  8.17000E-09  8.50624E-09  8.06545E-09  8.32660E-09  8.67592E-09  8.50005E-09  8.77074E-09  8.20045E-09  7.68383E-09
   8.11457E-09  8.12196E-09  8.12706E-09  8.21819E-09  7.99792E-09  8.50683E-09  8.09459E-09  8.67674E-09  8.25569E-09  8.05887E-09
   7.98629E-09  8.57941E-09  8.35974E-09  7.28753E-09  7.90604E-09  9.26367E-09  1.24398E-08  1.49079E-08  1.49800E-08  1.47719E-08
   1.34289E-08  1.28872E-08  1.18890E-08  1.02082E-08  8.98174E-09  6.73956E-09  4.93129E-09  3.02789E-09  8.95061E-10 -1.82618E-09
  -4.23016E-09 -7.19136E-09 -9.37619E-09 -1.17369E-08 -1.33414E-08 -1.51069E-08 -1.65593E-08 -1.72525E-08 -1.73341E-08 -1.66925E-08
  -1.57222E-08 -1.47749E-08 -1.33754E-08 -1.12945E-08 -9.72647E-09 -7.31738E-09 -6.23263E-09 -4.46363E-09 -3.83778E-09 -3.43564E-09
  -2.82370E-09 -2.72236E-09 -3.25887E-09 -3.13389E-09 -3.15197E-09 -3.49164E-09 -3.11237E-09 -3.41806E-09 -2.56648E-09 -2.36077E-09
  -2.08648E-09 -1.80532E-09 -2.33426E-09 -2.68412E-09 -2.94290E-09 -3.10927E-09 -2.82153E-09 -2.68636E-09 -2.07254E-09 -1.97917E-09
  -1.54851E-09 -1.60288E-09 -1.99183E-09 -2.14311E-09 -2.84665E-09 -2.60550E-09 -2.70481E-09 -3.16259E-09 -2.88541E-09 -2.54002E-09
  -2.36871E-09 -2.67492E-09 -1.98009E-09 -2.30810E-09 -2.07709E-09 -2.22104E-09 -2.55082E-09 -2.80762E-09 -2.60044E-09 -3.01197E-09
  -3.03667E-09 -3.10539E-09 -2.73151E-09 -3.25815E-09 -2.81880E-09 -3.47781E-09 -2.70739E-09 -2.79525E-09 -2.52610E-09 -2.74815E-09
  -2.79766E-09 -2.83337E-09 -2.72242E-09 -3.04183E-09 -2.32685E-09 -2.53307E-09 -2.25874E-09 -2.07833E-09 -2.76470E-09 -2.84611E-09
  -2.85690E-09 -2.74613E-09 -3.21855E-09 -3.10912E-09 -2.88679E-09 -3.06872E-09 -2.67717E-09 -2.45875E-09 -1.97624E-09 -2.26075E-09
  -2.17331E-09 -2.15278E-09 -1.33140E-09 -1.71245E-09 -1.91051E-09 -2.10595E-09 -1.75640E-09 -2.64901E-09 -1.77096E-09 -2.55617E-09
  -2.21456E-09 -2.67839E-09 -2.43910E-09 -2.58471E-09 -2.80351E-09 -2.86203E-09 -2.81766E-09 -2.41545E-09 -2.88196E-09 -3.07666E-09
  -2.93998E-09 -2.78611E-09 -2.32612E-09 -2.53125E-09 -2.83144E-09 -2.94719E-09 -3.07886E-09 -2.64567E-09 -3.12694E-09 -3.08371E-09
  -3.03006E-09 -3.16812E-09 -2.31578E-09 -2.75283E-09 -2.87844E-09 -3.33008E-09 -3.07027E-09 -3.21502E-09 -2.67482E-09 -3.12193E-09
  -3.50599E-09 -3.03199E-09 -2.85177E-09 -3.42282E-09 -3.37737E-09 -3.29120E-09 -3.58124E-09 -3.47199E-09 -3.56566E-09 -3.04080E-09
  -3.43409E-09 -3.44208E-09 -3.89413E-09 -3.48971E-09 -3.56635E-09 -3.53477E-09 -3.49518E-09 -3.57644E-09 -3.87156E-09 -3.72210E-09
  -3.66921E-09 -3.56271E-09 -3.33770E-09 -3.97728E-09 -4.05625E-09 -4.33165E-09 -4.26124E-09 -3.67539E-09 -3.94532E-09 -4.43716E-09
  -4.13483E-09 -4.26429E-09 -4.45909E-09 -4.55166E-09 -4.16429E-09 -4.49353E-09 -4.89186E-09 -4.50753E-09 -4.66752E-09 -4.78584E-09
  -4.70671E-09 -4.76282E-09 -4.73059E-09
 NY points of the fit to the data follow
   7.83401E-09  7.79605E-09  7.78191E-09  7.99193E-09  8.31094E-09  8.55952E-09  8.49586E-09  8.31998E-09  7.88209E-09  7.27047E-09
   7.00305E-09  6.92484E-09  7.02166E-09  7.47523E-09  8.10547E-09  8.55149E-09  8.82053E-09  9.01234E-09  8.92401E-09  8.77843E-09
   8.98981E-09  9.39062E-09  9.69059E-09  9.83023E-09  9.24504E-09  8.06791E-09  7.25436E-09  6.95013E-09  7.02182E-09  7.42357E-09
   8.00791E-09  8.33185E-09  8.67024E-09  9.00569E-09  8.70191E-09  8.60153E-09  9.02573E-09  9.43247E-09  9.63400E-09  9.55268E-09
   9.25262E-09  9.10928E-09  9.17514E-09  8.29391E-09  7.44676E-09  7.65151E-09  7.27591E-09  6.38207E-09  6.06508E-09  6.01474E-09
   6.20030E-09  6.45802E-09  6.63518E-09  6.53736E-09  6.20612E-09  5.90284E-09  5.80491E-09  6.04799E-09  6.18144E-09  6.08837E-09
   6.07727E-09  6.16500E-09  6.55743E-09  6.98152E-09  7.35637E-09  8.05615E-09  8.53835E-09  8.66456E-09  8.91401E-09  9.30194E-09
   9.66495E-09  9.73000E-09  9.39615E-09  8.93592E-09  8.84965E-09  8.16418E-09  6.93164E-09  7.23605E-09  7.67177E-09  7.40075E-09
   7.29072E-09  7.29570E-09  7.32109E-09  7.80540E-09  8.62885E-09  9.25113E-09  9.55710E-09  9.22083E-09  8.31864E-09  8.19896E-09
   8.22403E-09  8.25984E-09  8.53967E-09  8.56755E-09  8.05372E-09  7.96023E-09  8.01197E-09  7.45608E-09  7.04945E-09  6.91959E-09
   6.65967E-09  6.42283E-09  6.26915E-09  6.16318E-09  6.08624E-09  6.02767E-09  5.98100E-09  5.94300E-09  5.91157E-09  5.88519E-09
   5.86264E-09  5.84207E-09  5.82268E-09  5.80401E-09  5.78574E-09  5.76779E-09  5.75012E-09  5.73206E-09  5.71333E-09  5.69376E-09
   5.67318E-09  5.65150E-09  5.62866E-09  5.60450E-09  5.57892E-09  5.55182E-09  5.52312E-09  5.49272E-09  5.46056E-09  5.42660E-09
   5.39073E-09  5.35290E-09  5.31307E-09  5.27119E-09  5.22721E-09  5.18108E-09  5.13275E-09  5.08216E-09  5.02926E-09  4.97402E-09
   4.91643E-09  4.85644E-09  4.79404E-09  4.72918E-09  4.66182E-09  4.59193E-09  4.51957E-09  4.44483E-09  4.36786E-09  4.28878E-09
   4.20773E-09  4.12489E-09  4.04044E-09  3.95462E-09  3.86772E-09  3.78007E-09  3.69213E-09  3.60447E-09  3.51792E-09  3.43366E-09
   3.35349E-09  3.28034E-09  3.21934E-09  3.18047E-09  3.18622E-09  3.29992E-09  3.78142E-09  5.73261E-09  7.80281E-09  8.79180E-09
   8.88271E-09  8.65109E-09  8.63478E-09  9.34678E-09  1.10028E-08  1.29265E-08  1.33902E-08  1.06249E-08  5.35552E-09  2.56904E-09
   1.72258E-09  1.30154E-09  1.02396E-09  8.09887E-10  6.28930E-10  4.67290E-10  3.17903E-10  1.76838E-10  4.17303E-11 -8.88542E-11
  -2.15838E-10 -3.39851E-10 -4.61285E-10 -5.80417E-10 -6.97409E-10 -8.12392E-10 -9.25438E-10 -1.03655E-09 -1.14576E-09 -1.25307E-09
  -1.35843E-09 -1.46181E-09 -1.56318E-09 -1.66248E-09 -1.75966E-09 -1.85465E-09 -1.94739E-09 -2.03782E-09 -2.12588E-09 -2.21147E-09
  -2.29455E-09 -2.37502E-09 -2.45282E-09 -2.52788E-09 -2.60012E-09 -2.66945E-09 -2.73580E-09 -2.79911E-09 -2.85928E-09 -2.91635E-09
  -2.97039E-09 -3.02146E-09 -3.06961E-09 -3.11492E-09 -3.15743E-09 -3.19723E-09 -3.23437E-09 -3.26891E-09 -3.30091E-09 -3.33043E-09
  -3.35755E-09 -3.38231E-09 -3.40478E-09 -3.42502E-09 -3.44309E-09 -3.45906E-09 -3.47299E-09 -3.48492E-09 -3.49494E-09 -3.50310E-09
  -3.50944E-09 -3.51407E-09 -3.51701E-09 -3.51833E-09 -3.51809E-09 -3.51636E-09 -3.51320E-09 -3.50866E-09 -3.50282E-09 -3.49571E-09
  -3.48743E-09 -3.47800E-09 -3.46753E-09 -3.45602E-09 -3.44357E-09 -3.43025E-09 -3.41610E-09 -3.40118E-09 -3.38555E-09 -3.36928E-09
  -3.35243E-09 -3.33506E-09 -3.31724E-09 -3.29901E-09 -3.28044E-09 -3.26159E-09 -3.24254E-09 -3.22332E-09 -3.20400E-09 -3.18466E-09
  -3.16533E-09 -3.14608E-09 -3.12700E-09 -3.10810E-09 -3.08950E-09 -3.07121E-09 -3.05331E-09 -3.03588E-09 -3.01893E-09 -3.00257E-09
  -2.98684E-09 -2.97181E-09 -2.95754E-09 -2.94407E-09 -2.93148E-09 -2.91983E-09 -2.90919E-09 -2.89957E-09 -2.89109E-09 -2.88380E-09
  -2.87772E-09 -2.87293E-09 -2.86938E-09 -2.86705E-09 -2.86591E-09 -2.86597E-09 -2.86717E-09 -2.86951E-09 -2.87295E-09 -2.87748E-09
  -2.88309E-09 -2.88973E-09 -2.89739E-09 -2.90606E-09 -2.91569E-09 -2.92628E-09 -2.93780E-09 -2.95024E-09 -2.96355E-09 -2.97773E-09
  -2.99275E-09 -3.00858E-09 -3.02523E-09 -3.04263E-09 -3.06079E-09 -3.07968E-09 -3.09928E-09 -3.11955E-09 -3.14050E-09 -3.16208E-09
  -3.18428E-09 -3.20706E-09 -3.23042E-09 -3.25434E-09 -3.27878E-09 -3.30371E-09 -3.32914E-09 -3.35502E-09 -3.38135E-09 -3.40808E-09
  -3.43521E-09 -3.46271E-09 -3.49055E-09 -3.51871E-09 -3.54719E-09 -3.57594E-09 -3.60495E-09 -3.63419E-09 -3.66366E-09 -3.69329E-09
  -3.72312E-09 -3.75307E-09 -3.78315E-09 -3.81334E-09 -3.84358E-09 -3.87391E-09 -3.90425E-09 -3.93461E-09 -3.96495E-09 -3.99526E-09
  -4.02552E-09 -4.05569E-09 -4.08577E-09 -4.11571E-09 -4.14552E-09 -4.17514E-09 -4.20459E-09 -4.23381E-09 -4.26280E-09 -4.29153E-09
  -4.31998E-09 -4.34812E-09 -4.37595E-09
 NY background values follow
     2.089E-09    2.119E-09    2.150E-09    2.180E-09    2.211E-09    2.241E-09    2.271E-09    2.302E-09    2.332E-09    2.362E-09
     2.393E-09    2.423E-09    2.453E-09    2.484E-09    2.514E-09    2.544E-09    2.575E-09    2.605E-09    2.635E-09    2.666E-09
     2.696E-09    2.726E-09    2.757E-09    2.787E-09    2.817E-09    2.848E-09    2.878E-09    2.909E-09    2.939E-09    2.969E-09
     3.000E-09    3.030E-09    3.060E-09    3.091E-09    3.121E-09    3.152E-09    3.182E-09    3.212E-09    3.243E-09    3.273E-09
     3.304E-09    3.334E-09    3.364E-09    3.395E-09    3.425E-09    3.456E-09    3.486E-09    3.517E-09    3.547E-09    3.578E-09
     3.608E-09    3.639E-09    3.669E-09    3.700E-09    3.730E-09    3.761E-09    3.791E-09    3.822E-09    3.853E-09    3.883E-09
     3.914E-09    3.944E-09    3.975E-09    4.006E-09    4.036E-09    4.067E-09    4.098E-09    4.128E-09    4.159E-09    4.190E-09
     4.221E-09    4.251E-09    4.282E-09    4.313E-09    4.344E-09    4.375E-09    4.405E-09    4.436E-09    4.466E-09    4.496E-09
     4.526E-09    4.556E-09    4.585E-09    4.614E-09    4.643E-09    4.671E-09    4.699E-09    4.726E-09    4.752E-09    4.778E-09
     4.804E-09    4.828E-09    4.852E-09    4.875E-09    4.898E-09    4.919E-09    4.940E-09    4.960E-09    4.979E-09    4.997E-09
     5.014E-09    5.029E-09    5.044E-09    5.058E-09    5.070E-09    5.081E-09    5.091E-09    5.099E-09    5.107E-09    5.112E-09
     5.117E-09    5.120E-09    5.121E-09    5.121E-09    5.120E-09    5.116E-09    5.111E-09    5.105E-09    5.096E-09    5.086E-09
     5.074E-09    5.060E-09    5.045E-09    5.027E-09    5.008E-09    4.986E-09    4.962E-09    4.937E-09    4.909E-09    4.879E-09
     4.847E-09    4.812E-09    4.775E-09    4.736E-09    4.695E-09    4.651E-09    4.605E-09    4.556E-09    4.505E-09    4.451E-09
     4.394E-09    4.335E-09    4.274E-09    4.209E-09    4.142E-09    4.072E-09    3.999E-09    3.924E-09    3.845E-09    3.765E-09
     3.681E-09    3.596E-09    3.508E-09    3.418E-09    3.325E-09    3.231E-09    3.135E-09    3.036E-09    2.936E-09    2.834E-09
     2.731E-09    2.626E-09    2.519E-09    2.411E-09    2.302E-09    2.191E-09    2.080E-09    1.967E-09    1.853E-09    1.738E-09
     1.623E-09    1.506E-09    1.389E-09    1.271E-09    1.153E-09    1.035E-09    9.159E-10    7.967E-10    6.773E-10    5.579E-10
     4.384E-10    3.190E-10    1.997E-10    8.065E-11   -3.809E-11   -1.564E-10   -2.743E-10   -3.916E-10   -5.083E-10   -6.243E-10
    -7.394E-10   -8.537E-10   -9.670E-10   -1.079E-09   -1.190E-09   -1.300E-09   -1.409E-09   -1.516E-09   -1.622E-09   -1.726E-09
    -1.829E-09   -1.930E-09   -2.029E-09   -2.126E-09   -2.222E-09   -2.315E-09   -2.406E-09   -2.495E-09   -2.582E-09   -2.666E-09
    -2.748E-09   -2.828E-09   -2.904E-09   -2.978E-09   -3.050E-09   -3.118E-09   -3.184E-09   -3.246E-09   -3.306E-09   -3.362E-09
    -3.416E-09   -3.466E-09   -3.513E-09   -3.558E-09   -3.600E-09   -3.639E-09   -3.676E-09   -3.710E-09   -3.742E-09   -3.771E-09
    -3.797E-09   -3.822E-09   -3.844E-09   -3.863E-09   -3.881E-09   -3.897E-09   -3.910E-09   -3.922E-09   -3.931E-09   -3.939E-09
    -3.945E-09   -3.950E-09   -3.952E-09   -3.953E-09   -3.953E-09   -3.951E-09   -3.947E-09   -3.942E-09   -3.936E-09   -3.929E-09
    -3.920E-09   -3.910E-09   -3.900E-09   -3.888E-09   -3.875E-09   -3.862E-09   -3.847E-09   -3.832E-09   -3.816E-09   -3.800E-09
    -3.782E-09   -3.765E-09   -3.747E-09   -3.728E-09   -3.709E-09   -3.690E-09   -3.671E-09   -3.652E-09   -3.632E-09   -3.613E-09
    -3.593E-09   -3.574E-09   -3.554E-09   -3.535E-09   -3.516E-09   -3.498E-09   -3.480E-09   -3.462E-09   -3.445E-09   -3.428E-09
    -3.412E-09   -3.397E-09   -3.383E-09   -3.369E-09   -3.356E-09   -3.344E-09   -3.333E-09   -3.324E-09   -3.315E-09   -3.307E-09
    -3.301E-09   -3.296E-09   -3.292E-09   -3.290E-09   -3.289E-09   -3.288E-09   -3.289E-09   -3.292E-09   -3.295E-09   -3.299E-09
    -3.305E-09   -3.311E-09   -3.318E-09   -3.327E-09   -3.336E-09   -3.347E-09   -3.358E-09   -3.370E-09   -3.383E-09   -3.397E-09
    -3.412E-09   -3.428E-09   -3.444E-09   -3.462E-09   -3.480E-09   -3.498E-09   -3.518E-09   -3.538E-09   -3.558E-09   -3.580E-09
    -3.602E-09   -3.624E-09   -3.648E-09   -3.671E-09   -3.696E-09   -3.720E-09   -3.746E-09   -3.771E-09   -3.797E-09   -3.824E-09
    -3.851E-09   -3.878E-09   -3.906E-09   -3.934E-09   -3.962E-09   -3.991E-09   -4.019E-09   -4.048E-09   -4.078E-09   -4.107E-09
    -4.137E-09   -4.166E-09   -4.196E-09   -4.226E-09   -4.256E-09   -4.287E-09   -4.317E-09   -4.347E-09   -4.377E-09   -4.407E-09
    -4.437E-09   -4.467E-09   -4.497E-09   -4.527E-09   -4.556E-09   -4.586E-09   -4.615E-09   -4.644E-09   -4.673E-09   -4.701E-09
    -4.729E-09   -4.757E-09   -4.785E-09
 Asp      Conc. = 8.04E-10
   3.04869E-09  2.95320E-09  2.90647E-09  2.85355E-09  2.83349E-09  2.73200E-09  2.62365E-09  2.51580E-09  2.48619E-09  2.48402E-09
   2.49396E-09  2.51082E-09  2.53290E-09  2.55901E-09  2.58623E-09  2.61398E-09  2.64244E-09  2.67151E-09  2.70112E-09  2.73120E-09
   2.76170E-09  2.79260E-09  2.82388E-09  2.85557E-09  2.88767E-09  2.92025E-09  2.95336E-09  2.98709E-09  3.02160E-09  3.05705E-09
   3.09375E-09  3.13212E-09  3.17283E-09  3.21708E-09  3.26721E-09  3.32885E-09  3.41648E-09  3.49568E-09  3.58099E-09  3.63492E-09
   3.66795E-09  3.71164E-09  3.80980E-09  3.99286E-09  4.21602E-09  4.45824E-09  4.52891E-09  4.45312E-09  4.46529E-09  4.54851E-09
   4.76711E-09  5.03099E-09  5.22327E-09  5.19617E-09  4.94979E-09  4.67335E-09  4.49616E-09  4.60749E-09  4.61006E-09  4.43293E-09
   4.34794E-09  4.29872E-09  4.25347E-09  4.29712E-09  4.38443E-09  4.40760E-09  4.34842E-09  4.32875E-09  4.32831E-09  4.33759E-09
   4.35252E-09  4.37111E-09  4.39222E-09  4.41514E-09  4.43940E-09  4.46464E-09  4.49062E-09  4.51712E-09  4.54398E-09  4.57108E-09
   4.59830E-09  4.62554E-09  4.65272E-09  4.67976E-09  4.70660E-09  4.73316E-09  4.75938E-09  4.78522E-09  4.81062E-09  4.83551E-09
   4.85986E-09  4.88362E-09  4.90672E-09  4.92915E-09  4.95084E-09  4.97174E-09  4.99183E-09  5.01105E-09  5.02936E-09  5.04671E-09
   5.06307E-09  5.07840E-09  5.09265E-09  5.10577E-09  5.11774E-09  5.12851E-09  5.13803E-09  5.14627E-09  5.15319E-09  5.15874E-09
   5.16289E-09  5.16560E-09  5.16682E-09  5.16652E-09  5.16465E-09  5.16117E-09  5.15606E-09  5.14926E-09  5.14074E-09  5.13046E-09
   5.11837E-09  5.10444E-09  5.08863E-09  5.07090E-09  5.05121E-09  5.02952E-09  5.00578E-09  4.97998E-09  4.95205E-09  4.92197E-09
   4.88969E-09  4.85518E-09  4.81840E-09  4.77930E-09  4.73785E-09  4.69401E-09  4.64775E-09  4.59902E-09  4.54778E-09  4.49400E-09
   4.43765E-09  4.37867E-09  4.31704E-09  4.25272E-09  4.18568E-09  4.11587E-09  4.04330E-09  3.96804E-09  3.89018E-09  3.80983E-09
   3.72706E-09  3.64197E-09  3.55467E-09  3.46525E-09  3.37384E-09  3.28055E-09  3.18553E-09  3.08893E-09  2.99097E-09  2.89189E-09
   2.79208E-09  2.69209E-09  2.59289E-09  2.49637E-09  2.40684E-09  2.33732E-09  2.34706E-09  2.62914E-09  2.82574E-09  2.83094E-09
   2.71762E-09  2.57897E-09  2.49660E-09  2.54969E-09  2.75023E-09  2.94338E-09  2.81753E-09  2.12590E-09  1.14579E-09  7.85286E-10
   5.87276E-10  4.31577E-10  2.92083E-10  1.60435E-10  3.32218E-11 -9.11431E-11 -2.13464E-10 -3.34163E-10 -4.53506E-10 -5.71596E-10
  -6.88482E-10 -8.04196E-10 -9.18710E-10 -1.03200E-09 -1.14400E-09 -1.25468E-09 -1.36398E-09 -1.47181E-09 -1.57811E-09 -1.68283E-09
  -1.78587E-09 -1.88717E-09 -1.98665E-09 -2.08423E-09 -2.17984E-09 -2.27339E-09 -2.36481E-09 -2.45401E-09 -2.54093E-09 -2.62545E-09
  -2.70754E-09 -2.78709E-09 -2.86401E-09 -2.93825E-09 -3.00971E-09 -3.07830E-09 -3.14395E-09 -3.20660E-09 -3.26613E-09 -3.32261E-09
  -3.37606E-09 -3.42658E-09 -3.47420E-09 -3.51900E-09 -3.56103E-09 -3.60036E-09 -3.63704E-09 -3.67114E-09 -3.70271E-09 -3.73182E-09
  -3.75854E-09 -3.78291E-09 -3.80500E-09 -3.82488E-09 -3.84260E-09 -3.85822E-09 -3.87181E-09 -3.88341E-09 -3.89311E-09 -3.90095E-09
  -3.90699E-09 -3.91131E-09 -3.91396E-09 -3.91499E-09 -3.91447E-09 -3.91246E-09 -3.90902E-09 -3.90422E-09 -3.89811E-09 -3.89074E-09
  -3.88221E-09 -3.87252E-09 -3.86181E-09 -3.85006E-09 -3.83736E-09 -3.82381E-09 -3.80942E-09 -3.79427E-09 -3.77841E-09 -3.76191E-09
  -3.74484E-09 -3.72725E-09 -3.70921E-09 -3.69077E-09 -3.67198E-09 -3.65292E-09 -3.63366E-09 -3.61423E-09 -3.59471E-09 -3.57516E-09
  -3.55563E-09 -3.53618E-09 -3.51690E-09 -3.49781E-09 -3.47901E-09 -3.46052E-09 -3.44243E-09 -3.42480E-09 -3.40766E-09 -3.39111E-09
  -3.37520E-09 -3.35997E-09 -3.34551E-09 -3.33186E-09 -3.31908E-09 -3.30725E-09 -3.29642E-09 -3.28662E-09 -3.27796E-09 -3.27048E-09
  -3.26423E-09 -3.25926E-09 -3.25552E-09 -3.25302E-09 -3.25170E-09 -3.25158E-09 -3.25260E-09 -3.25476E-09 -3.25803E-09 -3.26239E-09
  -3.26781E-09 -3.27428E-09 -3.28177E-09 -3.29025E-09 -3.29971E-09 -3.31013E-09 -3.32147E-09 -3.33373E-09 -3.34687E-09 -3.36088E-09
  -3.37572E-09 -3.39138E-09 -3.40785E-09 -3.42508E-09 -3.44307E-09 -3.46178E-09 -3.48120E-09 -3.50130E-09 -3.52207E-09 -3.54348E-09
  -3.56550E-09 -3.58811E-09 -3.61130E-09 -3.63504E-09 -3.65930E-09 -3.68405E-09 -3.70931E-09 -3.73501E-09 -3.76116E-09 -3.78771E-09
  -3.81467E-09 -3.84199E-09 -3.86965E-09 -3.89763E-09 -3.92593E-09 -3.95450E-09 -3.98333E-09 -4.01239E-09 -4.04168E-09 -4.07113E-09
  -4.10077E-09 -4.13053E-09 -4.16044E-09 -4.19044E-09 -4.22050E-09 -4.25063E-09 -4.28079E-09 -4.31097E-09 -4.34112E-09 -4.37124E-09
  -4.40131E-09 -4.43129E-09 -4.46118E-09 -4.49093E-09 -4.52054E-09 -4.54997E-09 -4.57923E-09 -4.60826E-09 -4.63705E-09 -4.66559E-09
  -4.69383E-09 -4.72178E-09 -4.74940E-09
 GABA     Conc. = 2.25E-09
   2.31866E-09  2.35162E-09  2.38476E-09  2.41810E-09  2.45166E-09  2.48546E-09  2.51954E-09  2.55393E-09  2.58866E-09  2.62380E-09
   2.65942E-09  2.69555E-09  2.73238E-09  2.76993E-09  2.80830E-09  2.84778E-09  2.88840E-09  2.93032E-09  2.97420E-09  3.02032E-09
   3.06911E-09  3.12156E-09  3.17865E-09  3.24192E-09  3.31408E-09  3.39886E-09  3.50330E-09  3.64144E-09  3.84427E-09  4.20331E-09
   4.74555E-09  5.03216E-09  5.40138E-09  6.17930E-09  6.71375E-09  7.04690E-09  7.60420E-09  8.16947E-09  8.50046E-09  8.49595E-09
   8.25148E-09  8.12914E-09  8.13649E-09  7.09479E-09  6.04354E-09  6.03499E-09  5.63158E-09  4.85452E-09  4.53655E-09  4.38937E-09
   4.31856E-09  4.28952E-09  4.28591E-09  4.30083E-09  4.33116E-09  4.37466E-09  4.43126E-09  4.50349E-09  4.59650E-09  4.72141E-09
   4.90081E-09  5.19040E-09  5.73821E-09  6.17555E-09  6.42047E-09  7.07014E-09  7.66482E-09  7.92579E-09  8.27147E-09  8.72531E-09
   9.07169E-09  9.11387E-09  8.80102E-09  8.38219E-09  8.30224E-09  7.58499E-09  6.22107E-09  5.99518E-09  5.97346E-09  5.51396E-09
   5.39755E-09  5.44436E-09  5.44186E-09  5.71205E-09  6.10180E-09  6.26591E-09  6.52224E-09  6.93563E-09  7.29009E-09  7.59795E-09
   7.75154E-09  7.84468E-09  8.15614E-09  8.20384E-09  7.70355E-09  7.61989E-09  7.67910E-09  7.12909E-09  6.72722E-09  6.60132E-09
   6.34474E-09  6.11076E-09  5.95957E-09  5.85579E-09  5.78079E-09  5.72396E-09  5.67885E-09  5.64227E-09  5.61213E-09  5.58692E-09
   5.56544E-09  5.54586E-09  5.52737E-09  5.50954E-09  5.49203E-09  5.47479E-09  5.45778E-09  5.44032E-09  5.42215E-09  5.40309E-09
   5.38297E-09  5.36172E-09  5.33926E-09  5.31545E-09  5.29017E-09  5.26335E-09  5.23487E-09  5.20467E-09  5.17267E-09  5.13883E-09
   5.10305E-09  5.06526E-09  5.02544E-09  4.98351E-09  4.93944E-09  4.89317E-09  4.84466E-09  4.79383E-09  4.74063E-09  4.68502E-09
   4.62697E-09  4.56647E-09  4.50346E-09  4.43788E-09  4.36969E-09  4.29885E-09  4.22538E-09  4.14937E-09  4.07093E-09  3.99014E-09
   3.90711E-09  3.82194E-09  3.73477E-09  3.64574E-09  3.55500E-09  3.46275E-09  3.36920E-09  3.27463E-09  3.17942E-09  3.08406E-09
   2.98929E-09  2.89626E-09  2.80691E-09  2.72487E-09  2.65790E-09  2.62615E-09  2.70147E-09  3.27709E-09  4.14753E-09  4.61984E-09
   4.66411E-09  4.51295E-09  4.39822E-09  4.53678E-09  5.06771E-09  5.82086E-09  6.17158E-09  5.31911E-09  3.19877E-09  1.54436E-09
   1.03493E-09  7.61752E-10  5.63965E-10  3.98532E-10  2.49703E-10  1.10525E-10 -2.24724E-11 -1.51174E-10 -2.76704E-10 -3.99702E-10
  -5.20564E-10 -6.39560E-10 -7.56825E-10 -8.72452E-10 -9.86466E-10 -1.09889E-09 -1.20973E-09 -1.31891E-09 -1.42643E-09 -1.53224E-09
  -1.63627E-09 -1.73846E-09 -1.83876E-09 -1.93710E-09 -2.03340E-09 -2.12759E-09 -2.21961E-09 -2.30937E-09 -2.39681E-09 -2.48183E-09
  -2.56438E-09 -2.64437E-09 -2.72171E-09 -2.79634E-09 -2.86818E-09 -2.93713E-09 -3.00313E-09 -3.06610E-09 -3.12595E-09 -3.18273E-09
  -3.23647E-09 -3.28727E-09 -3.33516E-09 -3.38022E-09 -3.42250E-09 -3.46207E-09 -3.49899E-09 -3.53332E-09 -3.56511E-09 -3.59444E-09
  -3.62136E-09 -3.64594E-09 -3.66823E-09 -3.68830E-09 -3.70621E-09 -3.72201E-09 -3.73578E-09 -3.74756E-09 -3.75743E-09 -3.76543E-09
