 LCModel (Version 6.3-1R) Copyright: S.W. Provencher.          Ref.: Magn. Reson. Med. 30:672-679 (1993).                
 onepulse 24x6_ftSpec_smooth_lcm
 26 lines in following concentration table = NCONC+1
    Conc.  %SD /Cr+PCr  Metabolite                                         
    0.000 999%   0.000 Ala                                                 
 8.36E-13 999% 3.7E-03 Asp                                                 
    0.000 999%   0.000 Cr                                                  
 3.52E-10 186%   1.548 GABA                                                
    0.000 999%   0.000 Glc                                                 
 1.64E-09  42%   7.243 Gln                                                 
    0.000 999%   0.000 Glu                                                 
    0.000 999%   0.000 Glyc                                                
    0.000 999%   0.000 GPC                                                 
 7.08E-10  60%   3.120 GSH                                                 
 1.90E-09  22%   8.347 Ins                                                 
    0.000 999%   0.000 Lac                                                 
 4.63E-11 745%   0.204 NAAG                                                
 4.79E-10 100%   2.110 NAA                                                 
    0.000 999%   0.000 PCh                                                 
 2.27E-10 144%   1.000 PCr                                                 
 1.30E-09  60%   5.739 PE                                                  
 9.46E-11 280%   0.417 Scyllo                                              
 2.74E-09  31%  12.075 Ser                                                 
 8.31E-10 113%   3.660 Tau                                                 
    0.000 999%   0.000 GPC+PCh                                             
 5.25E-10  52%   2.314 NAA+NAAG                                            
 1.90E-09  22%   8.347 Ins+Glyc                                            
 2.27E-10 144%   1.000 Cr+PCr                                              
 1.64E-09  42%   7.243 Glu+Gln                                             
   6 lines in following misc. output table
  FWHM = 0.112 ppm    S/N =   4                                            
  Data shift = 0.391 ppm                                                   
  Ph: -13 deg     -47.3 deg/ppm                                            
  alphaB,S = 2.0E-01,   2.6E+01                                            
   12 spline knots.   Ns = 5(1)                                            
  ( 7) 4 infls.   ( 7) 3 extrs.                                            
  363 points on ppm-axis = NY
      4.250000     4.238821     4.227641     4.216462     4.205282     4.194103     4.182923     4.171744     4.160564     4.149385
      4.138206     4.127026     4.115847     4.104667     4.093488     4.082308     4.071129     4.059949     4.048770     4.037591
      4.026411     4.015232     4.004052     3.992873     3.981693     3.970514     3.959334     3.948155     3.936975     3.925796
      3.914617     3.903437     3.892258     3.881078     3.869899     3.858719     3.847540     3.836360     3.825181     3.814002
      3.802822     3.791643     3.780463     3.769284     3.758104     3.746925     3.735745     3.724566     3.713387     3.702207
      3.691028     3.679848     3.668669     3.657489     3.646310     3.635130     3.623951     3.612772     3.601592     3.590413
      3.579233     3.568054     3.556874     3.545695     3.534515     3.523336     3.512156     3.500977     3.489798     3.478618
      3.467439     3.456259     3.445080     3.433900     3.422721     3.411541     3.400362     3.389183     3.378003     3.366824
      3.355644     3.344465     3.333285     3.322106     3.310926     3.299747     3.288568     3.277388     3.266209     3.255029
      3.243850     3.232670     3.221491     3.210311     3.199132     3.187953     3.176773     3.165594     3.154414     3.143235
      3.132055     3.120876     3.109696     3.098517     3.087337     3.076158     3.064979     3.053799     3.042620     3.031440
      3.020261     3.009081     2.997902     2.986722     2.975543     2.964364     2.953184     2.942005     2.930825     2.919646
      2.908466     2.897287     2.886107     2.874928     2.863749     2.852569     2.841390     2.830210     2.819031     2.807851
      2.796672     2.785492     2.774313     2.763134     2.751954     2.740775     2.729595     2.718416     2.707236     2.696057
      2.684877     2.673698     2.662519     2.651339     2.640160     2.628980     2.617801     2.606621     2.595442     2.584262
      2.573083     2.561903     2.550724     2.539545     2.528365     2.517186     2.506006     2.494827     2.483647     2.472468
      2.461288     2.450109     2.438930     2.427750     2.416571     2.405391     2.394212     2.383032     2.371853     2.360673
      2.349494     2.338315     2.327135     2.315956     2.304776     2.293597     2.282417     2.271238     2.260058     2.248879
      2.237700     2.226520     2.215341     2.204161     2.192982     2.181802     2.170623     2.159443     2.148264     2.137084
      2.125905     2.114726     2.103546     2.092367     2.081187     2.070008     2.058828     2.047649     2.036469     2.025290
      2.014111     2.002931     1.991752     1.980572     1.969393     1.958213     1.947034     1.935854     1.924675     1.913496
      1.902316     1.891137     1.879957     1.868778     1.857598     1.846419     1.835239     1.824060     1.812881     1.801701
      1.790522     1.779342     1.768163     1.756983     1.745804     1.734624     1.723445     1.712265     1.701086     1.689907
      1.678727     1.667548     1.656368     1.645189     1.634009     1.622830     1.611650     1.600471     1.589292     1.578112
      1.566933     1.555753     1.544574     1.533394     1.522215     1.511035     1.499856     1.488677     1.477497     1.466318
      1.455138     1.443959     1.432779     1.421600     1.410420     1.399241     1.388062     1.376882     1.365703     1.354523
      1.343344     1.332164     1.320985     1.309805     1.298626     1.287446     1.276267     1.265088     1.253908     1.242729
      1.231549     1.220370     1.209190     1.198011     1.186831     1.175652     1.164473     1.153293     1.142114     1.130934
      1.119755     1.108575     1.097396     1.086216     1.075037     1.063858     1.052678     1.041499     1.030319     1.019140
      1.007960     0.996781     0.985601     0.974422     0.963243     0.952063     0.940884     0.929704     0.918525     0.907345
      0.896166     0.884986     0.873807     0.862628     0.851448     0.840269     0.829089     0.817910     0.806730     0.795551
      0.784371     0.773192     0.762012     0.750833     0.739654     0.728474     0.717295     0.706115     0.694936     0.683756
      0.672577     0.661397     0.650218     0.639039     0.627859     0.616680     0.605500     0.594321     0.583141     0.571962
      0.560782     0.549603     0.538424     0.527244     0.516065     0.504885     0.493706     0.482526     0.471347     0.460167
      0.448988     0.437809     0.426629     0.415450     0.404270     0.393091     0.381911     0.370732     0.359552     0.348373
      0.337193     0.326014     0.314835     0.303655     0.292476     0.281296     0.270117     0.258937     0.247758     0.236578
      0.225399     0.214220     0.203040
 NY phased data points follow
   9.48631E-09  8.73114E-09  8.98989E-09  8.12997E-09  7.77799E-09  7.49440E-09  8.55566E-09  7.76452E-09  8.31819E-09  8.24619E-09
   9.08460E-09  9.40254E-09  9.62936E-09  9.36663E-09  8.97746E-09  9.82270E-09  9.73294E-09  8.95398E-09  9.07627E-09  8.24288E-09
   9.10168E-09  8.91731E-09  9.86109E-09  8.83997E-09  9.24934E-09  8.37955E-09  8.45501E-09  8.33800E-09  9.95768E-09  1.11285E-08
   1.16942E-08  1.17058E-08  1.11007E-08  1.03889E-08  1.06071E-08  9.66565E-09  9.79702E-09  9.82642E-09  9.11183E-09  9.61212E-09
   9.66518E-09  9.20810E-09  9.18221E-09  7.87970E-09  8.06545E-09  7.85600E-09  8.01686E-09  7.51614E-09  7.84148E-09  6.92089E-09
   7.52966E-09  6.88856E-09  6.72579E-09  5.24729E-09  6.09993E-09  5.41291E-09  5.91376E-09  5.35178E-09  5.74971E-09  7.00625E-09
   9.27919E-09  9.61442E-09  1.04356E-08  1.02807E-08  9.46822E-09  9.06705E-09  8.77973E-09  8.40931E-09  8.37095E-09  7.45480E-09
   6.77400E-09  5.96005E-09  5.32177E-09  3.90734E-09  4.08469E-09  5.72506E-09  8.33981E-09  1.05389E-08  1.22353E-08  1.22910E-08
   1.22163E-08  1.20734E-08  1.18272E-08  1.21130E-08  1.16947E-08  1.12243E-08  1.20576E-08  1.13493E-08  1.18987E-08  1.13220E-08
   1.17668E-08  1.04606E-08  1.10155E-08  9.95239E-09  9.97124E-09  9.16464E-09  8.96678E-09  8.98391E-09  8.54458E-09  8.54828E-09
   8.92372E-09  8.33107E-09  8.58018E-09  8.56503E-09  8.42049E-09  8.16074E-09  7.45001E-09  6.64202E-09  6.77772E-09  6.64637E-09
   6.54656E-09  6.92291E-09  6.20332E-09  6.67758E-09  6.56940E-09  6.21903E-09  6.18629E-09  6.53356E-09  6.70356E-09  6.45605E-09
   6.52164E-09  5.60365E-09  4.89085E-09  4.91633E-09  4.83729E-09  4.67476E-09  5.10044E-09  5.21930E-09  5.37115E-09  5.08000E-09
   5.64328E-09  5.83445E-09  6.03456E-09  4.97386E-09  5.55336E-09  5.42211E-09  5.62672E-09  7.33110E-09  7.52751E-09  7.20627E-09
   7.30492E-09  7.54381E-09  8.33997E-09  8.82544E-09  8.88009E-09  8.95698E-09  9.72370E-09  9.38576E-09  1.00567E-08  1.00953E-08
   9.52367E-09  9.46816E-09  9.76440E-09  9.84831E-09  1.01531E-08  9.50331E-09  1.02707E-08  9.90346E-09  1.04486E-08  1.05634E-08
   1.00720E-08  1.00051E-08  1.01107E-08  1.08819E-08  9.17350E-09  8.29400E-09  8.48883E-09  1.18457E-08  1.63484E-08  1.86941E-08
   2.03876E-08  2.07174E-08  2.08231E-08  2.16843E-08  2.09931E-08  2.10222E-08  2.00561E-08  1.88929E-08  1.79432E-08  1.66971E-08
   1.48838E-08  1.30854E-08  1.02684E-08  7.67236E-09  4.87427E-09  2.18688E-09 -4.61225E-10 -3.35883E-09 -5.89492E-09 -8.07692E-09
  -9.45239E-09 -1.06042E-08 -1.08950E-08 -1.16094E-08 -1.10918E-08 -1.09352E-08 -9.21057E-09 -8.60407E-09 -7.01728E-09 -5.80527E-09
  -5.18850E-09 -4.06734E-09 -3.29400E-09 -3.24214E-09 -2.96938E-09 -2.52544E-09 -2.73243E-09 -2.33758E-09 -2.69321E-09 -2.46720E-09
  -1.97024E-09 -2.03232E-09 -1.44887E-09 -1.68838E-09 -1.96208E-09 -2.12107E-09 -2.15029E-09 -2.13942E-09 -2.03631E-09 -1.75492E-09
  -1.75673E-09 -1.40628E-09 -9.27881E-10 -1.52782E-09 -1.29248E-09 -1.93734E-09 -1.66948E-09 -1.45808E-09 -1.89122E-09 -2.20562E-09
  -1.80324E-09 -1.56724E-09 -1.94949E-09 -1.58981E-09 -1.43584E-09 -1.56088E-09 -1.44927E-09 -1.81752E-09 -1.84856E-09 -1.86321E-09
  -1.70003E-09 -2.21447E-09 -2.07269E-09 -1.86044E-09 -2.24927E-09 -2.19245E-09 -2.45029E-09 -2.27277E-09 -1.84386E-09 -1.94288E-09
  -1.72620E-09 -1.99633E-09 -1.74703E-09 -1.93272E-09 -2.21733E-09 -1.80697E-09 -1.53219E-09 -1.99887E-09 -1.25849E-09 -2.10518E-09
  -2.21325E-09 -2.48469E-09 -2.30496E-09 -2.91052E-09 -2.95546E-09 -2.86815E-09 -3.13542E-09 -2.95948E-09 -2.66376E-09 -2.13803E-09
  -2.16577E-09 -2.13833E-09 -2.03573E-09 -1.19038E-09 -8.11499E-10 -1.16222E-09 -1.35859E-09 -1.05650E-09 -1.79817E-09 -1.12260E-09
  -1.27379E-09 -1.45885E-09 -1.43833E-09 -1.79337E-09 -1.40597E-09 -1.99396E-09 -1.83182E-09 -1.97464E-09 -1.69837E-09 -1.95215E-09
  -2.44711E-09 -2.36263E-09 -2.18947E-09 -1.88580E-09 -1.84009E-09 -2.14218E-09 -2.25552E-09 -2.60974E-09 -2.16975E-09 -2.38430E-09
  -2.61047E-09 -2.61483E-09 -2.83525E-09 -1.97684E-09 -2.21036E-09 -2.14011E-09 -2.80329E-09 -2.72733E-09 -2.95272E-09 -2.32033E-09
  -2.38844E-09 -3.08450E-09 -2.75971E-09 -2.33945E-09 -2.85480E-09 -2.97887E-09 -2.76532E-09 -3.30873E-09 -3.13520E-09 -3.26409E-09
  -2.84134E-09 -2.90776E-09 -3.15436E-09 -3.55153E-09 -3.43219E-09 -3.27812E-09 -3.17845E-09 -3.02024E-09 -3.17611E-09 -3.48510E-09
  -3.67606E-09 -3.40826E-09 -3.44394E-09 -2.68569E-09 -3.58535E-09 -3.74468E-09 -4.05314E-09 -3.98973E-09 -3.56335E-09 -3.44492E-09
  -4.16162E-09 -3.69547E-09 -3.83448E-09 -4.07110E-09 -4.37082E-09 -3.90882E-09 -4.04468E-09 -4.71834E-09 -4.43402E-09 -4.47550E-09
  -4.50558E-09 -4.58254E-09 -4.65149E-09 -4.70610E-09 -4.41796E-09 -5.07069E-09 -4.88859E-09 -4.59124E-09 -5.04143E-09 -5.11113E-09
  -4.84251E-09 -5.00819E-09 -5.09452E-09
 NY points of the fit to the data follow
   9.13328E-09  9.94856E-09  9.54649E-09  8.32933E-09  7.94777E-09  8.39679E-09  8.64740E-09  8.36865E-09  8.25844E-09  8.56403E-09
   8.19847E-09  8.12236E-09  8.18094E-09  8.40063E-09  9.11021E-09  9.59061E-09  9.53490E-09  1.02409E-08  1.10306E-08  1.03269E-08
   8.93667E-09  8.10495E-09  8.13241E-09  8.37884E-09  8.58414E-09  8.83450E-09  9.42415E-09  9.94172E-09  1.03112E-08  1.04971E-08
   1.09471E-08  1.12204E-08  1.12355E-08  1.07608E-08  1.06067E-08  1.03395E-08  9.80776E-09  9.34163E-09  9.21333E-09  9.21787E-09
   9.27178E-09  9.36083E-09  9.19348E-09  8.63103E-09  8.21717E-09  7.70400E-09  7.31810E-09  6.78759E-09  6.17428E-09  5.80085E-09
   5.59949E-09  5.55687E-09  5.56403E-09  5.56417E-09  5.72459E-09  6.09574E-09  6.45853E-09  6.89919E-09  7.57758E-09  8.26746E-09
   8.72475E-09  9.02363E-09  9.30941E-09  9.60548E-09  9.63452E-09  9.35938E-09  9.14792E-09  9.05941E-09  8.55906E-09  7.81031E-09
   7.53279E-09  7.48498E-09  7.36834E-09  7.37377E-09  7.58620E-09  7.90477E-09  8.23760E-09  9.14150E-09  1.03060E-08  1.13222E-08
   1.20411E-08  1.24608E-08  1.26533E-08  1.27269E-08  1.28992E-08  1.29396E-08  1.27100E-08  1.21844E-08  1.08345E-08  9.88058E-09
   9.36580E-09  9.03184E-09  8.84732E-09  8.65966E-09  8.43441E-09  8.32585E-09  8.22125E-09  8.05694E-09  7.94963E-09  7.86626E-09
   7.77638E-09  7.70373E-09  7.64468E-09  7.59536E-09  7.55471E-09  7.52118E-09  7.49331E-09  7.47016E-09  7.45097E-09  7.43519E-09
   7.42235E-09  7.41194E-09  7.40363E-09  7.39711E-09  7.39213E-09  7.38852E-09  7.38607E-09  7.38458E-09  7.38387E-09  7.38381E-09
   7.38426E-09  7.38512E-09  7.38623E-09  7.38737E-09  7.38833E-09  7.38890E-09  7.38888E-09  7.38807E-09  7.38627E-09  7.38331E-09
   7.37898E-09  7.37310E-09  7.36551E-09  7.35602E-09  7.34445E-09  7.33064E-09  7.31443E-09  7.29563E-09  7.27409E-09  7.24965E-09
   7.22216E-09  7.19147E-09  7.15743E-09  7.11990E-09  7.07874E-09  7.03383E-09  6.98505E-09  6.93229E-09  6.87548E-09  6.81453E-09
   6.74938E-09  6.68005E-09  6.60655E-09  6.52897E-09  6.44749E-09  6.36239E-09  6.27416E-09  6.18350E-09  6.09158E-09  6.00020E-09
   5.91240E-09  5.83324E-09  5.77222E-09  5.74858E-09  5.80626E-09  6.07128E-09  7.07530E-09  1.11689E-08  1.59876E-08  1.92250E-08
   2.06830E-08  2.10495E-08  2.11440E-08  2.14329E-08  2.19809E-08  2.26013E-08  2.19591E-08  1.74536E-08  8.93725E-09  5.02292E-09
   3.74079E-09  3.06508E-09  2.60428E-09  2.24273E-09  1.93512E-09  1.66039E-09  1.40755E-09  1.17043E-09  9.45366E-10  7.30125E-10
   5.23305E-10  3.24030E-10  1.31790E-10 -5.37416E-11 -2.32674E-10 -4.05019E-10 -5.70765E-10 -7.29741E-10 -8.81818E-10 -1.02682E-09
  -1.16449E-09 -1.29462E-09 -1.41700E-09 -1.53179E-09 -1.63922E-09 -1.73954E-09 -1.83297E-09 -1.91976E-09 -2.00012E-09 -2.07428E-09
  -2.14244E-09 -2.20482E-09 -2.26163E-09 -2.31310E-09 -2.35941E-09 -2.40079E-09 -2.43744E-09 -2.46955E-09 -2.49735E-09 -2.52102E-09
  -2.54078E-09 -2.55681E-09 -2.56933E-09 -2.57853E-09 -2.58460E-09 -2.58776E-09 -2.58817E-09 -2.58607E-09 -2.58161E-09 -2.57500E-09
  -2.56644E-09 -2.55612E-09 -2.54422E-09 -2.53092E-09 -2.51643E-09 -2.50091E-09 -2.48457E-09 -2.46756E-09 -2.45010E-09 -2.43234E-09
  -2.41447E-09 -2.39665E-09 -2.37907E-09 -2.36181E-09 -2.34488E-09 -2.32834E-09 -2.31218E-09 -2.29645E-09 -2.28117E-09 -2.26637E-09
  -2.25207E-09 -2.23830E-09 -2.22508E-09 -2.21243E-09 -2.20038E-09 -2.18896E-09 -2.17818E-09 -2.16807E-09 -2.15865E-09 -2.14993E-09
  -2.14195E-09 -2.13472E-09 -2.12825E-09 -2.12258E-09 -2.11772E-09 -2.11368E-09 -2.11048E-09 -2.10815E-09 -2.10669E-09 -2.10613E-09
  -2.10647E-09 -2.10773E-09 -2.10993E-09 -2.11309E-09 -2.11720E-09 -2.12228E-09 -2.12836E-09 -2.13543E-09 -2.14350E-09 -2.15259E-09
  -2.16272E-09 -2.17387E-09 -2.18607E-09 -2.19930E-09 -2.21354E-09 -2.22877E-09 -2.24497E-09 -2.26210E-09 -2.28015E-09 -2.29909E-09
  -2.31889E-09 -2.33954E-09 -2.36099E-09 -2.38324E-09 -2.40626E-09 -2.43001E-09 -2.45448E-09 -2.47963E-09 -2.50545E-09 -2.53191E-09
  -2.55898E-09 -2.58663E-09 -2.61484E-09 -2.64359E-09 -2.67285E-09 -2.70258E-09 -2.73278E-09 -2.76340E-09 -2.79443E-09 -2.82583E-09
  -2.85759E-09 -2.88966E-09 -2.92204E-09 -2.95469E-09 -2.98758E-09 -3.02070E-09 -3.05401E-09 -3.08748E-09 -3.12109E-09 -3.15482E-09
  -3.18863E-09 -3.22250E-09 -3.25642E-09 -3.29033E-09 -3.32420E-09 -3.35799E-09 -3.39165E-09 -3.42515E-09 -3.45843E-09 -3.49147E-09
  -3.52421E-09 -3.55662E-09 -3.58866E-09 -3.62028E-09 -3.65146E-09 -3.68215E-09 -3.71232E-09 -3.74192E-09 -3.77093E-09 -3.79931E-09
  -3.82702E-09 -3.85404E-09 -3.88032E-09 -3.90584E-09 -3.93056E-09 -3.95445E-09 -3.97749E-09 -3.99964E-09 -4.02087E-09 -4.04116E-09
  -4.06047E-09 -4.07879E-09 -4.09608E-09 -4.11233E-09 -4.12750E-09 -4.14158E-09 -4.15453E-09 -4.16635E-09 -4.17700E-09 -4.18647E-09
  -4.19473E-09 -4.20178E-09 -4.20759E-09
 NY background values follow
    -3.957E-10   -3.641E-10   -3.318E-10   -2.988E-10   -2.652E-10   -2.308E-10   -1.958E-10   -1.601E-10   -1.238E-10   -8.676E-11
    -4.909E-11   -1.078E-11    2.818E-11    6.777E-11    1.080E-10    1.488E-10    1.903E-10    2.323E-10    2.750E-10    3.183E-10
     3.621E-10    4.065E-10    4.515E-10    4.971E-10    5.432E-10    5.899E-10    6.371E-10    6.848E-10    7.331E-10    7.819E-10
     8.312E-10    8.810E-10    9.313E-10    9.821E-10    1.033E-09    1.085E-09    1.137E-09    1.190E-09    1.243E-09    1.297E-09
     1.351E-09    1.405E-09    1.460E-09    1.515E-09    1.571E-09    1.627E-09    1.683E-09    1.740E-09    1.797E-09    1.854E-09
     1.912E-09    1.970E-09    2.028E-09    2.087E-09    2.145E-09    2.204E-09    2.264E-09    2.323E-09    2.383E-09    2.443E-09
     2.503E-09    2.563E-09    2.623E-09    2.684E-09    2.744E-09    2.805E-09    2.866E-09    2.926E-09    2.987E-09    3.048E-09
     3.109E-09    3.170E-09    3.231E-09    3.292E-09    3.353E-09    3.413E-09    3.474E-09    3.535E-09    3.595E-09    3.656E-09
     3.716E-09    3.776E-09    3.836E-09    3.896E-09    3.956E-09    4.015E-09    4.074E-09    4.133E-09    4.192E-09    4.250E-09
     4.308E-09    4.366E-09    4.423E-09    4.480E-09    4.536E-09    4.592E-09    4.648E-09    4.703E-09    4.757E-09    4.811E-09
     4.865E-09    4.918E-09    4.970E-09    5.022E-09    5.073E-09    5.124E-09    5.174E-09    5.223E-09    5.272E-09    5.319E-09
     5.366E-09    5.413E-09    5.458E-09    5.503E-09    5.547E-09    5.590E-09    5.632E-09    5.673E-09    5.714E-09    5.753E-09
     5.792E-09    5.829E-09    5.866E-09    5.901E-09    5.935E-09    5.967E-09    5.998E-09    6.028E-09    6.055E-09    6.080E-09
     6.103E-09    6.124E-09    6.142E-09    6.158E-09    6.171E-09    6.181E-09    6.187E-09    6.191E-09    6.191E-09    6.188E-09
     6.181E-09    6.171E-09    6.156E-09    6.137E-09    6.114E-09    6.087E-09    6.054E-09    6.018E-09    5.976E-09    5.930E-09
     5.878E-09    5.821E-09    5.758E-09    5.690E-09    5.616E-09    5.536E-09    5.451E-09    5.359E-09    5.261E-09    5.156E-09
     5.045E-09    4.927E-09    4.802E-09    4.671E-09    4.533E-09    4.390E-09    4.241E-09    4.088E-09    3.929E-09    3.767E-09
     3.600E-09    3.429E-09    3.255E-09    3.078E-09    2.899E-09    2.717E-09    2.533E-09    2.348E-09    2.161E-09    1.974E-09
     1.786E-09    1.598E-09    1.411E-09    1.223E-09    1.037E-09    8.525E-10    6.693E-10    4.881E-10    3.093E-10    1.332E-10
    -3.980E-11   -2.094E-10   -3.751E-10   -5.368E-10   -6.940E-10   -8.463E-10   -9.935E-10   -1.135E-09   -1.271E-09   -1.401E-09
    -1.524E-09   -1.640E-09   -1.749E-09   -1.851E-09   -1.946E-09   -2.035E-09   -2.117E-09   -2.193E-09   -2.262E-09   -2.326E-09
    -2.384E-09   -2.437E-09   -2.484E-09   -2.526E-09   -2.563E-09   -2.595E-09   -2.623E-09   -2.647E-09   -2.666E-09   -2.681E-09
    -2.693E-09   -2.701E-09   -2.705E-09   -2.707E-09   -2.705E-09   -2.701E-09   -2.694E-09   -2.684E-09   -2.673E-09   -2.659E-09
    -2.643E-09   -2.626E-09   -2.607E-09   -2.587E-09   -2.566E-09   -2.544E-09   -2.521E-09   -2.498E-09   -2.474E-09   -2.450E-09
    -2.426E-09   -2.402E-09   -2.378E-09   -2.355E-09   -2.332E-09   -2.310E-09   -2.288E-09   -2.266E-09   -2.245E-09   -2.225E-09
    -2.205E-09   -2.186E-09   -2.167E-09   -2.149E-09   -2.132E-09   -2.115E-09   -2.099E-09   -2.084E-09   -2.069E-09   -2.055E-09
    -2.042E-09   -2.030E-09   -2.018E-09   -2.008E-09   -1.998E-09   -1.989E-09   -1.981E-09   -1.974E-09   -1.968E-09   -1.963E-09
    -1.959E-09   -1.955E-09   -1.953E-09   -1.952E-09   -1.951E-09   -1.952E-09   -1.954E-09   -1.956E-09   -1.960E-09   -1.965E-09
    -1.971E-09   -1.978E-09   -1.986E-09   -1.995E-09   -2.005E-09   -2.016E-09   -2.028E-09   -2.041E-09   -2.055E-09   -2.070E-09
    -2.086E-09   -2.103E-09   -2.121E-09   -2.139E-09   -2.158E-09   -2.178E-09   -2.199E-09   -2.221E-09   -2.243E-09   -2.266E-09
    -2.289E-09   -2.313E-09   -2.338E-09   -2.363E-09   -2.389E-09   -2.415E-09   -2.442E-09   -2.469E-09   -2.497E-09   -2.525E-09
    -2.553E-09   -2.582E-09   -2.611E-09   -2.640E-09   -2.670E-09   -2.700E-09   -2.730E-09   -2.760E-09   -2.791E-09   -2.821E-09
    -2.852E-09   -2.883E-09   -2.914E-09   -2.944E-09   -2.975E-09   -3.006E-09   -3.037E-09   -3.067E-09   -3.098E-09   -3.128E-09
    -3.158E-09   -3.187E-09   -3.217E-09   -3.245E-09   -3.274E-09   -3.302E-09   -3.329E-09   -3.356E-09   -3.382E-09   -3.408E-09
    -3.433E-09   -3.457E-09   -3.481E-09   -3.504E-09   -3.526E-09   -3.547E-09   -3.568E-09   -3.587E-09   -3.606E-09   -3.624E-09
    -3.641E-09   -3.657E-09   -3.672E-09   -3.685E-09   -3.698E-09   -3.710E-09   -3.720E-09   -3.730E-09   -3.738E-09   -3.745E-09
    -3.751E-09   -3.756E-09   -3.760E-09
 Asp      Conc. = 8.36E-13
  -3.95036E-10 -3.63428E-10 -3.31173E-10 -2.98218E-10 -2.64560E-10 -2.30276E-10 -1.95301E-10 -1.59740E-10 -1.23474E-10 -8.65250E-11
  -4.89037E-11 -1.06296E-11  2.82916E-11  6.78550E-11  1.08052E-10  1.48868E-10  1.90304E-10  2.32347E-10  2.74993E-10  3.18234E-10
   3.62060E-10  4.06472E-10  4.51454E-10  4.97001E-10  5.43106E-10  5.89766E-10  6.36966E-10  6.84702E-10  7.32967E-10  7.81748E-10
   8.31048E-10  8.80848E-10  9.31143E-10  9.81927E-10  1.03320E-09  1.08494E-09  1.13718E-09  1.18989E-09  1.24306E-09  1.29667E-09
   1.35067E-09  1.40506E-09  1.45987E-09  1.51515E-09  1.57087E-09  1.62710E-09  1.68367E-09  1.74045E-09  1.79754E-09  1.85497E-09
   1.91279E-09  1.97097E-09  2.02943E-09  2.08807E-09  2.14678E-09  2.20565E-09  2.26463E-09  2.32408E-09  2.38378E-09  2.44350E-09
   2.50341E-09  2.56352E-09  2.62375E-09  2.68414E-09  2.74471E-09  2.80538E-09  2.86604E-09  2.92680E-09  2.98761E-09  3.04848E-09
   3.10937E-09  3.17028E-09  3.23118E-09  3.29207E-09  3.35292E-09  3.41372E-09  3.47445E-09  3.53509E-09  3.59564E-09  3.65608E-09
   3.71638E-09  3.77654E-09  3.83653E-09  3.89634E-09  3.95594E-09  4.01532E-09  4.07446E-09  4.13333E-09  4.19191E-09  4.25018E-09
   4.30814E-09  4.36574E-09  4.42297E-09  4.47982E-09  4.53626E-09  4.59226E-09  4.64782E-09  4.70290E-09  4.75749E-09  4.81157E-09
   4.86511E-09  4.91810E-09  4.97052E-09  5.02233E-09  5.07353E-09  5.12409E-09  5.17399E-09  5.22320E-09  5.27172E-09  5.31951E-09
   5.36656E-09  5.41285E-09  5.45835E-09  5.50305E-09  5.54691E-09  5.58994E-09  5.63209E-09  5.67336E-09  5.71372E-09  5.75315E-09
   5.79163E-09  5.82914E-09  5.86561E-09  5.90092E-09  5.93491E-09  5.96744E-09  5.99837E-09  6.02756E-09  6.05485E-09  6.08011E-09
   6.10319E-09  6.12393E-09  6.14220E-09  6.15784E-09  6.17070E-09  6.18064E-09  6.18752E-09  6.19117E-09  6.19145E-09  6.18822E-09
   6.18132E-09  6.17059E-09  6.15591E-09  6.13711E-09  6.11404E-09  6.08656E-09  6.05452E-09  6.01777E-09  5.97616E-09  5.92955E-09
   5.87777E-09  5.82070E-09  5.75819E-09  5.69008E-09  5.61623E-09  5.53651E-09  5.45076E-09  5.35884E-09  5.26061E-09  5.15592E-09
   5.04467E-09  4.92667E-09  4.80191E-09  4.67068E-09  4.53333E-09  4.39021E-09  4.24173E-09  4.08844E-09  3.93039E-09  3.76778E-09
   3.60099E-09  3.43044E-09  3.25654E-09  3.07968E-09  2.90021E-09  2.71847E-09  2.53465E-09  2.34892E-09  2.16173E-09  1.97423E-09
   1.78635E-09  1.59839E-09  1.41067E-09  1.22354E-09  1.03737E-09  8.52512E-10  6.69311E-10  4.88131E-10  3.09316E-10  1.33233E-10
  -3.97680E-11 -2.09343E-10 -3.75123E-10 -5.36794E-10 -6.93980E-10 -8.46324E-10 -9.93529E-10 -1.13520E-09 -1.27102E-09 -1.40068E-09
  -1.52379E-09 -1.64006E-09 -1.74918E-09 -1.85126E-09 -1.94646E-09 -2.03499E-09 -2.11703E-09 -2.19278E-09 -2.26244E-09 -2.32618E-09
  -2.38421E-09 -2.43671E-09 -2.48390E-09 -2.52595E-09 -2.56305E-09 -2.59543E-09 -2.62324E-09 -2.64670E-09 -2.66601E-09 -2.68134E-09
  -2.69291E-09 -2.70090E-09 -2.70550E-09 -2.70691E-09 -2.70531E-09 -2.70092E-09 -2.69389E-09 -2.68446E-09 -2.67278E-09 -2.65904E-09
  -2.64345E-09 -2.62620E-09 -2.60746E-09 -2.58740E-09 -2.56624E-09 -2.54413E-09 -2.52129E-09 -2.49785E-09 -2.47403E-09 -2.44999E-09
  -2.42591E-09 -2.40196E-09 -2.37831E-09 -2.35504E-09 -2.33219E-09 -2.30976E-09 -2.28780E-09 -2.26632E-09 -2.24535E-09 -2.22492E-09
  -2.20505E-09 -2.18576E-09 -2.16707E-09 -2.14902E-09 -2.13161E-09 -2.11489E-09 -2.09886E-09 -2.08355E-09 -2.06897E-09 -2.05515E-09
  -2.04212E-09 -2.02987E-09 -2.01844E-09 -2.00786E-09 -1.99812E-09 -1.98925E-09 -1.98127E-09 -1.97419E-09 -1.96803E-09 -1.96281E-09
  -1.95853E-09 -1.95522E-09 -1.95288E-09 -1.95153E-09 -1.95118E-09 -1.95184E-09 -1.95353E-09 -1.95625E-09 -1.96001E-09 -1.96483E-09
  -1.97071E-09 -1.97766E-09 -1.98569E-09 -1.99478E-09 -2.00492E-09 -2.01608E-09 -2.02824E-09 -2.04137E-09 -2.05545E-09 -2.07045E-09
  -2.08634E-09 -2.10311E-09 -2.12072E-09 -2.13915E-09 -2.15838E-09 -2.17838E-09 -2.19912E-09 -2.22058E-09 -2.24273E-09 -2.26554E-09
  -2.28900E-09 -2.31307E-09 -2.33773E-09 -2.36295E-09 -2.38870E-09 -2.41496E-09 -2.44171E-09 -2.46891E-09 -2.49654E-09 -2.52458E-09
  -2.55299E-09 -2.58175E-09 -2.61083E-09 -2.64021E-09 -2.66986E-09 -2.69976E-09 -2.72987E-09 -2.76017E-09 -2.79064E-09 -2.82125E-09
  -2.85196E-09 -2.88276E-09 -2.91361E-09 -2.94450E-09 -2.97536E-09 -3.00617E-09 -3.03687E-09 -3.06742E-09 -3.09779E-09 -3.12793E-09
  -3.15779E-09 -3.18735E-09 -3.21655E-09 -3.24537E-09 -3.27376E-09 -3.30168E-09 -3.32910E-09 -3.35598E-09 -3.38228E-09 -3.40797E-09
  -3.43302E-09 -3.45739E-09 -3.48104E-09 -3.50395E-09 -3.52608E-09 -3.54741E-09 -3.56790E-09 -3.58752E-09 -3.60624E-09 -3.62403E-09
  -3.64088E-09 -3.65674E-09 -3.67160E-09 -3.68544E-09 -3.69821E-09 -3.70990E-09 -3.72050E-09 -3.72997E-09 -3.73830E-09 -3.74546E-09
  -3.75144E-09 -3.75621E-09 -3.75977E-09
 GABA     Conc. = 3.52E-10
  -5.31595E-10 -5.02228E-10 -4.72266E-10 -4.41721E-10 -4.10608E-10 -3.78943E-10 -3.46743E-10 -3.14028E-10 -2.80821E-10 -2.47140E-10
  -2.13005E-10 -1.78461E-10 -1.43513E-10 -1.08209E-10 -7.25741E-11 -3.66440E-11 -4.99670E-13  3.58032E-11  7.22340E-11  1.08683E-10
   1.45056E-10  1.81282E-10  2.17217E-10  2.52720E-10  2.87704E-10  3.22010E-10  3.55792E-10  3.90051E-10  4.29834E-10  5.07804E-10
   6.05106E-10  6.76092E-10  7.93890E-10  9.66195E-10  1.12037E-09  1.27213E-09  1.43792E-09  1.60821E-09  1.76444E-09  1.87002E-09
   1.91898E-09  2.01877E-09  2.10451E-09  2.03021E-09  1.99547E-09  2.03819E-09  2.01250E-09  1.98113E-09  1.97875E-09  1.99254E-09
   2.01617E-09  2.04627E-09  2.08080E-09  2.11860E-09  2.15890E-09  2.20106E-09  2.24472E-09  2.28972E-09  2.33621E-09  2.38534E-09
   2.44072E-09  2.51847E-09  2.64889E-09  2.76600E-09  2.87405E-09  3.05113E-09  3.22790E-09  3.36846E-09  3.50773E-09  3.64667E-09
   3.77810E-09  3.87328E-09  3.89833E-09  3.89895E-09  3.97586E-09  3.94493E-09  3.82721E-09  3.85094E-09  3.87610E-09  3.85938E-09
   3.89411E-09  3.93391E-09  3.97163E-09  4.06433E-09  4.16666E-09  4.24908E-09  4.35616E-09  4.47488E-09  4.59275E-09  4.71145E-09
   4.79362E-09  4.86774E-09  4.99119E-09  5.04871E-09  5.02969E-09  5.09854E-09  5.14770E-09  5.11894E-09  5.13362E-09  5.16211E-09
   5.17315E-09  5.19187E-09  5.21765E-09  5.24809E-09  5.28165E-09  5.31726E-09  5.35425E-09  5.39219E-09  5.43076E-09  5.46975E-09
   5.50896E-09  5.54811E-09  5.58709E-09  5.62579E-09  5.66413E-09  5.70207E-09  5.73953E-09  5.77644E-09  5.81272E-09  5.84833E-09
   5.88321E-09  5.91734E-09  5.95063E-09  5.98292E-09  6.01405E-09  6.04388E-09  6.07224E-09  6.09897E-09  6.12392E-09  6.14695E-09
   6.16788E-09  6.18658E-09  6.20288E-09  6.21665E-09  6.22771E-09  6.23591E-09  6.24112E-09  6.24317E-09  6.24190E-09  6.23717E-09
   6.22883E-09  6.21672E-09  6.20071E-09  6.18061E-09  6.15630E-09  6.12762E-09  6.09442E-09  6.05655E-09  6.01388E-09  5.96624E-09
   5.91349E-09  5.85549E-09  5.79211E-09  5.72318E-09  5.64859E-09  5.56820E-09  5.48190E-09  5.38954E-09  5.29105E-09  5.18633E-09
   5.07540E-09  4.95825E-09  4.83524E-09  4.70739E-09  4.57686E-09  4.44971E-09  4.35390E-09  4.37306E-09  4.38207E-09  4.32062E-09
   4.19710E-09  4.03937E-09  3.87539E-09  3.71787E-09  3.56671E-09  3.41148E-09  3.19335E-09  2.81992E-09  2.33529E-09  2.06727E-09
   1.85088E-09  1.64866E-09  1.45237E-09  1.25950E-09  1.06916E-09  8.81111E-10  6.95371E-10  5.12103E-10  3.31524E-10  1.53921E-10
  -2.04149E-11 -1.91178E-10 -3.58030E-10 -5.20676E-10 -6.78760E-10 -8.31935E-10 -9.79915E-10 -1.12231E-09 -1.25882E-09 -1.38913E-09
  -1.51285E-09 -1.62971E-09 -1.73939E-09 -1.84201E-09 -1.93774E-09 -2.02677E-09 -2.10929E-09 -2.18551E-09 -2.25562E-09 -2.31980E-09
  -2.37826E-09 -2.43118E-09 -2.47877E-09 -2.52121E-09 -2.55871E-09 -2.59145E-09 -2.61964E-09 -2.64346E-09 -2.66312E-09 -2.67879E-09
  -2.69070E-09 -2.69901E-09 -2.70394E-09 -2.70567E-09 -2.70438E-09 -2.70030E-09 -2.69357E-09 -2.68443E-09 -2.67304E-09 -2.65959E-09
  -2.64428E-09 -2.62730E-09 -2.60883E-09 -2.58904E-09 -2.56815E-09 -2.54630E-09 -2.52371E-09 -2.50052E-09 -2.47695E-09 -2.45316E-09
