 LCModel (Version 6.3-1R) Copyright: S.W. Provencher.          Ref.: Magn. Reson. Med. 30:672-679 (1993).                
 onepulse 24x7_ftSpec_smooth_lcm
 26 lines in following concentration table = NCONC+1
    Conc.  %SD /Cr+PCr  Metabolite                                         
    0.000 999%   0.000 Ala                                                 
    0.000 999%   0.000 Asp                                                 
    0.000 999%   0.000 Cr                                                  
    0.000 999%   0.000 GABA                                                
    0.000 999%   0.000 Glc                                                 
 2.20E-09  30%   8.692 Gln                                                 
    0.000 999%   0.000 Glu                                                 
    0.000 999%   0.000 Glyc                                                
    0.000 999%   0.000 GPC                                                 
 4.89E-10  83%   1.935 GSH                                                 
 1.86E-09  23%   7.348 Ins                                                 
    0.000 999%   0.000 Lac                                                 
 2.39E-10 136%   0.948 NAAG                                                
 2.38E-10 187%   0.942 NAA                                                 
    0.000 999%   0.000 PCh                                                 
 2.53E-10 105%   1.000 PCr                                                 
 1.45E-09  56%   5.754 PE                                                  
 1.40E-10 203%   0.553 Scyllo                                              
 2.73E-09  22%  10.788 Ser                                                 
 6.13E-10 156%   2.429 Tau                                                 
    0.000 999%   0.000 GPC+PCh                                             
 4.77E-10  58%   1.890 NAA+NAAG                                            
 1.86E-09  23%   7.348 Ins+Glyc                                            
 2.53E-10 105%   1.000 Cr+PCr                                              
 2.20E-09  30%   8.692 Glu+Gln                                             
   6 lines in following misc. output table
  FWHM = 0.112 ppm    S/N =   3                                            
  Data shift = 0.391 ppm                                                   
  Ph: -27 deg     -50.9 deg/ppm                                            
  alphaB,S = 4.0E-01,   2.8E+01                                            
   11 spline knots.   Ns = 5(1)                                            
  ( 9) 4 infls.   ( 7) 3 extrs.                                            
  363 points on ppm-axis = NY
      4.250000     4.238821     4.227641     4.216462     4.205282     4.194103     4.182923     4.171744     4.160564     4.149385
      4.138206     4.127026     4.115847     4.104667     4.093488     4.082308     4.071129     4.059949     4.048770     4.037591
      4.026411     4.015232     4.004052     3.992873     3.981693     3.970514     3.959334     3.948155     3.936975     3.925796
      3.914617     3.903437     3.892258     3.881078     3.869899     3.858719     3.847540     3.836360     3.825181     3.814002
      3.802822     3.791643     3.780463     3.769284     3.758104     3.746925     3.735745     3.724566     3.713387     3.702207
      3.691028     3.679848     3.668669     3.657489     3.646310     3.635130     3.623951     3.612772     3.601592     3.590413
      3.579233     3.568054     3.556874     3.545695     3.534515     3.523336     3.512156     3.500977     3.489798     3.478618
      3.467439     3.456259     3.445080     3.433900     3.422721     3.411541     3.400362     3.389183     3.378003     3.366824
      3.355644     3.344465     3.333285     3.322106     3.310926     3.299747     3.288568     3.277388     3.266209     3.255029
      3.243850     3.232670     3.221491     3.210311     3.199132     3.187953     3.176773     3.165594     3.154414     3.143235
      3.132055     3.120876     3.109696     3.098517     3.087337     3.076158     3.064979     3.053799     3.042620     3.031440
      3.020261     3.009081     2.997902     2.986722     2.975543     2.964364     2.953184     2.942005     2.930825     2.919646
      2.908466     2.897287     2.886107     2.874928     2.863749     2.852569     2.841390     2.830210     2.819031     2.807851
      2.796672     2.785492     2.774313     2.763134     2.751954     2.740775     2.729595     2.718416     2.707236     2.696057
      2.684877     2.673698     2.662519     2.651339     2.640160     2.628980     2.617801     2.606621     2.595442     2.584262
      2.573083     2.561903     2.550724     2.539545     2.528365     2.517186     2.506006     2.494827     2.483647     2.472468
      2.461288     2.450109     2.438930     2.427750     2.416571     2.405391     2.394212     2.383032     2.371853     2.360673
      2.349494     2.338315     2.327135     2.315956     2.304776     2.293597     2.282417     2.271238     2.260058     2.248879
      2.237700     2.226520     2.215341     2.204161     2.192982     2.181802     2.170623     2.159443     2.148264     2.137084
      2.125905     2.114726     2.103546     2.092367     2.081187     2.070008     2.058828     2.047649     2.036469     2.025290
      2.014111     2.002931     1.991752     1.980572     1.969393     1.958213     1.947034     1.935854     1.924675     1.913496
      1.902316     1.891137     1.879957     1.868778     1.857598     1.846419     1.835239     1.824060     1.812881     1.801701
      1.790522     1.779342     1.768163     1.756983     1.745804     1.734624     1.723445     1.712265     1.701086     1.689907
      1.678727     1.667548     1.656368     1.645189     1.634009     1.622830     1.611650     1.600471     1.589292     1.578112
      1.566933     1.555753     1.544574     1.533394     1.522215     1.511035     1.499856     1.488677     1.477497     1.466318
      1.455138     1.443959     1.432779     1.421600     1.410420     1.399241     1.388062     1.376882     1.365703     1.354523
      1.343344     1.332164     1.320985     1.309805     1.298626     1.287446     1.276267     1.265088     1.253908     1.242729
      1.231549     1.220370     1.209190     1.198011     1.186831     1.175652     1.164473     1.153293     1.142114     1.130934
      1.119755     1.108575     1.097396     1.086216     1.075037     1.063858     1.052678     1.041499     1.030319     1.019140
      1.007960     0.996781     0.985601     0.974422     0.963243     0.952063     0.940884     0.929704     0.918525     0.907345
      0.896166     0.884986     0.873807     0.862628     0.851448     0.840269     0.829089     0.817910     0.806730     0.795551
      0.784371     0.773192     0.762012     0.750833     0.739654     0.728474     0.717295     0.706115     0.694936     0.683756
      0.672577     0.661397     0.650218     0.639039     0.627859     0.616680     0.605500     0.594321     0.583141     0.571962
      0.560782     0.549603     0.538424     0.527244     0.516065     0.504885     0.493706     0.482526     0.471347     0.460167
      0.448988     0.437809     0.426629     0.415450     0.404270     0.393091     0.381911     0.370732     0.359552     0.348373
      0.337193     0.326014     0.314835     0.303655     0.292476     0.281296     0.270117     0.258937     0.247758     0.236578
      0.225399     0.214220     0.203040
 NY phased data points follow
   1.17236E-08  1.06396E-08  1.08411E-08  9.80156E-09  9.61548E-09  9.09713E-09  1.04294E-08  9.49388E-09  1.03932E-08  1.04197E-08
   1.13519E-08  1.13651E-08  1.17445E-08  1.10601E-08  1.10337E-08  1.14653E-08  1.16062E-08  1.04477E-08  1.08174E-08  9.83171E-09
   1.08584E-08  1.05420E-08  1.17143E-08  1.04843E-08  1.11238E-08  9.85455E-09  1.04066E-08  1.01942E-08  1.24080E-08  1.32582E-08
   1.37794E-08  1.34309E-08  1.28190E-08  1.18833E-08  1.20326E-08  1.09099E-08  1.11993E-08  1.07868E-08  1.02482E-08  1.05753E-08
   1.06923E-08  9.81803E-09  9.99621E-09  8.40329E-09  8.86377E-09  8.39631E-09  8.88743E-09  8.22937E-09  8.70908E-09  7.18380E-09
   8.38947E-09  7.29144E-09  7.32743E-09  5.46310E-09  6.94556E-09  5.94027E-09  6.92369E-09  5.98304E-09  7.22119E-09  8.50049E-09
   1.14066E-08  1.11659E-08  1.22844E-08  1.14264E-08  1.07330E-08  9.81300E-09  9.91370E-09  9.20283E-09  9.30303E-09  7.80200E-09
   7.39865E-09  6.26543E-09  6.32437E-09  4.29922E-09  5.29458E-09  6.73749E-09  1.06636E-08  1.26103E-08  1.45041E-08  1.39395E-08
   1.42483E-08  1.35547E-08  1.34729E-08  1.32007E-08  1.33070E-08  1.23289E-08  1.34672E-08  1.21023E-08  1.30777E-08  1.17597E-08
   1.29585E-08  1.07924E-08  1.19456E-08  1.03744E-08  1.06440E-08  9.37139E-09  9.55054E-09  9.13588E-09  9.40423E-09  8.85174E-09
   9.59204E-09  8.39598E-09  9.17675E-09  8.56443E-09  9.02308E-09  8.25704E-09  7.92334E-09  6.58050E-09  7.01707E-09  6.49852E-09
   7.13740E-09  6.70809E-09  6.57450E-09  6.87207E-09  7.22037E-09  6.34522E-09  6.96727E-09  6.94025E-09  7.49714E-09  6.57003E-09
   7.27883E-09  5.65342E-09  5.57908E-09  4.90198E-09  5.42302E-09  4.74815E-09  5.74917E-09  5.33354E-09  5.88056E-09  4.86321E-09
   6.20834E-09  5.73137E-09  6.19273E-09  4.73637E-09  5.85698E-09  5.21115E-09  6.05524E-09  7.34017E-09  8.10898E-09  7.28007E-09
   7.68764E-09  7.68472E-09  9.07236E-09  8.80389E-09  9.30490E-09  9.05609E-09  1.01419E-08  9.01412E-09  1.01678E-08  9.78578E-09
   9.68119E-09  9.12374E-09  9.71625E-09  9.43014E-09  9.96913E-09  8.78004E-09  9.83945E-09  9.02928E-09  9.98408E-09  9.56893E-09
   9.31891E-09  8.82491E-09  9.05750E-09  9.54455E-09  8.06714E-09  6.57698E-09  7.09979E-09  1.09712E-08  1.62333E-08  1.83932E-08
   2.03632E-08  2.03091E-08  2.03894E-08  2.08020E-08  2.03162E-08  1.99297E-08  1.93866E-08  1.78184E-08  1.75391E-08  1.58008E-08
   1.49038E-08  1.30560E-08  1.08194E-08  8.25896E-09  5.99435E-09  3.30841E-09  8.68055E-10 -1.84387E-09 -4.28129E-09 -6.75501E-09
  -8.13637E-09 -9.81025E-09 -1.00595E-08 -1.12831E-08 -1.13194E-08 -1.18544E-08 -1.04030E-08 -1.05764E-08 -8.91930E-09 -8.09212E-09
  -7.11466E-09 -6.13816E-09 -5.07370E-09 -4.84329E-09 -3.89993E-09 -3.56342E-09 -3.01982E-09 -2.86966E-09 -2.76911E-09 -2.94315E-09
  -2.29320E-09 -2.68897E-09 -2.15617E-09 -2.58348E-09 -2.54126E-09 -2.73507E-09 -2.22961E-09 -2.47793E-09 -2.09792E-09 -2.06533E-09
  -2.17530E-09 -1.99179E-09 -1.36735E-09 -2.29012E-09 -1.84259E-09 -2.64210E-09 -1.82167E-09 -1.83045E-09 -1.83416E-09 -2.49721E-09
  -1.81239E-09 -1.82180E-09 -1.97405E-09 -2.02463E-09 -1.54082E-09 -2.04000E-09 -1.92238E-09 -2.46552E-09 -1.92710E-09 -2.30807E-09
  -1.62678E-09 -2.52523E-09 -1.92322E-09 -2.15578E-09 -2.12005E-09 -2.44499E-09 -2.14655E-09 -2.34524E-09 -1.67290E-09 -2.13998E-09
  -1.61127E-09 -1.95099E-09 -1.48858E-09 -2.02876E-09 -2.04767E-09 -1.64055E-09 -1.32768E-09 -2.18899E-09 -1.52707E-09 -2.30717E-09
  -2.27675E-09 -2.59383E-09 -2.46243E-09 -3.16908E-09 -3.02838E-09 -3.20662E-09 -3.25355E-09 -3.19265E-09 -2.75391E-09 -2.44791E-09
  -2.31716E-09 -2.39169E-09 -1.93431E-09 -1.25468E-09 -5.77463E-10 -1.09454E-09 -1.14995E-09 -1.14024E-09 -1.50469E-09 -1.14587E-09
  -9.50579E-10 -1.35495E-09 -1.25879E-09 -1.78382E-09 -1.18668E-09 -1.85245E-09 -1.57771E-09 -1.66503E-09 -1.70420E-09 -1.80890E-09
  -2.46738E-09 -2.29851E-09 -1.94517E-09 -2.00529E-09 -1.94275E-09 -2.14175E-09 -2.34791E-09 -2.69618E-09 -2.27880E-09 -2.53039E-09
  -2.55853E-09 -2.78521E-09 -2.79217E-09 -2.27431E-09 -2.49947E-09 -2.30355E-09 -2.90724E-09 -2.96525E-09 -3.14898E-09 -2.60904E-09
  -2.62646E-09 -3.18576E-09 -2.87779E-09 -2.63872E-09 -3.09142E-09 -3.17338E-09 -2.91403E-09 -3.63833E-09 -3.26465E-09 -3.34894E-09
  -3.16055E-09 -3.10477E-09 -3.42721E-09 -3.81895E-09 -3.74417E-09 -3.49442E-09 -3.27832E-09 -3.31239E-09 -3.34744E-09 -3.70500E-09
  -3.94365E-09 -3.63801E-09 -3.74990E-09 -2.90189E-09 -3.87502E-09 -4.13018E-09 -4.33982E-09 -4.04391E-09 -3.80766E-09 -3.75231E-09
  -4.43698E-09 -3.76145E-09 -3.91847E-09 -4.20676E-09 -4.53846E-09 -4.07065E-09 -4.14365E-09 -4.86496E-09 -4.61472E-09 -4.69804E-09
  -4.46332E-09 -4.74875E-09 -4.80750E-09 -4.82218E-09 -4.71485E-09 -5.00762E-09 -4.84471E-09 -4.66611E-09 -5.32666E-09 -5.11616E-09
  -4.89400E-09 -4.82532E-09 -5.17787E-09
 NY points of the fit to the data follow
   1.14190E-08  1.19567E-08  1.13597E-08  1.03800E-08  1.00869E-08  1.03855E-08  1.04182E-08  1.00097E-08  9.77791E-09  1.00518E-08
   1.01423E-08  1.02465E-08  1.04453E-08  1.06957E-08  1.12351E-08  1.15251E-08  1.14302E-08  1.19765E-08  1.25004E-08  1.17210E-08
   1.04730E-08  9.76155E-09  9.76525E-09  9.99185E-09  1.02796E-08  1.07242E-08  1.14894E-08  1.21866E-08  1.25901E-08  1.26118E-08
   1.28863E-08  1.30244E-08  1.29047E-08  1.24510E-08  1.22319E-08  1.18160E-08  1.11563E-08  1.05227E-08  1.02192E-08  1.01109E-08
   1.01091E-08  1.00661E-08  9.74983E-09  9.19090E-09  8.78476E-09  8.31453E-09  7.99120E-09  7.58485E-09  7.15377E-09  6.87493E-09
   6.69990E-09  6.61801E-09  6.55644E-09  6.50382E-09  6.64104E-09  7.08867E-09  7.56224E-09  8.05913E-09  8.80745E-09  9.60591E-09
   1.01846E-08  1.06297E-08  1.10196E-08  1.13668E-08  1.14003E-08  1.10300E-08  1.06341E-08  1.04106E-08  9.74147E-09  8.85135E-09
   8.43919E-09  8.32039E-09  8.26340E-09  8.38889E-09  8.64489E-09  9.18830E-09  1.00209E-08  1.11429E-08  1.23554E-08  1.33769E-08
   1.40764E-08  1.44830E-08  1.45315E-08  1.45090E-08  1.46432E-08  1.44090E-08  1.36477E-08  1.26666E-08  1.15394E-08  1.07076E-08
   1.01879E-08  9.81752E-09  9.53404E-09  9.30949E-09  9.11879E-09  8.95476E-09  8.81750E-09  8.70090E-09  8.59529E-09  8.49376E-09
   8.40707E-09  8.33553E-09  8.26941E-09  8.20517E-09  8.14701E-09  8.09440E-09  8.04604E-09  8.00119E-09  7.95893E-09  7.91887E-09
   7.88059E-09  7.84372E-09  7.80792E-09  7.77287E-09  7.73830E-09  7.70395E-09  7.66962E-09  7.63506E-09  7.60008E-09  7.56451E-09
   7.52816E-09  7.49088E-09  7.45251E-09  7.41290E-09  7.37193E-09  7.32943E-09  7.28531E-09  7.23943E-09  7.19167E-09  7.14191E-09
   7.09005E-09  7.03599E-09  6.97962E-09  6.92084E-09  6.85954E-09  6.79566E-09  6.72908E-09  6.65977E-09  6.58778E-09  6.51318E-09
   6.43602E-09  6.35639E-09  6.27436E-09  6.19001E-09  6.10345E-09  6.01476E-09  5.92407E-09  5.83150E-09  5.73718E-09  5.64128E-09
   5.54399E-09  5.44551E-09  5.34612E-09  5.24614E-09  5.14597E-09  5.04617E-09  4.94743E-09  4.85073E-09  4.75749E-09  4.66978E-09
   4.59093E-09  4.52634E-09  4.48583E-09  4.48878E-09  4.57967E-09  4.88612E-09  5.94625E-09  1.01545E-08  1.52283E-08  1.87867E-08
   2.03863E-08  2.06585E-08  2.05578E-08  2.07064E-08  2.11894E-08  2.15572E-08  2.03310E-08  1.54130E-08  7.52935E-09  4.35114E-09
   3.29438E-09  2.74616E-09  2.38470E-09  2.11124E-09  1.88607E-09  1.69025E-09  1.51373E-09  1.35062E-09  1.19737E-09  1.05163E-09
   9.11879E-10  7.77004E-10  6.46297E-10  5.19181E-10  3.95277E-10  2.74294E-10  1.56028E-10  4.03161E-11 -7.29504E-11 -1.83862E-10
  -2.92465E-10 -3.98800E-10 -5.02892E-10 -6.04744E-10 -7.04363E-10 -8.01751E-10 -8.96886E-10 -9.89752E-10 -1.08033E-09 -1.16859E-09
  -1.25450E-09 -1.33804E-09 -1.41918E-09 -1.49791E-09 -1.57414E-09 -1.64788E-09 -1.71908E-09 -1.78772E-09 -1.85375E-09 -1.91712E-09
  -1.97784E-09 -2.03583E-09 -2.09107E-09 -2.14355E-09 -2.19322E-09 -2.24000E-09 -2.28394E-09 -2.32497E-09 -2.36315E-09 -2.39858E-09
  -2.43137E-09 -2.46159E-09 -2.48937E-09 -2.51479E-09 -2.53795E-09 -2.55895E-09 -2.57788E-09 -2.59484E-09 -2.60993E-09 -2.62323E-09
  -2.63485E-09 -2.64488E-09 -2.65340E-09 -2.66052E-09 -2.66632E-09 -2.67090E-09 -2.67434E-09 -2.67674E-09 -2.67818E-09 -2.67876E-09
  -2.67856E-09 -2.67766E-09 -2.67616E-09 -2.67414E-09 -2.67167E-09 -2.66886E-09 -2.66577E-09 -2.66249E-09 -2.65910E-09 -2.65569E-09
  -2.65231E-09 -2.64907E-09 -2.64602E-09 -2.64325E-09 -2.64083E-09 -2.63883E-09 -2.63732E-09 -2.63638E-09 -2.63606E-09 -2.63645E-09
  -2.63761E-09 -2.63959E-09 -2.64247E-09 -2.64626E-09 -2.65094E-09 -2.65648E-09 -2.66288E-09 -2.67009E-09 -2.67810E-09 -2.68687E-09
  -2.69641E-09 -2.70666E-09 -2.71762E-09 -2.72925E-09 -2.74154E-09 -2.75446E-09 -2.76799E-09 -2.78209E-09 -2.79675E-09 -2.81195E-09
  -2.82766E-09 -2.84385E-09 -2.86051E-09 -2.87761E-09 -2.89512E-09 -2.91301E-09 -2.93128E-09 -2.94989E-09 -2.96882E-09 -2.98804E-09
  -3.00754E-09 -3.02728E-09 -3.04725E-09 -3.06741E-09 -3.08776E-09 -3.10827E-09 -3.12890E-09 -3.14964E-09 -3.17046E-09 -3.19136E-09
  -3.21229E-09 -3.23323E-09 -3.25417E-09 -3.27509E-09 -3.29595E-09 -3.31674E-09 -3.33744E-09 -3.35801E-09 -3.37845E-09 -3.39873E-09
  -3.41882E-09 -3.43868E-09 -3.45831E-09 -3.47766E-09 -3.49673E-09 -3.51547E-09 -3.53388E-09 -3.55192E-09 -3.56957E-09 -3.58681E-09
  -3.60362E-09 -3.61996E-09 -3.63583E-09 -3.65120E-09 -3.66604E-09 -3.68034E-09 -3.69408E-09 -3.70723E-09 -3.71978E-09 -3.73170E-09
  -3.74298E-09 -3.75360E-09 -3.76354E-09 -3.77277E-09 -3.78130E-09 -3.78909E-09 -3.79614E-09 -3.80242E-09 -3.80792E-09 -3.81262E-09
  -3.81651E-09 -3.81957E-09 -3.82180E-09 -3.82317E-09 -3.82368E-09 -3.82331E-09 -3.82204E-09 -3.81988E-09 -3.81680E-09 -3.81280E-09
  -3.80787E-09 -3.80199E-09 -3.79515E-09
 NY background values follow
     1.672E-09    1.706E-09    1.740E-09    1.774E-09    1.809E-09    1.843E-09    1.879E-09    1.914E-09    1.949E-09    1.985E-09
     2.021E-09    2.058E-09    2.094E-09    2.131E-09    2.168E-09    2.205E-09    2.243E-09    2.281E-09    2.319E-09    2.357E-09
     2.395E-09    2.433E-09    2.472E-09    2.511E-09    2.550E-09    2.589E-09    2.629E-09    2.668E-09    2.708E-09    2.748E-09
     2.788E-09    2.828E-09    2.868E-09    2.909E-09    2.949E-09    2.990E-09    3.031E-09    3.071E-09    3.112E-09    3.153E-09
     3.195E-09    3.236E-09    3.277E-09    3.319E-09    3.360E-09    3.402E-09    3.443E-09    3.485E-09    3.526E-09    3.568E-09
     3.610E-09    3.651E-09    3.693E-09    3.735E-09    3.777E-09    3.818E-09    3.860E-09    3.902E-09    3.944E-09    3.985E-09
     4.027E-09    4.068E-09    4.110E-09    4.151E-09    4.193E-09    4.234E-09    4.275E-09    4.316E-09    4.357E-09    4.398E-09
     4.439E-09    4.480E-09    4.520E-09    4.561E-09    4.601E-09    4.641E-09    4.681E-09    4.721E-09    4.761E-09    4.800E-09
     4.839E-09    4.878E-09    4.917E-09    4.956E-09    4.995E-09    5.033E-09    5.071E-09    5.109E-09    5.146E-09    5.184E-09
     5.221E-09    5.258E-09    5.294E-09    5.330E-09    5.366E-09    5.402E-09    5.436E-09    5.470E-09    5.504E-09    5.537E-09
     5.569E-09    5.600E-09    5.630E-09    5.659E-09    5.687E-09    5.714E-09    5.740E-09    5.764E-09    5.787E-09    5.809E-09
     5.829E-09    5.848E-09    5.865E-09    5.880E-09    5.894E-09    5.906E-09    5.916E-09    5.923E-09    5.929E-09    5.933E-09
     5.934E-09    5.934E-09    5.931E-09    5.925E-09    5.917E-09    5.907E-09    5.893E-09    5.877E-09    5.859E-09    5.837E-09
     5.813E-09    5.785E-09    5.755E-09    5.721E-09    5.685E-09    5.645E-09    5.601E-09    5.554E-09    5.504E-09    5.451E-09
     5.394E-09    5.335E-09    5.272E-09    5.207E-09    5.138E-09    5.067E-09    4.993E-09    4.916E-09    4.837E-09    4.756E-09
     4.672E-09    4.585E-09    4.497E-09    4.406E-09    4.314E-09    4.219E-09    4.123E-09    4.024E-09    3.924E-09    3.823E-09
     3.720E-09    3.615E-09    3.509E-09    3.402E-09    3.294E-09    3.184E-09    3.074E-09    2.963E-09    2.851E-09    2.738E-09
     2.625E-09    2.511E-09    2.396E-09    2.282E-09    2.167E-09    2.052E-09    1.937E-09    1.822E-09    1.707E-09    1.592E-09
     1.478E-09    1.364E-09    1.250E-09    1.138E-09    1.025E-09    9.137E-10    8.029E-10    6.929E-10    5.838E-10    4.755E-10
     3.683E-10    2.621E-10    1.570E-10    5.309E-11   -4.963E-11   -1.511E-10   -2.512E-10   -3.499E-10   -4.472E-10   -5.430E-10
    -6.373E-10   -7.299E-10   -8.209E-10   -9.101E-10   -9.976E-10   -1.083E-09   -1.167E-09   -1.249E-09   -1.329E-09   -1.407E-09
    -1.483E-09   -1.556E-09   -1.628E-09   -1.697E-09   -1.764E-09   -1.829E-09   -1.891E-09   -1.951E-09   -2.009E-09   -2.064E-09
    -2.116E-09   -2.166E-09   -2.213E-09   -2.258E-09   -2.300E-09   -2.339E-09   -2.376E-09   -2.409E-09   -2.440E-09   -2.468E-09
    -2.494E-09   -2.517E-09   -2.538E-09   -2.557E-09   -2.573E-09   -2.588E-09   -2.600E-09   -2.610E-09   -2.619E-09   -2.626E-09
    -2.631E-09   -2.635E-09   -2.638E-09   -2.639E-09   -2.639E-09   -2.637E-09   -2.635E-09   -2.631E-09   -2.627E-09   -2.622E-09
    -2.616E-09   -2.610E-09   -2.603E-09   -2.595E-09   -2.587E-09   -2.579E-09   -2.571E-09   -2.562E-09   -2.553E-09   -2.545E-09
    -2.536E-09   -2.528E-09   -2.520E-09   -2.512E-09   -2.505E-09   -2.498E-09   -2.492E-09   -2.486E-09   -2.481E-09   -2.476E-09
    -2.473E-09   -2.470E-09   -2.469E-09   -2.468E-09   -2.468E-09   -2.469E-09   -2.471E-09   -2.474E-09   -2.477E-09   -2.482E-09
    -2.487E-09   -2.493E-09   -2.500E-09   -2.507E-09   -2.515E-09   -2.524E-09   -2.534E-09   -2.544E-09   -2.554E-09   -2.566E-09
    -2.577E-09   -2.590E-09   -2.602E-09   -2.616E-09   -2.629E-09   -2.643E-09   -2.658E-09   -2.673E-09   -2.688E-09   -2.703E-09
    -2.719E-09   -2.735E-09   -2.752E-09   -2.768E-09   -2.785E-09   -2.802E-09   -2.819E-09   -2.836E-09   -2.854E-09   -2.871E-09
    -2.889E-09   -2.906E-09   -2.924E-09   -2.942E-09   -2.959E-09   -2.977E-09   -2.994E-09   -3.012E-09   -3.029E-09   -3.046E-09
    -3.063E-09   -3.080E-09   -3.096E-09   -3.113E-09   -3.129E-09   -3.144E-09   -3.160E-09   -3.175E-09   -3.189E-09   -3.204E-09
    -3.218E-09   -3.231E-09   -3.244E-09   -3.257E-09   -3.269E-09   -3.280E-09   -3.291E-09   -3.302E-09   -3.311E-09   -3.321E-09
    -3.329E-09   -3.337E-09   -3.344E-09   -3.351E-09   -3.357E-09   -3.362E-09   -3.367E-09   -3.370E-09   -3.373E-09   -3.375E-09
    -3.377E-09   -3.377E-09   -3.377E-09   -3.376E-09   -3.374E-09   -3.371E-09   -3.368E-09   -3.363E-09   -3.358E-09   -3.352E-09
    -3.344E-09   -3.336E-09   -3.327E-09
 Gln      Conc. = 2.20E-09
   5.81581E-10  9.51547E-10  1.40217E-09  1.91552E-09  2.42556E-09  2.90939E-09  3.33805E-09  3.64863E-09  3.83661E-09  4.11845E-09
   4.16964E-09  3.85574E-09  3.76421E-09  3.45284E-09  3.19191E-09  3.02097E-09  2.90327E-09  2.81884E-09  2.75689E-09  2.71100E-09
   2.67701E-09  2.65205E-09  2.63403E-09  2.62141E-09  2.61344E-09  2.60975E-09  2.60896E-09  2.61067E-09  2.61487E-09  2.62074E-09
   2.62793E-09  2.63618E-09  2.64522E-09  2.65487E-09  2.66491E-09  2.67516E-09  2.68542E-09  2.69552E-09  2.70522E-09  2.71433E-09
   2.72274E-09  2.73022E-09  2.73674E-09  2.74215E-09  2.74607E-09  2.74830E-09  2.74868E-09  2.74610E-09  2.74119E-09  2.73567E-09
   2.72809E-09  2.72013E-09  2.71903E-09  2.74576E-09  2.89678E-09  3.32539E-09  3.77565E-09  4.21952E-09  4.91930E-09  5.73007E-09
   6.40649E-09  7.03538E-09  7.60846E-09  8.06944E-09  8.29694E-09  8.16362E-09  7.88052E-09  7.80802E-09  7.30934E-09  6.52040E-09
   6.08600E-09  5.91747E-09  5.79604E-09  5.84769E-09  6.06321E-09  6.54012E-09  7.06104E-09  7.58256E-09  8.10387E-09  8.57516E-09
   9.01417E-09  9.36184E-09  9.34564E-09  9.26911E-09  9.28350E-09  8.92575E-09  8.44611E-09  8.22149E-09  7.86431E-09  7.52118E-09
   7.28545E-09  7.11509E-09  6.98889E-09  6.89329E-09  6.81691E-09  6.75573E-09  6.70707E-09  6.66776E-09  6.63617E-09  6.61123E-09
   6.59136E-09  6.57517E-09  6.56203E-09  6.55138E-09  6.54289E-09  6.53619E-09  6.53069E-09  6.52606E-09  6.52199E-09  6.51824E-09
   6.51455E-09  6.51072E-09  6.50655E-09  6.50184E-09  6.49642E-09  6.49015E-09  6.48289E-09  6.47446E-09  6.46475E-09  6.45362E-09
   6.44096E-09  6.42665E-09  6.41057E-09  6.39260E-09  6.37267E-09  6.35064E-09  6.32642E-09  6.29993E-09  6.27106E-09  6.23970E-09
   6.20578E-09  6.16921E-09  6.12990E-09  6.08775E-09  6.04269E-09  5.99464E-09  5.94350E-09  5.88925E-09  5.83193E-09  5.77163E-09
   5.70838E-09  5.64228E-09  5.57339E-09  5.50177E-09  5.42752E-09  5.35072E-09  5.27144E-09  5.18977E-09  5.10580E-09  5.01964E-09
   4.93139E-09  4.84114E-09  4.74905E-09  4.65522E-09  4.55983E-09  4.46306E-09  4.36514E-09  4.26635E-09  4.16706E-09  4.06778E-09
   3.96934E-09  3.87291E-09  3.78063E-09  3.69658E-09  3.62971E-09  3.60457E-09  3.71721E-09  4.47780E-09  5.47641E-09  6.17731E-09
   6.45613E-09  6.43639E-09  6.32147E-09  6.25242E-09  6.25626E-09  6.24899E-09  5.93345E-09  4.85409E-09  3.07864E-09  2.22729E-09
   1.89646E-09  1.68544E-09  1.51743E-09  1.36954E-09  1.23278E-09  1.10295E-09  9.77877E-10  8.56298E-10  7.37508E-10  6.21029E-10
   5.06597E-10  3.94001E-10  2.83165E-10  1.73986E-10  6.64422E-11 -3.94879E-11 -1.43792E-10 -2.46469E-10 -3.47490E-10 -4.46839E-10
  -5.44472E-10 -6.40357E-10 -7.34459E-10 -8.26728E-10 -9.17130E-10 -1.00563E-09 -1.09217E-09 -1.17672E-09 -1.25922E-09 -1.33963E-09
  -1.41790E-09 -1.49399E-09 -1.56787E-09 -1.63949E-09 -1.70878E-09 -1.77571E-09 -1.84025E-09 -1.90236E-09 -1.96197E-09 -2.01905E-09
  -2.07358E-09 -2.12549E-09 -2.17475E-09 -2.22134E-09 -2.26521E-09 -2.30629E-09 -2.34461E-09 -2.38010E-09 -2.41281E-09 -2.44285E-09
  -2.47031E-09 -2.49529E-09 -2.51789E-09 -2.53819E-09 -2.55630E-09 -2.57231E-09 -2.58631E-09 -2.59840E-09 -2.60867E-09 -2.61721E-09
  -2.62412E-09 -2.62950E-09 -2.63342E-09 -2.63598E-09 -2.63728E-09 -2.63740E-09 -2.63643E-09 -2.63447E-09 -2.63159E-09 -2.62789E-09
  -2.62345E-09 -2.61836E-09 -2.61271E-09 -2.60658E-09 -2.60005E-09 -2.59320E-09 -2.58612E-09 -2.57889E-09 -2.57159E-09 -2.56429E-09
  -2.55707E-09 -2.55001E-09 -2.54319E-09 -2.53668E-09 -2.53055E-09 -2.52487E-09 -2.51972E-09 -2.51517E-09 -2.51128E-09 -2.50812E-09
  -2.50576E-09 -2.50425E-09 -2.50368E-09 -2.50404E-09 -2.50532E-09 -2.50750E-09 -2.51055E-09 -2.51445E-09 -2.51917E-09 -2.52470E-09
  -2.53100E-09 -2.53805E-09 -2.54583E-09 -2.55431E-09 -2.56348E-09 -2.57329E-09 -2.58374E-09 -2.59480E-09 -2.60643E-09 -2.61863E-09
  -2.63136E-09 -2.64460E-09 -2.65833E-09 -2.67252E-09 -2.68714E-09 -2.70218E-09 -2.71760E-09 -2.73340E-09 -2.74953E-09 -2.76598E-09
  -2.78272E-09 -2.79974E-09 -2.81700E-09 -2.83448E-09 -2.85216E-09 -2.87002E-09 -2.88802E-09 -2.90616E-09 -2.92440E-09 -2.94273E-09
  -2.96111E-09 -2.97953E-09 -2.99796E-09 -3.01640E-09 -3.03479E-09 -3.05313E-09 -3.07140E-09 -3.08956E-09 -3.10760E-09 -3.12550E-09
  -3.14323E-09 -3.16076E-09 -3.17806E-09 -3.19512E-09 -3.21189E-09 -3.22837E-09 -3.24453E-09 -3.26033E-09 -3.27577E-09 -3.29081E-09
  -3.30543E-09 -3.31961E-09 -3.33333E-09 -3.34656E-09 -3.35929E-09 -3.37149E-09 -3.38314E-09 -3.39422E-09 -3.40471E-09 -3.41460E-09
  -3.42386E-09 -3.43247E-09 -3.44042E-09 -3.44768E-09 -3.45425E-09 -3.46010E-09 -3.46521E-09 -3.46958E-09 -3.47318E-09 -3.47599E-09
  -3.47801E-09 -3.47922E-09 -3.47961E-09 -3.47916E-09 -3.47785E-09 -3.47568E-09 -3.47264E-09 -3.46871E-09 -3.46388E-09 -3.45814E-09
  -3.45148E-09 -3.44389E-09 -3.43535E-09
 GSH      Conc. = 4.89E-10
   1.11380E-09  1.65665E-09  2.11274E-09  2.46563E-09  2.77116E-09  3.09013E-09  3.45561E-09  3.87633E-09  4.26261E-09  4.19041E-09
   3.55299E-09  3.26576E-09  3.05668E-09  2.90537E-09  2.80587E-09  2.73784E-09  2.69021E-09  2.65664E-09  2.63311E-09  2.61694E-09
   2.60628E-09  2.59970E-09  2.59611E-09  2.59460E-09  2.59435E-09  2.59460E-09  2.59469E-09  2.59399E-09  2.59250E-09  2.59243E-09
   2.58966E-09  2.58609E-09  2.57738E-09  2.57426E-09  2.70545E-09  2.89375E-09  3.10789E-09  3.38493E-09  3.66600E-09  3.91159E-09
   4.12043E-09  4.31197E-09  4.50426E-09  4.67779E-09  4.72283E-09  4.59330E-09  4.55820E-09  4.40742E-09  4.19795E-09  4.09841E-09
   4.07865E-09  4.13926E-09  4.21237E-09  4.29510E-09  4.45774E-09  4.62587E-09  4.76701E-09  4.90316E-09  5.02778E-09  5.13428E-09
   5.19905E-09  5.19271E-09  5.17612E-09  5.18261E-09  5.06735E-09  4.91017E-09  4.88632E-09  4.86673E-09  4.81583E-09  4.80236E-09
   4.86635E-09  4.93183E-09  5.01379E-09  5.15413E-09  5.29683E-09  5.43890E-09  5.57853E-09  5.70135E-09  5.81740E-09  5.93627E-09
   5.96699E-09  5.95484E-09  6.01419E-09  5.96195E-09  5.87524E-09  5.86029E-09  5.80497E-09  5.75547E-09  5.73040E-09  5.71965E-09
   5.71820E-09  5.72323E-09  5.73270E-09  5.74555E-09  5.76090E-09  5.77814E-09  5.79665E-09  5.81605E-09  5.83606E-09  5.85650E-09
   5.87720E-09  5.89786E-09  5.91828E-09  5.93831E-09  5.95783E-09  5.97676E-09  5.99496E-09  6.01229E-09  6.02865E-09  6.04394E-09
   6.05806E-09  6.07091E-09  6.08241E-09  6.09245E-09  6.10094E-09  6.10782E-09  6.11299E-09  6.11635E-09  6.11783E-09  6.11734E-09
   6.11481E-09  6.11015E-09  6.10328E-09  6.09411E-09  6.08259E-09  6.06862E-09  6.05212E-09  6.03302E-09  6.01125E-09  5.98670E-09
   5.95933E-09  5.92905E-09  5.89580E-09  5.85948E-09  5.82002E-09  5.77737E-09  5.73142E-09  5.68217E-09  5.62967E-09  5.57399E-09
   5.51520E-09  5.45338E-09  5.38859E-09  5.32091E-09  5.25042E-09  5.17720E-09  5.10132E-09  5.02287E-09  4.94193E-09  4.85858E-09
   4.77292E-09  4.68501E-09  4.59497E-09  4.50288E-09  4.40883E-09  4.31295E-09  4.21533E-09  4.11612E-09  4.01545E-09  3.91351E-09
   3.81056E-09  3.70692E-09  3.60318E-09  3.50041E-09  3.40105E-09  3.31226E-09  3.26634E-09  3.38733E-09  3.52755E-09  3.58069E-09
   3.53801E-09  3.43563E-09  3.32112E-09  3.22193E-09  3.13869E-09  3.04526E-09  2.86184E-09  2.48586E-09  1.98324E-09  1.75489E-09
   1.60125E-09  1.46777E-09  1.34251E-09  1.22161E-09  1.10346E-09  9.87289E-10  8.72741E-10  7.59581E-10  6.47729E-10  5.37112E-10
   4.27737E-10  3.19581E-10  2.12700E-10  1.07091E-10  2.80295E-12 -1.00128E-10 -2.01649E-10 -3.01724E-10 -4.00298E-10 -4.97332E-10
  -5.92767E-10 -6.86556E-10 -7.78652E-10 -8.68995E-10 -9.57541E-10 -1.04425E-09 -1.12906E-09 -1.21193E-09 -1.29280E-09 -1.37162E-09
  -1.44835E-09 -1.52294E-09 -1.59534E-09 -1.66553E-09 -1.73341E-09 -1.79897E-09 -1.86216E-09 -1.92294E-09 -1.98126E-09 -2.03707E-09
  -2.09035E-09 -2.14103E-09 -2.18908E-09 -2.23449E-09 -2.27719E-09 -2.31712E-09 -2.35430E-09 -2.38867E-09 -2.42028E-09 -2.44924E-09
  -2.47563E-09 -2.49956E-09 -2.52111E-09 -2.54039E-09 -2.55749E-09 -2.57250E-09 -2.58551E-09 -2.59662E-09 -2.60593E-09 -2.61352E-09
