 LCModel (Version 6.3-1R) Copyright: S.W. Provencher.          Ref.: Magn. Reson. Med. 30:672-679 (1993).                
 onepulse 24x8_ftSpec_smooth_lcm
 26 lines in following concentration table = NCONC+1
    Conc.  %SD   /Cr    Metabolite                                         
    0.000 999%   0.000 Ala                                                 
 6.33E-10 100%   0.000 Asp                                                 
    0.000 999%   0.000 Cr                                                  
 4.15E-10 138%   0.000 GABA                                                
    0.000 999%   0.000 Glc                                                 
 1.82E-09  33%   0.000 Gln                                                 
    0.000 999%   0.000 Glu                                                 
    0.000 999%   0.000 Glyc                                                
    0.000 999%   0.000 GPC                                                 
 1.72E-09  27%   0.000 GSH                                                 
 2.65E-09  12%   0.000 Ins                                                 
    0.000 999%   0.000 Lac                                                 
 4.35E-10  67%   0.000 NAAG                                                
 1.65E-10 263%   0.000 NAA                                                 
    0.000 999%   0.000 PCh                                                 
    0.000 999%   0.000 PCr                                                 
 3.36E-09  19%   0.000 PE                                                  
 3.28E-10  49%   0.000 Scyllo                                              
 2.31E-10 350%   0.000 Ser                                                 
    0.000 999%   0.000 Tau                                                 
    0.000 999%   0.000 GPC+PCh                                             
 6.00E-10  49%   0.000 NAA+NAAG                                            
 2.65E-09  12%   0.000 Ins+Glyc                                            
    0.000 999%   0.000 Cr+PCr                                              
 1.82E-09  33%   0.000 Glu+Gln                                             
   6 lines in following misc. output table
  FWHM = 0.123 ppm    S/N =   4                                            
  Data shift = 0.425 ppm                                                   
  Ph:  -2 deg     -44.5 deg/ppm                                            
  alphaB,S = 4.4E-01,   5.8E+00                                            
   10 spline knots.   Ns = 5(1)                                            
  (10) 6 infls.   (11) 5 extrs.                                            
  363 points on ppm-axis = NY
      4.250000     4.238821     4.227641     4.216462     4.205282     4.194103     4.182923     4.171744     4.160564     4.149385
      4.138206     4.127026     4.115847     4.104667     4.093488     4.082308     4.071129     4.059949     4.048770     4.037591
      4.026411     4.015232     4.004052     3.992873     3.981693     3.970514     3.959334     3.948155     3.936975     3.925796
      3.914617     3.903437     3.892258     3.881078     3.869899     3.858719     3.847540     3.836360     3.825181     3.814002
      3.802822     3.791643     3.780463     3.769284     3.758104     3.746925     3.735745     3.724566     3.713387     3.702207
      3.691028     3.679848     3.668669     3.657489     3.646310     3.635130     3.623951     3.612772     3.601592     3.590413
      3.579233     3.568054     3.556874     3.545695     3.534515     3.523336     3.512156     3.500977     3.489798     3.478618
      3.467439     3.456259     3.445080     3.433900     3.422721     3.411541     3.400362     3.389183     3.378003     3.366824
      3.355644     3.344465     3.333285     3.322106     3.310926     3.299747     3.288568     3.277388     3.266209     3.255029
      3.243850     3.232670     3.221491     3.210311     3.199132     3.187953     3.176773     3.165594     3.154414     3.143235
      3.132055     3.120876     3.109696     3.098517     3.087337     3.076158     3.064979     3.053799     3.042620     3.031440
      3.020261     3.009081     2.997902     2.986722     2.975543     2.964364     2.953184     2.942005     2.930825     2.919646
      2.908466     2.897287     2.886107     2.874928     2.863749     2.852569     2.841390     2.830210     2.819031     2.807851
      2.796672     2.785492     2.774313     2.763134     2.751954     2.740775     2.729595     2.718416     2.707236     2.696057
      2.684877     2.673698     2.662519     2.651339     2.640160     2.628980     2.617801     2.606621     2.595442     2.584262
      2.573083     2.561903     2.550724     2.539545     2.528365     2.517186     2.506006     2.494827     2.483647     2.472468
      2.461288     2.450109     2.438930     2.427750     2.416571     2.405391     2.394212     2.383032     2.371853     2.360673
      2.349494     2.338315     2.327135     2.315956     2.304776     2.293597     2.282417     2.271238     2.260058     2.248879
      2.237700     2.226520     2.215341     2.204161     2.192982     2.181802     2.170623     2.159443     2.148264     2.137084
      2.125905     2.114726     2.103546     2.092367     2.081187     2.070008     2.058828     2.047649     2.036469     2.025290
      2.014111     2.002931     1.991752     1.980572     1.969393     1.958213     1.947034     1.935854     1.924675     1.913496
      1.902316     1.891137     1.879957     1.868778     1.857598     1.846419     1.835239     1.824060     1.812881     1.801701
      1.790522     1.779342     1.768163     1.756983     1.745804     1.734624     1.723445     1.712265     1.701086     1.689907
      1.678727     1.667548     1.656368     1.645189     1.634009     1.622830     1.611650     1.600471     1.589292     1.578112
      1.566933     1.555753     1.544574     1.533394     1.522215     1.511035     1.499856     1.488677     1.477497     1.466318
      1.455138     1.443959     1.432779     1.421600     1.410420     1.399241     1.388062     1.376882     1.365703     1.354523
      1.343344     1.332164     1.320985     1.309805     1.298626     1.287446     1.276267     1.265088     1.253908     1.242729
      1.231549     1.220370     1.209190     1.198011     1.186831     1.175652     1.164473     1.153293     1.142114     1.130934
      1.119755     1.108575     1.097396     1.086216     1.075037     1.063858     1.052678     1.041499     1.030319     1.019140
      1.007960     0.996781     0.985601     0.974422     0.963243     0.952063     0.940884     0.929704     0.918525     0.907345
      0.896166     0.884986     0.873807     0.862628     0.851448     0.840269     0.829089     0.817910     0.806730     0.795551
      0.784371     0.773192     0.762012     0.750833     0.739654     0.728474     0.717295     0.706115     0.694936     0.683756
      0.672577     0.661397     0.650218     0.639039     0.627859     0.616680     0.605500     0.594321     0.583141     0.571962
      0.560782     0.549603     0.538424     0.527244     0.516065     0.504885     0.493706     0.482526     0.471347     0.460167
      0.448988     0.437809     0.426629     0.415450     0.404270     0.393091     0.381911     0.370732     0.359552     0.348373
      0.337193     0.326014     0.314835     0.303655     0.292476     0.281296     0.270117     0.258937     0.247758     0.236578
      0.225399     0.214220     0.203040
 NY phased data points follow
   1.14200E-08  1.07507E-08  1.14155E-08  1.17418E-08  1.18526E-08  1.24306E-08  1.31272E-08  1.29812E-08  1.33057E-08  1.27699E-08
   1.24583E-08  1.21499E-08  1.28699E-08  1.20133E-08  1.16608E-08  1.15502E-08  1.13231E-08  1.19505E-08  1.22313E-08  1.25313E-08
   1.19043E-08  1.18684E-08  1.11811E-08  1.18501E-08  1.24522E-08  1.44805E-08  1.47040E-08  1.43249E-08  1.36860E-08  1.24920E-08
   1.19224E-08  1.13397E-08  1.07903E-08  1.06289E-08  1.03115E-08  9.79620E-09  1.04173E-08  9.77430E-09  9.36774E-09  9.01232E-09
   8.08730E-09  8.33236E-09  8.32627E-09  8.51694E-09  8.42212E-09  8.25165E-09  7.15412E-09  8.33420E-09  7.26386E-09  7.06663E-09
   5.78812E-09  7.55404E-09  6.89555E-09  7.96078E-09  7.33425E-09  9.29667E-09  1.11496E-08  1.36650E-08  1.28114E-08  1.34923E-08
   1.19187E-08  1.11358E-08  9.98643E-09  1.01294E-08  9.48619E-09  9.22405E-09  7.80934E-09  7.44555E-09  6.65795E-09  7.06706E-09
   5.32470E-09  7.18110E-09  9.01153E-09  1.37191E-08  1.52019E-08  1.63714E-08  1.51800E-08  1.53516E-08  1.43469E-08  1.41657E-08
   1.34900E-08  1.37562E-08  1.28814E-08  1.36824E-08  1.21051E-08  1.29751E-08  1.13956E-08  1.29846E-08  1.03037E-08  1.17674E-08
   9.98228E-09  1.03150E-08  8.95456E-09  9.37302E-09  8.73798E-09  9.53818E-09  8.65796E-09  9.46309E-09  7.94809E-09  9.16426E-09
   8.24094E-09  8.92459E-09  7.90238E-09  7.78614E-09  6.18497E-09  6.75272E-09  5.99166E-09  7.25103E-09  6.23277E-09  6.67528E-09
   6.85772E-09  7.65909E-09  6.41645E-09  7.43874E-09  7.03294E-09  7.91242E-09  6.56969E-09  7.67973E-09  5.70212E-09  6.08112E-09
   4.68691E-09  5.87697E-09  4.73751E-09  6.08728E-09  5.17574E-09  6.05387E-09  4.59750E-09  6.50073E-09  5.46484E-09  6.12717E-09
   4.41730E-09  5.72905E-09  4.76609E-09  6.04800E-09  6.90240E-09  8.15294E-09  7.08849E-09  7.58442E-09  7.30051E-09  9.13177E-09
   8.39841E-09  9.14020E-09  8.64004E-09  9.99409E-09  8.37277E-09  9.74221E-09  9.13559E-09  9.40260E-09  8.58509E-09  9.38215E-09
   8.68776E-09  9.39712E-09  8.00052E-09  9.02066E-09  8.04304E-09  9.26431E-09  8.58437E-09  8.55132E-09  7.66528E-09  7.84508E-09
   8.11695E-09  7.09387E-09  4.97400E-09  4.91664E-09  8.25545E-09  1.44086E-08  1.70616E-08  1.95127E-08  1.98670E-08  2.01502E-08
   2.05128E-08  2.07871E-08  2.05019E-08  2.08412E-08  1.95380E-08  2.03048E-08  1.86484E-08  1.88967E-08  1.77409E-08  1.65158E-08
   1.45832E-08  1.31248E-08  1.10879E-08  8.92432E-09  6.69491E-09  4.40248E-09  1.53466E-09 -2.25788E-10 -2.52435E-09 -3.48498E-09
  -5.30836E-09 -6.43286E-09 -8.09156E-09 -7.81746E-09 -8.98012E-09 -8.18410E-09 -8.01223E-09 -7.38633E-09 -6.77607E-09 -5.92260E-09
  -5.47589E-09 -4.16586E-09 -3.84630E-09 -2.82571E-09 -2.54656E-09 -2.05390E-09 -2.27202E-09 -1.66959E-09 -1.87636E-09 -1.57023E-09
  -1.89892E-09 -1.90392E-09 -2.04237E-09 -1.54522E-09 -1.65708E-09 -1.49118E-09 -1.19156E-09 -1.43020E-09 -1.40947E-09 -6.14667E-10
  -1.34521E-09 -1.06486E-09 -1.96645E-09 -1.31709E-09 -1.12482E-09 -9.42002E-10 -1.42650E-09 -1.22198E-09 -9.10847E-10 -1.06031E-09
  -1.15316E-09 -6.67186E-10 -9.93049E-10 -1.17927E-09 -1.71589E-09 -1.15492E-09 -1.50695E-09 -9.51290E-10 -1.54033E-09 -1.18130E-09
  -1.32841E-09 -1.24244E-09 -1.49692E-09 -1.18188E-09 -1.35831E-09 -1.02840E-09 -1.22715E-09 -1.07151E-09 -8.29616E-10 -7.22438E-10
  -8.18643E-10 -1.37701E-09 -5.56901E-10 -3.54753E-10 -7.65331E-10 -1.01146E-09 -8.08021E-10 -1.24373E-09 -1.00234E-09 -1.39544E-09
  -1.61940E-09 -2.02278E-09 -2.03859E-09 -2.52702E-09 -2.33617E-09 -2.39175E-09 -2.03609E-09 -2.16822E-09 -2.10464E-09 -2.10958E-09
  -1.21173E-09 -6.09499E-10 -3.37293E-10 -7.03465E-10 -1.95449E-10 -5.34118E-10 -3.09742E-10 -1.27588E-10  8.67370E-11 -2.53998E-10
  -3.85663E-10 -3.04151E-10 -8.71092E-12 -4.82779E-10  2.55022E-10 -4.57250E-10  2.52495E-10 -7.14260E-10 -6.58202E-10 -3.70020E-10
  -2.44431E-10 -5.69113E-10 -3.11767E-11 -5.60458E-10 -7.09154E-10 -7.14951E-10 -5.50951E-10 -7.86833E-10 -5.21098E-10 -1.08753E-09
  -4.50813E-10 -1.04908E-09 -4.08973E-10 -8.31906E-10 -7.89808E-10 -1.20931E-09 -8.77405E-10 -9.26591E-10 -8.92327E-10 -1.02187E-09
  -5.35361E-10 -9.22884E-10 -1.05228E-09 -8.28995E-10 -1.12359E-09 -1.33931E-09 -7.85549E-10 -1.31753E-09 -6.82519E-10 -1.03978E-09
  -1.07894E-09 -1.77400E-09 -1.21131E-09 -1.19045E-09 -9.55812E-10 -1.21723E-09 -8.16567E-10 -1.70406E-09 -9.56657E-10 -1.68756E-09
  -6.38518E-10 -9.75762E-10 -1.28583E-09 -1.83449E-09 -1.39651E-09 -1.40041E-09 -9.57670E-10 -1.80075E-09 -1.29409E-09 -1.12719E-09
  -1.10177E-09 -1.60969E-09 -1.38067E-09 -1.01199E-09 -1.39362E-09 -1.68732E-09 -1.67134E-09 -1.51908E-09 -1.29170E-09 -1.95112E-09
  -1.38918E-09 -2.00586E-09 -1.70342E-09 -2.01088E-09 -1.13628E-09 -2.07756E-09 -1.95526E-09 -2.14803E-09 -1.37237E-09 -1.93559E-09
  -1.69959E-09 -1.94304E-09 -1.57051E-09
 NY points of the fit to the data follow
   1.20822E-08  1.17216E-08  1.23468E-08  1.08399E-08  1.06933E-08  1.21250E-08  1.26320E-08  1.18114E-08  1.47043E-08  1.47153E-08
   1.31200E-08  1.21353E-08  1.21353E-08  1.14729E-08  1.16605E-08  1.22444E-08  1.15377E-08  1.14303E-08  1.30002E-08  1.35011E-08
   1.16775E-08  1.07306E-08  1.16939E-08  1.27425E-08  1.23734E-08  1.35822E-08  1.39317E-08  1.44775E-08  1.39350E-08  1.26423E-08
   1.23295E-08  1.21312E-08  1.17695E-08  1.12905E-08  1.01445E-08  1.01373E-08  9.92479E-09  9.24959E-09  8.82543E-09  8.77002E-09
   8.53087E-09  8.48785E-09  8.79045E-09  8.82175E-09  8.50465E-09  7.52711E-09  7.76476E-09  6.65805E-09  6.52891E-09  6.62044E-09
   7.25021E-09  7.53828E-09  7.79207E-09  9.02865E-09  9.77613E-09  9.78845E-09  1.00383E-08  1.11048E-08  1.16494E-08  1.12166E-08
   1.14977E-08  1.12468E-08  1.08075E-08  1.10446E-08  1.05417E-08  9.80576E-09  9.50258E-09  9.57476E-09  9.05975E-09  9.03962E-09
   9.30033E-09  9.88591E-09  1.08719E-08  1.06466E-08  1.17336E-08  1.33842E-08  1.41541E-08  1.47202E-08  1.48827E-08  1.52529E-08
   1.47748E-08  1.45436E-08  1.44759E-08  1.32695E-08  1.30195E-08  1.27651E-08  1.18064E-08  1.05277E-08  9.25437E-09  8.72353E-09
   8.37414E-09  8.09936E-09  8.04064E-09  8.03107E-09  7.73997E-09  7.68970E-09  7.71532E-09  7.53652E-09  7.49479E-09  7.45526E-09
   7.38685E-09  7.36729E-09  7.35507E-09  7.33932E-09  7.33224E-09  7.33202E-09  7.33518E-09  7.34158E-09  7.34894E-09  7.35713E-09
   7.36584E-09  7.37449E-09  7.38284E-09  7.39063E-09  7.39756E-09  7.40357E-09  7.40849E-09  7.41210E-09  7.41430E-09  7.41498E-09
   7.41399E-09  7.41128E-09  7.40676E-09  7.40034E-09  7.39194E-09  7.38149E-09  7.36894E-09  7.35420E-09  7.33723E-09  7.31798E-09
   7.29638E-09  7.27239E-09  7.24597E-09  7.21707E-09  7.18566E-09  7.15168E-09  7.11512E-09  7.07593E-09  7.03410E-09  6.98960E-09
   6.94240E-09  6.89251E-09  6.83992E-09  6.78463E-09  6.72666E-09  6.66601E-09  6.60276E-09  6.53694E-09  6.46866E-09  6.39804E-09
   6.32523E-09  6.25048E-09  6.17408E-09  6.09647E-09  6.01822E-09  5.94016E-09  5.86352E-09  5.79016E-09  5.72298E-09  5.66641E-09
   5.62776E-09  5.62000E-09  5.66857E-09  5.83034E-09  6.26072E-09  7.54377E-09  1.29099E-08  2.04751E-08  2.11107E-08  2.01739E-08
   2.08201E-08  2.11876E-08  2.10502E-08  2.05983E-08  2.00133E-08  1.95317E-08  2.07067E-08  1.96467E-08  1.12310E-08  5.79373E-09
   4.17467E-09  3.45194E-09  3.00870E-09  2.68537E-09  2.42397E-09  2.19878E-09  1.99664E-09  1.81028E-09  1.63539E-09  1.46926E-09
   1.31013E-09  1.15687E-09  1.00868E-09  8.65074E-10  7.25656E-10  5.90224E-10  4.58632E-10  3.30825E-10  2.06734E-10  8.64046E-11
  -3.01386E-11 -1.42842E-10 -2.51627E-10 -3.56410E-10 -4.57089E-10 -5.53565E-10 -6.45692E-10 -7.33405E-10 -8.16584E-10 -8.95350E-10
  -9.69801E-10 -1.04005E-09 -1.10621E-09 -1.16838E-09 -1.22665E-09 -1.28115E-09 -1.33196E-09 -1.37917E-09 -1.42291E-09 -1.46325E-09
  -1.50029E-09 -1.53414E-09 -1.56489E-09 -1.59262E-09 -1.61744E-09 -1.63944E-09 -1.65870E-09 -1.67533E-09 -1.68944E-09 -1.70109E-09
  -1.71037E-09 -1.71740E-09 -1.72225E-09 -1.72503E-09 -1.72581E-09 -1.72471E-09 -1.72181E-09 -1.71718E-09 -1.71094E-09 -1.70317E-09
  -1.69395E-09 -1.68339E-09 -1.67157E-09 -1.65859E-09 -1.64453E-09 -1.62949E-09 -1.61356E-09 -1.59684E-09 -1.57939E-09 -1.56131E-09
  -1.54271E-09 -1.52368E-09 -1.50429E-09 -1.48463E-09 -1.46484E-09 -1.44494E-09 -1.42506E-09 -1.40529E-09 -1.38571E-09 -1.36642E-09
  -1.34746E-09 -1.32884E-09 -1.31058E-09 -1.29267E-09 -1.27511E-09 -1.25793E-09 -1.24112E-09 -1.22469E-09 -1.20864E-09 -1.19298E-09
  -1.17772E-09 -1.16286E-09 -1.14841E-09 -1.13436E-09 -1.12073E-09 -1.10753E-09 -1.09476E-09 -1.08242E-09 -1.07052E-09 -1.05907E-09
  -1.04806E-09 -1.03752E-09 -1.02743E-09 -1.01781E-09 -1.00867E-09 -1.00001E-09 -9.91830E-10 -9.84139E-10 -9.76948E-10 -9.70260E-10
  -9.64075E-10 -9.58399E-10 -9.53239E-10 -9.48612E-10 -9.44505E-10 -9.40940E-10 -9.37909E-10 -9.35423E-10 -9.33485E-10 -9.32110E-10
  -9.31299E-10 -9.31040E-10 -9.31367E-10 -9.32264E-10 -9.33744E-10 -9.35821E-10 -9.38490E-10 -9.41750E-10 -9.45629E-10 -9.50106E-10
  -9.55207E-10 -9.60938E-10 -9.67270E-10 -9.74199E-10 -9.81710E-10 -9.89788E-10 -9.98417E-10 -1.00758E-09 -1.01727E-09 -1.02746E-09
  -1.03815E-09 -1.04931E-09 -1.06092E-09 -1.07299E-09 -1.08549E-09 -1.09840E-09 -1.11171E-09 -1.12540E-09 -1.13946E-09 -1.15388E-09
  -1.16864E-09 -1.18372E-09 -1.19911E-09 -1.21479E-09 -1.23075E-09 -1.24698E-09 -1.26345E-09 -1.28016E-09 -1.29708E-09 -1.31420E-09
  -1.33152E-09 -1.34900E-09 -1.36664E-09 -1.38443E-09 -1.40233E-09 -1.42035E-09 -1.43847E-09 -1.45667E-09 -1.47494E-09 -1.49325E-09
  -1.51160E-09 -1.52997E-09 -1.54835E-09 -1.56671E-09 -1.58505E-09 -1.60335E-09 -1.62160E-09 -1.63976E-09 -1.65785E-09 -1.67584E-09
  -1.69371E-09 -1.71145E-09 -1.72904E-09
 NY background values follow
    -3.996E-09   -3.883E-09   -3.769E-09   -3.656E-09   -3.542E-09   -3.428E-09   -3.315E-09   -3.201E-09   -3.087E-09   -2.973E-09
    -2.859E-09   -2.745E-09   -2.631E-09   -2.517E-09   -2.403E-09   -2.290E-09   -2.176E-09   -2.062E-09   -1.949E-09   -1.835E-09
    -1.722E-09   -1.609E-09   -1.496E-09   -1.383E-09   -1.271E-09   -1.158E-09   -1.046E-09   -9.343E-10   -8.226E-10   -7.112E-10
    -6.000E-10   -4.891E-10   -3.785E-10   -2.682E-10   -1.583E-10   -4.868E-11    6.057E-11    1.695E-10    2.780E-10    3.861E-10
     4.938E-10    6.011E-10    7.080E-10    8.143E-10    9.203E-10    1.026E-09    1.131E-09    1.235E-09    1.339E-09    1.443E-09
     1.545E-09    1.648E-09    1.749E-09    1.851E-09    1.951E-09    2.051E-09    2.150E-09    2.249E-09    2.347E-09    2.444E-09
     2.540E-09    2.636E-09    2.731E-09    2.825E-09    2.918E-09    3.010E-09    3.102E-09    3.192E-09    3.282E-09    3.370E-09
     3.458E-09    3.545E-09    3.631E-09    3.715E-09    3.799E-09    3.881E-09    3.963E-09    4.043E-09    4.122E-09    4.200E-09
     4.277E-09    4.353E-09    4.427E-09    4.500E-09    4.572E-09    4.642E-09    4.712E-09    4.779E-09    4.846E-09    4.911E-09
     4.975E-09    5.037E-09    5.098E-09    5.157E-09    5.215E-09    5.271E-09    5.326E-09    5.379E-09    5.430E-09    5.480E-09
     5.528E-09    5.575E-09    5.620E-09    5.663E-09    5.705E-09    5.745E-09    5.782E-09    5.819E-09    5.853E-09    5.885E-09
     5.916E-09    5.944E-09    5.970E-09    5.995E-09    6.017E-09    6.037E-09    6.055E-09    6.071E-09    6.084E-09    6.096E-09
     6.104E-09    6.111E-09    6.115E-09    6.117E-09    6.116E-09    6.113E-09    6.107E-09    6.098E-09    6.087E-09    6.074E-09
     6.057E-09    6.038E-09    6.016E-09    5.991E-09    5.964E-09    5.933E-09    5.900E-09    5.863E-09    5.824E-09    5.782E-09
     5.736E-09    5.688E-09    5.636E-09    5.581E-09    5.523E-09    5.461E-09    5.397E-09    5.329E-09    5.257E-09    5.182E-09
     5.104E-09    5.022E-09    4.937E-09    4.848E-09    4.755E-09    4.659E-09    4.559E-09    4.456E-09    4.349E-09    4.239E-09
     4.126E-09    4.010E-09    3.891E-09    3.770E-09    3.646E-09    3.520E-09    3.391E-09    3.261E-09    3.129E-09    2.995E-09
     2.859E-09    2.723E-09    2.585E-09    2.445E-09    2.305E-09    2.164E-09    2.023E-09    1.881E-09    1.739E-09    1.596E-09
     1.454E-09    1.312E-09    1.170E-09    1.028E-09    8.875E-10    7.475E-10    6.084E-10    4.703E-10    3.335E-10    1.981E-10
     6.425E-11   -6.789E-11   -1.982E-10   -3.265E-10   -4.526E-10   -5.764E-10   -6.977E-10   -8.164E-10   -9.323E-10   -1.045E-09
    -1.155E-09   -1.262E-09   -1.365E-09   -1.465E-09   -1.560E-09   -1.653E-09   -1.741E-09   -1.824E-09   -1.904E-09   -1.979E-09
    -2.051E-09   -2.118E-09   -2.181E-09   -2.241E-09   -2.296E-09   -2.349E-09   -2.397E-09   -2.442E-09   -2.484E-09   -2.522E-09
    -2.557E-09   -2.589E-09   -2.618E-09   -2.644E-09   -2.667E-09   -2.687E-09   -2.705E-09   -2.720E-09   -2.733E-09   -2.743E-09
    -2.751E-09   -2.756E-09   -2.760E-09   -2.761E-09   -2.761E-09   -2.758E-09   -2.754E-09   -2.748E-09   -2.741E-09   -2.732E-09
    -2.722E-09   -2.710E-09   -2.697E-09   -2.683E-09   -2.668E-09   -2.652E-09   -2.635E-09   -2.617E-09   -2.599E-09   -2.580E-09
    -2.560E-09   -2.540E-09   -2.520E-09   -2.499E-09   -2.479E-09   -2.458E-09   -2.437E-09   -2.417E-09   -2.396E-09   -2.376E-09
    -2.356E-09   -2.337E-09   -2.318E-09   -2.299E-09   -2.281E-09   -2.263E-09   -2.245E-09   -2.228E-09   -2.211E-09   -2.195E-09
    -2.179E-09   -2.163E-09   -2.148E-09   -2.133E-09   -2.119E-09   -2.105E-09   -2.092E-09   -2.079E-09   -2.066E-09   -2.054E-09
    -2.042E-09   -2.031E-09   -2.020E-09   -2.010E-09   -2.000E-09   -1.991E-09   -1.982E-09   -1.974E-09   -1.966E-09   -1.959E-09
    -1.952E-09   -1.946E-09   -1.940E-09   -1.934E-09   -1.930E-09   -1.926E-09   -1.922E-09   -1.919E-09   -1.916E-09   -1.914E-09
    -1.913E-09   -1.912E-09   -1.912E-09   -1.912E-09   -1.913E-09   -1.915E-09   -1.917E-09   -1.919E-09   -1.923E-09   -1.927E-09
    -1.931E-09   -1.936E-09   -1.942E-09   -1.949E-09   -1.955E-09   -1.963E-09   -1.971E-09   -1.980E-09   -1.989E-09   -1.998E-09
    -2.009E-09   -2.019E-09   -2.030E-09   -2.042E-09   -2.054E-09   -2.066E-09   -2.079E-09   -2.092E-09   -2.106E-09   -2.120E-09
    -2.134E-09   -2.148E-09   -2.163E-09   -2.178E-09   -2.194E-09   -2.209E-09   -2.225E-09   -2.242E-09   -2.258E-09   -2.275E-09
    -2.291E-09   -2.308E-09   -2.325E-09   -2.343E-09   -2.360E-09   -2.378E-09   -2.395E-09   -2.413E-09   -2.431E-09   -2.448E-09
    -2.466E-09   -2.484E-09   -2.502E-09   -2.520E-09   -2.537E-09   -2.555E-09   -2.573E-09   -2.591E-09   -2.608E-09   -2.626E-09
    -2.643E-09   -2.660E-09   -2.677E-09
 Asp      Conc. = 6.33E-10
  -3.29007E-09 -3.32092E-09 -3.22393E-09 -3.24821E-09 -3.14411E-09 -3.10059E-09 -3.04378E-09 -3.03526E-09 -2.96675E-09 -2.87721E-09
  -2.77834E-09 -2.67460E-09 -2.56880E-09 -2.45893E-09 -2.34804E-09 -2.23680E-09 -2.12510E-09 -2.01297E-09 -1.90052E-09 -1.78780E-09
  -1.67486E-09 -1.56174E-09 -1.44843E-09 -1.33496E-09 -1.22133E-09 -1.10747E-09 -9.93362E-10 -8.78895E-10 -7.63965E-10 -6.48353E-10
  -5.31743E-10 -4.13702E-10 -2.93313E-10 -1.68983E-10 -3.71247E-11  1.12051E-10  3.02850E-10  4.09562E-10  5.87586E-10  6.61485E-10
   7.63974E-10  9.04498E-10  1.10968E-09  1.36696E-09  1.63313E-09  1.94535E-09  1.94405E-09  1.95570E-09  2.32491E-09  2.33728E-09
   2.41562E-09  2.60766E-09  2.73956E-09  2.78875E-09  2.81473E-09  2.89805E-09  2.65323E-09  2.70709E-09  2.94353E-09  2.86434E-09
   2.86927E-09  2.96666E-09  2.98283E-09  3.02303E-09  3.12729E-09  3.26940E-09  3.29619E-09  3.35036E-09  3.41738E-09  3.49030E-09
   3.56625E-09  3.64378E-09  3.72208E-09  3.80064E-09  3.87911E-09  3.95726E-09  4.03491E-09  4.11191E-09  4.18818E-09  4.26360E-09
   4.33811E-09  4.41163E-09  4.48414E-09  4.55555E-09  4.62583E-09  4.69494E-09  4.76284E-09  4.82950E-09  4.89489E-09  4.95895E-09
   5.02168E-09  5.08304E-09  5.14300E-09  5.20152E-09  5.25859E-09  5.31419E-09  5.36828E-09  5.42084E-09  5.47183E-09  5.52124E-09
   5.56903E-09  5.61520E-09  5.65972E-09  5.70254E-09  5.74368E-09  5.78306E-09  5.82068E-09  5.85647E-09  5.89041E-09  5.92246E-09
   5.95258E-09  5.98073E-09  6.00687E-09  6.03096E-09  6.05297E-09  6.07285E-09  6.09058E-09  6.10610E-09  6.11939E-09  6.13040E-09
   6.13909E-09  6.14544E-09  6.14939E-09  6.15092E-09  6.14998E-09  6.14654E-09  6.14056E-09  6.13200E-09  6.12082E-09  6.10699E-09
   6.09046E-09  6.07121E-09  6.04920E-09  6.02437E-09  5.99671E-09  5.96616E-09  5.93270E-09  5.89630E-09  5.85690E-09  5.81447E-09
   5.76898E-09  5.72039E-09  5.66867E-09  5.61379E-09  5.55569E-09  5.49436E-09  5.42975E-09  5.36184E-09  5.29059E-09  5.21597E-09
   5.13796E-09  5.05653E-09  4.97167E-09  4.88334E-09  4.79156E-09  4.69633E-09  4.59769E-09  4.49583E-09  4.39105E-09  4.28372E-09
   4.17436E-09  4.06376E-09  3.95333E-09  3.84598E-09  3.74917E-09  3.68845E-09  3.80103E-09  4.34143E-09  4.05248E-09  3.87693E-09
   3.82331E-09  3.70192E-09  3.56635E-09  3.40542E-09  3.24285E-09  3.07692E-09  2.98212E-09  2.99422E-09  2.10017E-09  1.76790E-09
   1.56637E-09  1.39745E-09  1.24078E-09  1.09013E-09  9.43044E-10  7.98539E-10  6.56081E-10  5.15444E-10  3.76604E-10  2.39546E-10
   1.04315E-10 -2.89724E-11 -1.60252E-10 -2.89346E-10 -4.16187E-10 -5.40609E-10 -6.62485E-10 -7.81651E-10 -8.98001E-10 -1.01135E-09
  -1.12157E-09 -1.22851E-09 -1.33201E-09 -1.43193E-09 -1.52812E-09 -1.62043E-09 -1.70867E-09 -1.79276E-09 -1.87254E-09 -1.94811E-09
  -2.01955E-09 -2.08696E-09 -2.15041E-09 -2.21002E-09 -2.26586E-09 -2.31803E-09 -2.36662E-09 -2.41171E-09 -2.45341E-09 -2.49179E-09
  -2.52695E-09 -2.55899E-09 -2.58798E-09 -2.61403E-09 -2.63721E-09 -2.65763E-09 -2.67536E-09 -2.69051E-09 -2.70318E-09 -2.71342E-09
  -2.72134E-09 -2.72704E-09 -2.73059E-09 -2.73211E-09 -2.73166E-09 -2.72935E-09 -2.72527E-09 -2.71950E-09 -2.71213E-09 -2.70325E-09
  -2.69296E-09 -2.68134E-09 -2.66848E-09 -2.65448E-09 -2.63942E-09 -2.62339E-09 -2.60650E-09 -2.58883E-09 -2.57044E-09 -2.55145E-09
  -2.53194E-09 -2.51202E-09 -2.49176E-09 -2.47124E-09 -2.45059E-09 -2.42985E-09 -2.40915E-09 -2.38855E-09 -2.36816E-09 -2.34808E-09
  -2.32833E-09 -2.30894E-09 -2.28991E-09 -2.27123E-09 -2.25293E-09 -2.23501E-09 -2.21746E-09 -2.20031E-09 -2.18354E-09 -2.16717E-09
  -2.15120E-09 -2.13564E-09 -2.12050E-09 -2.10577E-09 -2.09147E-09 -2.07760E-09 -2.06416E-09 -2.05116E-09 -2.03860E-09 -2.02650E-09
  -2.01486E-09 -2.00368E-09 -1.99296E-09 -1.98271E-09 -1.97295E-09 -1.96367E-09 -1.95487E-09 -1.94657E-09 -1.93877E-09 -1.93148E-09
  -1.92470E-09 -1.91843E-09 -1.91268E-09 -1.90746E-09 -1.90277E-09 -1.89862E-09 -1.89501E-09 -1.89195E-09 -1.88944E-09 -1.88750E-09
  -1.88612E-09 -1.88530E-09 -1.88507E-09 -1.88541E-09 -1.88633E-09 -1.88786E-09 -1.88998E-09 -1.89269E-09 -1.89602E-09 -1.89995E-09
  -1.90451E-09 -1.90971E-09 -1.91550E-09 -1.92189E-09 -1.92887E-09 -1.93641E-09 -1.94451E-09 -1.95315E-09 -1.96231E-09 -1.97197E-09
  -1.98213E-09 -1.99277E-09 -2.00386E-09 -2.01540E-09 -2.02738E-09 -2.03977E-09 -2.05256E-09 -2.06574E-09 -2.07928E-09 -2.09318E-09
  -2.10743E-09 -2.12199E-09 -2.13687E-09 -2.15204E-09 -2.16748E-09 -2.18319E-09 -2.19916E-09 -2.21535E-09 -2.23176E-09 -2.24837E-09
  -2.26517E-09 -2.28215E-09 -2.29928E-09 -2.31655E-09 -2.33394E-09 -2.35145E-09 -2.36906E-09 -2.38674E-09 -2.40449E-09 -2.42229E-09
  -2.44013E-09 -2.45799E-09 -2.47585E-09 -2.49370E-09 -2.51152E-09 -2.52930E-09 -2.54703E-09 -2.56468E-09 -2.58225E-09 -2.59972E-09
  -2.61707E-09 -2.63429E-09 -2.65135E-09
 GABA     Conc. = 4.15E-10
  -3.96483E-09 -3.85106E-09 -3.73713E-09 -3.62307E-09 -3.50888E-09 -3.39457E-09 -3.28015E-09 -3.16562E-09 -3.05099E-09 -2.93623E-09
  -2.82142E-09 -2.70647E-09 -2.59138E-09 -2.47627E-09 -2.36087E-09 -2.24539E-09 -2.12987E-09 -2.01385E-09 -1.89759E-09 -1.78105E-09
  -1.66378E-09 -1.54573E-09 -1.42652E-09 -1.30564E-09 -1.18206E-09 -1.05440E-09 -9.19267E-10 -7.68613E-10 -5.79735E-10 -2.87816E-10
  -2.45090E-10 -9.36791E-11  3.97419E-10  4.71130E-10  4.97440E-10  8.23117E-10  9.60640E-10  1.04947E-09  1.16820E-09  1.30296E-09
   1.17859E-09  1.27233E-09  1.53512E-09  1.29753E-09  1.24344E-09  1.45498E-09  1.41474E-09  1.42929E-09  1.49181E-09  1.57272E-09
   1.66281E-09  1.75736E-09  1.85514E-09  1.95548E-09  2.05790E-09  2.16239E-09  2.26959E-09  2.38073E-09  2.49781E-09  2.62670E-09
   2.78137E-09  3.00663E-09  3.22468E-09  3.23871E-09  3.52410E-09  3.83500E-09  3.79252E-09  3.90508E-09  4.09581E-09  4.16392E-09
   4.23207E-09  4.32356E-09  4.33592E-09  4.19726E-09  4.37146E-09  4.40898E-09  4.18539E-09  4.26551E-09  4.35646E-09  4.40416E-09
   4.50910E-09  4.49345E-09  4.63414E-09  4.89889E-09  4.87831E-09  4.97323E-09  5.22410E-09  5.26973E-09  5.32889E-09  5.49139E-09
   5.56594E-09  5.52003E-09  5.65605E-09  5.77950E-09  5.61523E-09  5.67841E-09  5.79636E-09  5.69606E-09  5.69617E-09  5.74032E-09
   5.73980E-09  5.75273E-09  5.77445E-09  5.80058E-09  5.82899E-09  5.85825E-09  5.88763E-09  5.91660E-09  5.94479E-09  5.97195E-09
   5.99800E-09  6.02255E-09  6.04552E-09  6.06682E-09  6.08628E-09  6.10393E-09  6.11969E-09  6.13344E-09  6.14512E-09  6.15468E-09
   6.16202E-09  6.16714E-09  6.16998E-09  6.17048E-09  6.16858E-09  6.16426E-09  6.15747E-09  6.14815E-09  6.13626E-09  6.12177E-09
   6.10463E-09  6.08479E-09  6.06223E-09  6.03689E-09  6.00875E-09  5.97775E-09  5.94385E-09  5.90703E-09  5.86724E-09  5.82444E-09
   5.77859E-09  5.72965E-09  5.67760E-09  5.62239E-09  5.56398E-09  5.50233E-09  5.43741E-09  5.36919E-09  5.29763E-09  5.22270E-09
   5.14437E-09  5.06260E-09  4.97738E-09  4.88867E-09  4.79646E-09  4.70074E-09  4.60154E-09  4.49901E-09  4.39340E-09  4.28501E-09
   4.17423E-09  4.06162E-09  3.94814E-09  3.83572E-09  3.72914E-09  3.64450E-09  3.66682E-09  3.98732E-09  3.75370E-09  3.58948E-09
   3.50800E-09  3.38149E-09  3.24513E-09  3.09147E-09  2.93643E-09  2.77841E-09  2.66399E-09  2.63580E-09  1.99473E-09  1.72303E-09
   1.54106E-09  1.38113E-09  1.22945E-09  1.08193E-09  9.36959E-10  7.93960E-10  6.52619E-10  5.12835E-10  3.74664E-10  2.38139E-10
   1.03341E-10 -2.95917E-11 -1.60576E-10 -2.89424E-10 -4.16056E-10 -5.40301E-10 -6.62025E-10 -7.81061E-10 -8.97298E-10 -1.01055E-09
  -1.12068E-09 -1.22755E-09 -1.33098E-09 -1.43085E-09 -1.52699E-09 -1.61926E-09 -1.70746E-09 -1.79152E-09 -1.87127E-09 -1.94681E-09
  -2.01823E-09 -2.08562E-09 -2.14905E-09 -2.20865E-09 -2.26447E-09 -2.31663E-09 -2.36521E-09 -2.41029E-09 -2.45198E-09 -2.49037E-09
  -2.52552E-09 -2.55755E-09 -2.58654E-09 -2.61259E-09 -2.63577E-09 -2.65619E-09 -2.67392E-09 -2.68907E-09 -2.70174E-09 -2.71198E-09
  -2.71990E-09 -2.72560E-09 -2.72916E-09 -2.73068E-09 -2.73023E-09 -2.72793E-09 -2.72385E-09 -2.71808E-09 -2.71072E-09 -2.70184E-09
