 LCModel (Version 6.3-1R) Copyright: S.W. Provencher.          Ref.: Magn. Reson. Med. 30:672-679 (1993).                
 onepulse 24x9_ftSpec_smooth_lcm
 26 lines in following concentration table = NCONC+1
    Conc.  %SD /Cr+PCr  Metabolite                                         
    0.000 999%   0.000 Ala                                                 
    0.000 999%   0.000 Asp                                                 
    0.000 999%   0.000 Cr                                                  
    0.000 999%   0.000 GABA                                                
 2.17E-10 414%   0.891 Glc                                                 
 2.39E-09  28%   9.782 Gln                                                 
    0.000 999%   0.000 Glu                                                 
    0.000 999%   0.000 Glyc                                                
    0.000 999%   0.000 GPC                                                 
 1.25E-10 353%   0.512 GSH                                                 
 1.71E-09  32%   7.031 Ins                                                 
    0.000 999%   0.000 Lac                                                 
 4.29E-10  76%   1.758 NAAG                                                
 1.40E-10 325%   0.572 NAA                                                 
    0.000 999%   0.000 PCh                                                 
 2.44E-10 115%   1.000 PCr                                                 
 1.91E-09  31%   7.818 PE                                                  
 2.20E-10 105%   0.903 Scyllo                                              
 2.69E-09  28%  11.035 Ser                                                 
    0.000 999%   0.000 Tau                                                 
    0.000 999%   0.000 GPC+PCh                                             
 5.68E-10  50%   2.331 NAA+NAAG                                            
 1.71E-09  32%   7.031 Ins+Glyc                                            
 2.44E-10 115%   1.000 Cr+PCr                                              
 2.39E-09  28%   9.782 Glu+Gln                                             
   6 lines in following misc. output table
  FWHM = 0.123 ppm    S/N =   3                                            
  Data shift = 0.402 ppm                                                   
  Ph:  -6 deg     -35.6 deg/ppm                                            
  alphaB,S = 4.0E-01,   2.7E+01                                            
   11 spline knots.   Ns = 5(1)                                            
  (12) 4 infls.   (11) 3 extrs.                                            
  363 points on ppm-axis = NY
      4.250000     4.238821     4.227641     4.216462     4.205282     4.194103     4.182923     4.171744     4.160564     4.149385
      4.138206     4.127026     4.115847     4.104667     4.093488     4.082308     4.071129     4.059949     4.048770     4.037591
      4.026411     4.015232     4.004052     3.992873     3.981693     3.970514     3.959334     3.948155     3.936975     3.925796
      3.914617     3.903437     3.892258     3.881078     3.869899     3.858719     3.847540     3.836360     3.825181     3.814002
      3.802822     3.791643     3.780463     3.769284     3.758104     3.746925     3.735745     3.724566     3.713387     3.702207
      3.691028     3.679848     3.668669     3.657489     3.646310     3.635130     3.623951     3.612772     3.601592     3.590413
      3.579233     3.568054     3.556874     3.545695     3.534515     3.523336     3.512156     3.500977     3.489798     3.478618
      3.467439     3.456259     3.445080     3.433900     3.422721     3.411541     3.400362     3.389183     3.378003     3.366824
      3.355644     3.344465     3.333285     3.322106     3.310926     3.299747     3.288568     3.277388     3.266209     3.255029
      3.243850     3.232670     3.221491     3.210311     3.199132     3.187953     3.176773     3.165594     3.154414     3.143235
      3.132055     3.120876     3.109696     3.098517     3.087337     3.076158     3.064979     3.053799     3.042620     3.031440
      3.020261     3.009081     2.997902     2.986722     2.975543     2.964364     2.953184     2.942005     2.930825     2.919646
      2.908466     2.897287     2.886107     2.874928     2.863749     2.852569     2.841390     2.830210     2.819031     2.807851
      2.796672     2.785492     2.774313     2.763134     2.751954     2.740775     2.729595     2.718416     2.707236     2.696057
      2.684877     2.673698     2.662519     2.651339     2.640160     2.628980     2.617801     2.606621     2.595442     2.584262
      2.573083     2.561903     2.550724     2.539545     2.528365     2.517186     2.506006     2.494827     2.483647     2.472468
      2.461288     2.450109     2.438930     2.427750     2.416571     2.405391     2.394212     2.383032     2.371853     2.360673
      2.349494     2.338315     2.327135     2.315956     2.304776     2.293597     2.282417     2.271238     2.260058     2.248879
      2.237700     2.226520     2.215341     2.204161     2.192982     2.181802     2.170623     2.159443     2.148264     2.137084
      2.125905     2.114726     2.103546     2.092367     2.081187     2.070008     2.058828     2.047649     2.036469     2.025290
      2.014111     2.002931     1.991752     1.980572     1.969393     1.958213     1.947034     1.935854     1.924675     1.913496
      1.902316     1.891137     1.879957     1.868778     1.857598     1.846419     1.835239     1.824060     1.812881     1.801701
      1.790522     1.779342     1.768163     1.756983     1.745804     1.734624     1.723445     1.712265     1.701086     1.689907
      1.678727     1.667548     1.656368     1.645189     1.634009     1.622830     1.611650     1.600471     1.589292     1.578112
      1.566933     1.555753     1.544574     1.533394     1.522215     1.511035     1.499856     1.488677     1.477497     1.466318
      1.455138     1.443959     1.432779     1.421600     1.410420     1.399241     1.388062     1.376882     1.365703     1.354523
      1.343344     1.332164     1.320985     1.309805     1.298626     1.287446     1.276267     1.265088     1.253908     1.242729
      1.231549     1.220370     1.209190     1.198011     1.186831     1.175652     1.164473     1.153293     1.142114     1.130934
      1.119755     1.108575     1.097396     1.086216     1.075037     1.063858     1.052678     1.041499     1.030319     1.019140
      1.007960     0.996781     0.985601     0.974422     0.963243     0.952063     0.940884     0.929704     0.918525     0.907345
      0.896166     0.884986     0.873807     0.862628     0.851448     0.840269     0.829089     0.817910     0.806730     0.795551
      0.784371     0.773192     0.762012     0.750833     0.739654     0.728474     0.717295     0.706115     0.694936     0.683756
      0.672577     0.661397     0.650218     0.639039     0.627859     0.616680     0.605500     0.594321     0.583141     0.571962
      0.560782     0.549603     0.538424     0.527244     0.516065     0.504885     0.493706     0.482526     0.471347     0.460167
      0.448988     0.437809     0.426629     0.415450     0.404270     0.393091     0.381911     0.370732     0.359552     0.348373
      0.337193     0.326014     0.314835     0.303655     0.292476     0.281296     0.270117     0.258937     0.247758     0.236578
      0.225399     0.214220     0.203040
 NY phased data points follow
   5.21339E-09  6.60784E-09  4.43053E-09  5.71426E-09  3.58635E-09  5.23231E-09  3.35534E-09  5.27900E-09  4.47817E-09  6.59303E-09
   5.38305E-09  7.59936E-09  5.84862E-09  7.24707E-09  6.15755E-09  7.91337E-09  5.75096E-09  7.62143E-09  5.28314E-09  7.04204E-09
   5.99633E-09  8.00785E-09  6.67782E-09  8.00885E-09  5.84927E-09  6.90302E-09  5.65400E-09  8.55623E-09  9.13131E-09  1.10042E-08
   1.06001E-08  1.14966E-08  1.00485E-08  1.07883E-08  9.23224E-09  1.00937E-08  8.66954E-09  9.37791E-09  8.36276E-09  9.72240E-09
   7.90025E-09  9.18088E-09  6.93181E-09  7.78526E-09  6.18190E-09  7.57586E-09  6.21667E-09  7.94293E-09  5.05677E-09  7.03408E-09
   5.21483E-09  6.20717E-09  2.91838E-09  4.45013E-09  2.96624E-09  4.23288E-09  2.19723E-09  3.56582E-09  4.36452E-09  8.75074E-09
   8.80183E-09  1.08370E-08  9.89986E-09  1.03391E-08  8.43193E-09  8.93573E-09  7.97259E-09  8.46736E-09  6.57827E-09  6.65218E-09
   4.34064E-09  5.33507E-09  2.16482E-09  2.68178E-09  2.25441E-09  7.28871E-09  9.90043E-09  1.28076E-08  1.19506E-08  1.32501E-08
   1.24191E-08  1.33215E-08  1.18341E-08  1.31081E-08  1.20292E-08  1.36879E-08  1.17310E-08  1.31598E-08  1.10313E-08  1.35088E-08
   1.09300E-08  1.21843E-08  1.08312E-08  1.11760E-08  9.72199E-09  1.01341E-08  8.90972E-09  1.02329E-08  9.13256E-09  1.01623E-08
   8.33714E-09  9.68351E-09  8.88816E-09  9.58345E-09  8.53598E-09  8.68009E-09  6.78636E-09  7.19044E-09  5.82208E-09  7.47687E-09
   6.24462E-09  6.81075E-09  6.60847E-09  8.16821E-09  6.66038E-09  7.77703E-09  7.02267E-09  8.42974E-09  6.86407E-09  8.11323E-09
   6.24201E-09  6.79974E-09  4.64081E-09  6.21191E-09  4.84689E-09  6.17099E-09  4.94790E-09  6.07356E-09  4.55797E-09  6.50304E-09
   5.23854E-09  6.09488E-09  4.25527E-09  5.37329E-09  4.32346E-09  5.80846E-09  6.44336E-09  7.92185E-09  6.94739E-09  7.43488E-09
   6.93545E-09  9.02123E-09  8.17066E-09  8.95298E-09  8.38538E-09  9.76003E-09  8.05005E-09  9.39012E-09  8.50675E-09  8.99699E-09
   8.13851E-09  9.02665E-09  7.98440E-09  8.62306E-09  7.29097E-09  8.20661E-09  7.14412E-09  8.66685E-09  7.53013E-09  7.84735E-09
   6.54166E-09  7.01349E-09  6.86342E-09  6.39758E-09  4.39290E-09  5.17390E-09  9.26016E-09  1.62978E-08  1.82899E-08  1.98917E-08
   1.92197E-08  1.90449E-08  1.84401E-08  1.85542E-08  1.76248E-08  1.74573E-08  1.59604E-08  1.64759E-08  1.38756E-08  1.42114E-08
   1.21521E-08  1.09618E-08  8.38350E-09  7.12456E-09  4.63767E-09  2.49184E-09  1.39498E-10 -1.99597E-09 -4.98628E-09 -6.43803E-09
  -8.53649E-09 -9.32878E-09 -1.10255E-08 -1.18113E-08 -1.29467E-08 -1.24655E-08 -1.32215E-08 -1.15299E-08 -1.17116E-08 -1.01110E-08
  -9.53278E-09 -8.19106E-09 -7.17066E-09 -5.32145E-09 -5.40758E-09 -3.83755E-09 -3.91511E-09 -3.06030E-09 -3.50429E-09 -2.66325E-09
  -3.18790E-09 -2.52932E-09 -3.43459E-09 -2.85389E-09 -3.22193E-09 -2.50765E-09 -2.96174E-09 -2.37631E-09 -2.40272E-09 -2.34695E-09
  -2.24633E-09 -1.71795E-09 -2.58830E-09 -2.25712E-09 -3.31299E-09 -1.86394E-09 -2.45427E-09 -1.77636E-09 -2.56951E-09 -1.94855E-09
  -2.08613E-09 -1.88249E-09 -1.94537E-09 -1.66874E-09 -2.49743E-09 -2.41729E-09 -2.62701E-09 -1.89299E-09 -2.55086E-09 -1.94170E-09
  -2.57679E-09 -1.66993E-09 -2.44831E-09 -1.58421E-09 -2.28510E-09 -1.20213E-09 -2.22896E-09 -1.28833E-09 -2.20333E-09 -1.10084E-09
  -1.86655E-09 -1.20808E-09 -2.37422E-09 -1.53957E-09 -1.62172E-09 -1.51707E-09 -2.56094E-09 -2.16549E-09 -2.35810E-09 -2.23685E-09
  -2.61962E-09 -2.67874E-09 -2.95067E-09 -2.60704E-09 -2.98097E-09 -2.36668E-09 -2.32834E-09 -1.63718E-09 -2.03065E-09 -1.31490E-09
  -1.59194E-09 -3.94459E-10 -4.09009E-10 -1.08756E-10 -1.02669E-09 -4.51488E-10 -8.11052E-10 -7.95843E-10 -1.34833E-09 -8.16720E-10
  -1.61261E-09 -1.54678E-09 -1.90138E-09 -1.22466E-09 -1.87878E-09 -1.48928E-09 -2.01319E-09 -1.98714E-09 -2.10012E-09 -2.57352E-09
  -2.19795E-09 -2.04924E-09 -2.75876E-09 -2.14915E-09 -2.48804E-09 -2.88216E-09 -2.84029E-09 -2.43638E-09 -2.88201E-09 -2.39192E-09
  -3.05936E-09 -2.65237E-09 -3.15423E-09 -2.84251E-09 -2.84912E-09 -2.91895E-09 -3.06528E-09 -2.87386E-09 -3.19143E-09 -2.74442E-09
  -2.91166E-09 -2.79980E-09 -3.09120E-09 -3.26554E-09 -3.30223E-09 -2.90838E-09 -3.39853E-09 -2.61297E-09 -3.47108E-09 -2.90016E-09
  -3.26582E-09 -3.18611E-09 -3.72891E-09 -2.96644E-09 -2.94362E-09 -2.99842E-09 -3.41911E-09 -2.88852E-09 -3.59678E-09 -2.91639E-09
  -3.25235E-09 -3.08139E-09 -3.10428E-09 -3.50705E-09 -3.54419E-09 -2.84658E-09 -3.01048E-09 -2.86619E-09 -3.48587E-09 -2.98493E-09
  -2.97361E-09 -3.08826E-09 -3.37207E-09 -2.98336E-09 -2.96730E-09 -3.10638E-09 -3.57909E-09 -3.03285E-09 -3.10108E-09 -2.64024E-09
  -3.69783E-09 -2.55658E-09 -3.40829E-09 -2.87214E-09 -2.87049E-09 -2.28309E-09 -3.07139E-09 -2.80021E-09 -2.79316E-09 -2.13146E-09
  -2.77891E-09 -2.70706E-09 -2.82350E-09
 NY points of the fit to the data follow
   5.07116E-09  6.19265E-09  6.08881E-09  5.36206E-09  4.91039E-09  5.25134E-09  5.31334E-09  4.63232E-09  4.19339E-09  4.82264E-09
   5.75065E-09  6.16019E-09  6.37562E-09  6.54988E-09  6.97381E-09  7.16172E-09  6.77421E-09  6.81006E-09  7.60818E-09  7.56800E-09
   6.68024E-09  5.93683E-09  5.98075E-09  6.21497E-09  6.57041E-09  7.10638E-09  8.14179E-09  9.32138E-09  1.00175E-08  9.84493E-09
   9.94588E-09  1.01891E-08  1.04772E-08  1.05080E-08  1.05637E-08  1.02787E-08  9.77401E-09  9.04545E-09  8.53722E-09  8.21561E-09
   8.05905E-09  7.97775E-09  7.70294E-09  7.13376E-09  6.71807E-09  6.33163E-09  6.00828E-09  5.70498E-09  5.41475E-09  5.20169E-09
   5.01747E-09  4.86101E-09  4.66444E-09  4.43741E-09  4.43648E-09  4.92924E-09  5.30611E-09  5.71221E-09  6.57633E-09  7.45778E-09
   7.96064E-09  8.42194E-09  8.87575E-09  9.30026E-09  9.48692E-09  9.27976E-09  8.96882E-09  8.85885E-09  8.29871E-09  7.53102E-09
   7.06754E-09  6.99988E-09  7.09483E-09  7.12987E-09  7.24764E-09  7.79036E-09  9.00756E-09  1.05082E-08  1.18882E-08  1.28890E-08
   1.35748E-08  1.40043E-08  1.40042E-08  1.40782E-08  1.44331E-08  1.43838E-08  1.37549E-08  1.26916E-08  1.17261E-08  1.09853E-08
   1.04681E-08  1.00730E-08  9.76366E-09  9.51389E-09  9.29656E-09  9.10219E-09  8.93726E-09  8.79778E-09  8.66968E-09  8.54120E-09
   8.42749E-09  8.33548E-09  8.25169E-09  8.16744E-09  8.09019E-09  8.01974E-09  7.95474E-09  7.89429E-09  7.83718E-09  7.78291E-09
   7.73099E-09  7.68097E-09  7.63245E-09  7.58504E-09  7.53839E-09  7.49221E-09  7.44624E-09  7.40018E-09  7.35381E-09  7.30690E-09
   7.25925E-09  7.21065E-09  7.16092E-09  7.10987E-09  7.05735E-09  7.00318E-09  6.94721E-09  6.88930E-09  6.82928E-09  6.76701E-09
   6.70238E-09  6.63523E-09  6.56546E-09  6.49292E-09  6.41748E-09  6.33906E-09  6.25751E-09  6.17277E-09  6.08490E-09  5.99394E-09
   5.89996E-09  5.80303E-09  5.70321E-09  5.60058E-09  5.49523E-09  5.38725E-09  5.27673E-09  5.16377E-09  5.04850E-09  4.93105E-09
   4.81157E-09  4.69021E-09  4.56719E-09  4.44278E-09  4.31727E-09  4.19112E-09  4.06489E-09  3.93941E-09  3.81593E-09  3.69635E-09
   3.58394E-09  3.48431E-09  3.40836E-09  3.37943E-09  3.45595E-09  3.82491E-09  5.38823E-09  1.20453E-08  1.78372E-08  2.02347E-08
   2.02412E-08  1.94332E-08  1.87293E-08  1.84007E-08  1.84986E-08  1.87001E-08  1.76359E-08  1.31977E-08  5.94880E-09  3.44016E-09
   2.49435E-09  1.96218E-09  1.59380E-09  1.30722E-09  1.06783E-09  8.58500E-10  6.69809E-10  4.96094E-10  3.33814E-10  1.80580E-10
   3.47909E-11 -1.04737E-10 -2.38800E-10 -3.68050E-10 -4.92937E-10 -6.13820E-10 -7.30961E-10 -8.44580E-10 -9.54836E-10 -1.06187E-09
  -1.16577E-09 -1.26661E-09 -1.36448E-09 -1.45939E-09 -1.55141E-09 -1.64056E-09 -1.72685E-09 -1.81031E-09 -1.89095E-09 -1.96877E-09
  -2.04377E-09 -2.11595E-09 -2.18533E-09 -2.25191E-09 -2.31564E-09 -2.37656E-09 -2.43465E-09 -2.48992E-09 -2.54235E-09 -2.59192E-09
  -2.63867E-09 -2.68255E-09 -2.72357E-09 -2.76174E-09 -2.79706E-09 -2.82948E-09 -2.85907E-09 -2.88579E-09 -2.90972E-09 -2.93097E-09
  -2.94965E-09 -2.96588E-09 -2.97976E-09 -2.99139E-09 -3.00089E-09 -3.00836E-09 -3.01391E-09 -3.01763E-09 -3.01964E-09 -3.02003E-09
  -3.01891E-09 -3.01638E-09 -3.01253E-09 -3.00747E-09 -3.00129E-09 -2.99409E-09 -2.98596E-09 -2.97699E-09 -2.96728E-09 -2.95692E-09
  -2.94599E-09 -2.93459E-09 -2.92280E-09 -2.91070E-09 -2.89838E-09 -2.88591E-09 -2.87338E-09 -2.86087E-09 -2.84844E-09 -2.83617E-09
  -2.82414E-09 -2.81241E-09 -2.80105E-09 -2.79013E-09 -2.77970E-09 -2.76984E-09 -2.76059E-09 -2.75202E-09 -2.74418E-09 -2.73712E-09
  -2.73089E-09 -2.72554E-09 -2.72111E-09 -2.71759E-09 -2.71495E-09 -2.71312E-09 -2.71207E-09 -2.71174E-09 -2.71208E-09 -2.71305E-09
  -2.71460E-09 -2.71668E-09 -2.71924E-09 -2.72224E-09 -2.72563E-09 -2.72936E-09 -2.73339E-09 -2.73767E-09 -2.74216E-09 -2.74682E-09
  -2.75159E-09 -2.75644E-09 -2.76133E-09 -2.76621E-09 -2.77105E-09 -2.77579E-09 -2.78040E-09 -2.78484E-09 -2.78908E-09 -2.79307E-09
  -2.79677E-09 -2.80015E-09 -2.80318E-09 -2.80581E-09 -2.80801E-09 -2.80975E-09 -2.81100E-09 -2.81172E-09 -2.81188E-09 -2.81145E-09
  -2.81041E-09 -2.80871E-09 -2.80633E-09 -2.80326E-09 -2.79945E-09 -2.79488E-09 -2.78954E-09 -2.78338E-09 -2.77641E-09 -2.76859E-09
  -2.75993E-09 -2.75041E-09 -2.74002E-09 -2.72874E-09 -2.71657E-09 -2.70349E-09 -2.68950E-09 -2.67458E-09 -2.65874E-09 -2.64194E-09
  -2.62420E-09 -2.60550E-09 -2.58583E-09 -2.56518E-09 -2.54355E-09 -2.52092E-09 -2.49730E-09 -2.47268E-09 -2.44704E-09 -2.42039E-09
  -2.39272E-09 -2.36402E-09 -2.33429E-09 -2.30353E-09 -2.27172E-09 -2.23888E-09 -2.20498E-09 -2.17004E-09 -2.13405E-09 -2.09700E-09
  -2.05890E-09 -2.01974E-09 -1.97952E-09 -1.93824E-09 -1.89591E-09 -1.85251E-09 -1.80806E-09 -1.76255E-09 -1.71599E-09 -1.66837E-09
  -1.61970E-09 -1.56998E-09 -1.51921E-09
 NY background values follow
     5.185E-10    5.619E-10    6.054E-10    6.492E-10    6.931E-10    7.372E-10    7.814E-10    8.258E-10    8.704E-10    9.152E-10
     9.601E-10    1.005E-09    1.050E-09    1.096E-09    1.141E-09    1.187E-09    1.233E-09    1.279E-09    1.325E-09    1.371E-09
     1.417E-09    1.464E-09    1.510E-09    1.557E-09    1.603E-09    1.650E-09    1.697E-09    1.744E-09    1.791E-09    1.839E-09
     1.886E-09    1.933E-09    1.981E-09    2.029E-09    2.076E-09    2.124E-09    2.172E-09    2.219E-09    2.267E-09    2.315E-09
     2.363E-09    2.411E-09    2.459E-09    2.508E-09    2.556E-09    2.604E-09    2.652E-09    2.700E-09    2.749E-09    2.797E-09
     2.845E-09    2.894E-09    2.942E-09    2.990E-09    3.038E-09    3.086E-09    3.135E-09    3.183E-09    3.231E-09    3.279E-09
     3.327E-09    3.375E-09    3.422E-09    3.470E-09    3.518E-09    3.565E-09    3.612E-09    3.660E-09    3.707E-09    3.754E-09
     3.800E-09    3.847E-09    3.893E-09    3.940E-09    3.986E-09    4.032E-09    4.077E-09    4.123E-09    4.168E-09    4.213E-09
     4.257E-09    4.302E-09    4.346E-09    4.390E-09    4.434E-09    4.477E-09    4.520E-09    4.562E-09    4.605E-09    4.647E-09
     4.688E-09    4.730E-09    4.770E-09    4.811E-09    4.851E-09    4.890E-09    4.929E-09    4.967E-09    5.004E-09    5.040E-09
     5.075E-09    5.110E-09    5.143E-09    5.175E-09    5.207E-09    5.236E-09    5.265E-09    5.292E-09    5.317E-09    5.341E-09
     5.363E-09    5.384E-09    5.403E-09    5.420E-09    5.435E-09    5.447E-09    5.458E-09    5.467E-09    5.473E-09    5.477E-09
     5.478E-09    5.477E-09    5.473E-09    5.466E-09    5.457E-09    5.445E-09    5.430E-09    5.411E-09    5.390E-09    5.366E-09
     5.338E-09    5.306E-09    5.272E-09    5.233E-09    5.192E-09    5.146E-09    5.097E-09    5.043E-09    4.986E-09    4.926E-09
     4.862E-09    4.794E-09    4.723E-09    4.648E-09    4.571E-09    4.490E-09    4.406E-09    4.319E-09    4.230E-09    4.138E-09
     4.043E-09    3.945E-09    3.846E-09    3.744E-09    3.640E-09    3.533E-09    3.425E-09    3.315E-09    3.204E-09    3.091E-09
     2.976E-09    2.860E-09    2.743E-09    2.625E-09    2.505E-09    2.385E-09    2.265E-09    2.143E-09    2.021E-09    1.899E-09
     1.777E-09    1.654E-09    1.532E-09    1.410E-09    1.288E-09    1.167E-09    1.046E-09    9.255E-10    8.062E-10    6.878E-10
     5.704E-10    4.543E-10    3.395E-10    2.261E-10    1.141E-10    3.601E-12   -1.054E-10   -2.128E-10   -3.186E-10   -4.227E-10
    -5.252E-10   -6.259E-10   -7.248E-10   -8.218E-10   -9.170E-10   -1.010E-09   -1.102E-09   -1.191E-09   -1.278E-09   -1.364E-09
    -1.447E-09   -1.528E-09   -1.606E-09   -1.683E-09   -1.757E-09   -1.830E-09   -1.899E-09   -1.967E-09   -2.032E-09   -2.095E-09
    -2.155E-09   -2.213E-09   -2.268E-09   -2.321E-09   -2.371E-09   -2.419E-09   -2.464E-09   -2.507E-09   -2.547E-09   -2.585E-09
    -2.620E-09   -2.652E-09   -2.681E-09   -2.708E-09   -2.733E-09   -2.754E-09   -2.773E-09   -2.789E-09   -2.803E-09   -2.814E-09
    -2.822E-09   -2.828E-09   -2.832E-09   -2.834E-09   -2.834E-09   -2.832E-09   -2.829E-09   -2.823E-09   -2.816E-09   -2.807E-09
    -2.797E-09   -2.786E-09   -2.774E-09   -2.760E-09   -2.746E-09   -2.730E-09   -2.714E-09   -2.697E-09   -2.679E-09   -2.660E-09
    -2.642E-09   -2.623E-09   -2.603E-09   -2.583E-09   -2.564E-09   -2.544E-09   -2.524E-09   -2.504E-09   -2.484E-09   -2.465E-09
    -2.446E-09   -2.427E-09   -2.409E-09   -2.391E-09   -2.374E-09   -2.358E-09   -2.342E-09   -2.327E-09   -2.312E-09   -2.299E-09
    -2.286E-09   -2.275E-09   -2.264E-09   -2.254E-09   -2.246E-09   -2.238E-09   -2.231E-09   -2.225E-09   -2.219E-09   -2.214E-09
    -2.210E-09   -2.207E-09   -2.204E-09   -2.201E-09   -2.199E-09   -2.197E-09   -2.196E-09   -2.195E-09   -2.194E-09   -2.194E-09
    -2.193E-09   -2.193E-09   -2.193E-09   -2.193E-09   -2.193E-09   -2.193E-09   -2.193E-09   -2.192E-09   -2.192E-09   -2.191E-09
    -2.190E-09   -2.189E-09   -2.188E-09   -2.186E-09   -2.184E-09   -2.181E-09   -2.178E-09   -2.174E-09   -2.170E-09   -2.166E-09
    -2.160E-09   -2.155E-09   -2.148E-09   -2.141E-09   -2.133E-09   -2.125E-09   -2.116E-09   -2.106E-09   -2.095E-09   -2.084E-09
    -2.071E-09   -2.058E-09   -2.044E-09   -2.029E-09   -2.014E-09   -1.997E-09   -1.980E-09   -1.961E-09   -1.942E-09   -1.922E-09
    -1.901E-09   -1.879E-09   -1.856E-09   -1.832E-09   -1.808E-09   -1.782E-09   -1.755E-09   -1.728E-09   -1.699E-09   -1.670E-09
    -1.639E-09   -1.608E-09   -1.575E-09   -1.542E-09   -1.507E-09   -1.472E-09   -1.435E-09   -1.398E-09   -1.359E-09   -1.320E-09
    -1.279E-09   -1.237E-09   -1.195E-09   -1.151E-09   -1.107E-09   -1.061E-09   -1.014E-09   -9.664E-10   -9.177E-10   -8.679E-10
    -8.172E-10   -7.654E-10   -7.126E-10
 Glc      Conc. = 2.17E-10
   2.75398E-10  3.91145E-10  4.82069E-10  5.70656E-10  6.58306E-10  7.59872E-10  8.43949E-10  9.22251E-10  9.80710E-10  9.85550E-10
   9.85396E-10  9.90953E-10  9.91331E-10  1.01513E-09  1.11508E-09  1.26887E-09  1.42717E-09  1.57460E-09  1.68983E-09  1.77933E-09
   1.88160E-09  1.99127E-09  2.09518E-09  2.20839E-09  2.28984E-09  2.29409E-09  2.27651E-09  2.27609E-09  2.29636E-09  2.33321E-09
   2.36564E-09  2.38975E-09  2.42373E-09  2.45901E-09  2.48012E-09  2.50374E-09  2.53576E-09  2.56391E-09  2.58823E-09  2.61605E-09
   2.64707E-09  2.68030E-09  2.71529E-09  2.75169E-09  2.78925E-09  2.82779E-09  2.86718E-09  2.90728E-09  2.94801E-09  2.98927E-09
   3.03102E-09  3.07318E-09  3.11570E-09  3.15855E-09  3.20167E-09  3.24505E-09  3.28864E-09  3.33241E-09  3.37635E-09  3.42042E-09
   3.46460E-09  3.50887E-09  3.55321E-09  3.59761E-09  3.64203E-09  3.68647E-09  3.73091E-09  3.77533E-09  3.81971E-09  3.86405E-09
   3.90832E-09  3.95252E-09  3.99662E-09  4.04062E-09  4.08449E-09  4.12824E-09  4.17183E-09  4.21528E-09  4.25854E-09  4.30162E-09
   4.34450E-09  4.38717E-09  4.42962E-09  4.47184E-09  4.51380E-09  4.55550E-09  4.59693E-09  4.63809E-09  4.67894E-09  4.71948E-09
   4.75971E-09  4.79960E-09  4.83911E-09  4.87820E-09  4.91680E-09  4.95485E-09  4.99227E-09  5.02901E-09  5.06500E-09  5.10017E-09
   5.13444E-09  5.16776E-09  5.20005E-09  5.23123E-09  5.26124E-09  5.28999E-09  5.31742E-09  5.34345E-09  5.36799E-09  5.39099E-09
   5.41234E-09  5.43197E-09  5.44982E-09  5.46579E-09  5.47980E-09  5.49178E-09  5.50165E-09  5.50931E-09  5.51469E-09  5.51770E-09
   5.51826E-09  5.51628E-09  5.51169E-09  5.50439E-09  5.49432E-09  5.48137E-09  5.46547E-09  5.44654E-09  5.42448E-09  5.39920E-09
   5.37065E-09  5.33871E-09  5.30333E-09  5.26440E-09  5.22184E-09  5.17559E-09  5.12555E-09  5.07168E-09  5.01406E-09  4.95279E-09
   4.88793E-09  4.81959E-09  4.74785E-09  4.67279E-09  4.59453E-09  4.51315E-09  4.42877E-09  4.34146E-09  4.25135E-09  4.15853E-09
   4.06312E-09  3.96521E-09  3.86493E-09  3.76239E-09  3.65770E-09  3.55098E-09  3.44237E-09  3.33198E-09  3.21997E-09  3.10646E-09
   2.99170E-09  2.87587E-09  2.75935E-09  2.64279E-09  2.52774E-09  2.41909E-09  2.34246E-09  2.37531E-09  2.37576E-09  2.30093E-09
   2.17791E-09  2.04043E-09  1.90668E-09  1.78163E-09  1.66595E-09  1.55096E-09  1.40437E-09  1.18228E-09  9.11783E-10  7.50603E-10
   6.16973E-10  4.92208E-10  3.71951E-10  2.54715E-10  1.39861E-10  2.70897E-11 -8.37350E-11 -1.92712E-10 -2.99845E-10 -4.05163E-10
  -5.08637E-10 -6.10278E-10 -7.10025E-10 -8.07883E-10 -9.03810E-10 -9.97778E-10 -1.08975E-09 -1.17969E-09 -1.26756E-09 -1.35335E-09
  -1.43701E-09 -1.51850E-09 -1.59781E-09 -1.67488E-09 -1.74969E-09 -1.82223E-09 -1.89245E-09 -1.96032E-09 -2.02582E-09 -2.08891E-09
  -2.14957E-09 -2.20778E-09 -2.26353E-09 -2.31678E-09 -2.36749E-09 -2.41566E-09 -2.46127E-09 -2.50430E-09 -2.54473E-09 -2.58254E-09
  -2.61773E-09 -2.65025E-09 -2.68011E-09 -2.70732E-09 -2.73185E-09 -2.75365E-09 -2.77278E-09 -2.78921E-09 -2.80300E-09 -2.81427E-09
  -2.82311E-09 -2.82964E-09 -2.83395E-09 -2.83615E-09 -2.83634E-09 -2.83462E-09 -2.83110E-09 -2.82588E-09 -2.81906E-09 -2.81073E-09
  -2.80100E-09 -2.78996E-09 -2.77772E-09 -2.76436E-09 -2.74998E-09 -2.73467E-09 -2.71853E-09 -2.70166E-09 -2.68412E-09 -2.66603E-09
  -2.64746E-09 -2.62850E-09 -2.60924E-09 -2.58975E-09 -2.57012E-09 -2.55043E-09 -2.53076E-09 -2.51117E-09 -2.49176E-09 -2.47257E-09
  -2.45370E-09 -2.43520E-09 -2.41715E-09 -2.39961E-09 -2.38263E-09 -2.36628E-09 -2.35062E-09 -2.33571E-09 -2.32158E-09 -2.30831E-09
  -2.29593E-09 -2.28450E-09 -2.27405E-09 -2.26458E-09 -2.25604E-09 -2.24838E-09 -2.24155E-09 -2.23551E-09 -2.23020E-09 -2.22557E-09
  -2.22159E-09 -2.21819E-09 -2.21533E-09 -2.21296E-09 -2.21104E-09 -2.20952E-09 -2.20835E-09 -2.20749E-09 -2.20689E-09 -2.20651E-09
  -2.20630E-09 -2.20622E-09 -2.20623E-09 -2.20628E-09 -2.20634E-09 -2.20635E-09 -2.20629E-09 -2.20611E-09 -2.20577E-09 -2.20523E-09
  -2.20445E-09 -2.20341E-09 -2.20205E-09 -2.20034E-09 -2.19826E-09 -2.19576E-09 -2.19282E-09 -2.18939E-09 -2.18545E-09 -2.18097E-09
  -2.17591E-09 -2.17025E-09 -2.16395E-09 -2.15700E-09 -2.14936E-09 -2.14100E-09 -2.13192E-09 -2.12206E-09 -2.11143E-09 -2.10000E-09
  -2.08777E-09 -2.07472E-09 -2.06083E-09 -2.04611E-09 -2.03053E-09 -2.01409E-09 -1.99678E-09 -1.97859E-09 -1.95950E-09 -1.93951E-09
  -1.91861E-09 -1.89678E-09 -1.87403E-09 -1.85035E-09 -1.82572E-09 -1.80013E-09 -1.77359E-09 -1.74608E-09 -1.71761E-09 -1.68815E-09
  -1.65771E-09 -1.62629E-09 -1.59387E-09 -1.56045E-09 -1.52603E-09 -1.49061E-09 -1.45417E-09 -1.41673E-09 -1.37827E-09 -1.33879E-09
  -1.29829E-09 -1.25678E-09 -1.21424E-09 -1.17069E-09 -1.12610E-09 -1.08050E-09 -1.03388E-09 -9.86230E-10 -9.37563E-10 -8.87879E-10
  -8.37177E-10 -7.85462E-10 -7.32734E-10
 Gln      Conc. = 2.39E-09
  -1.54677E-09 -1.18006E-09 -7.03358E-10 -1.43478E-10  4.07576E-10  9.23310E-10  1.39256E-09  1.76516E-09  2.00929E-09  2.39692E-09
   2.60065E-09  2.43475E-09  2.45874E-09  2.23826E-09  2.02866E-09  1.88036E-09  1.77373E-09  1.69485E-09  1.63554E-09  1.59069E-09
   1.55681E-09  1.53139E-09  1.51243E-09  1.49846E-09  1.48869E-09  1.48287E-09  1.47964E-09  1.47855E-09  1.47957E-09  1.48193E-09
   1.48520E-09  1.48906E-09  1.49321E-09  1.49737E-09  1.50126E-09  1.50461E-09  1.50714E-09  1.50855E-09  1.50842E-09  1.50644E-09
   1.50235E-09  1.49566E-09  1.48619E-09  1.47349E-09  1.45654E-09  1.43484E-09  1.40759E-09  1.37188E-09  1.32818E-09  1.27788E-09
   1.21491E-09  1.13889E-09  1.05554E-09  9.90002E-10  1.12896E-09  1.70432E-09  2.13564E-09  2.55596E-09  3.44610E-09  4.42071E-09
   5.08124E-09  5.71045E-09  6.32236E-09  6.83630E-09  7.11605E-09  7.02125E-09  6.78625E-09  6.78382E-09  6.34522E-09  5.62718E-09
   5.13647E-09  4.98525E-09  4.98745E-09  5.01032E-09  5.24148E-09  5.86316E-09  6.42738E-09  6.97332E-09  7.53502E-09  8.04408E-09
   8.51243E-09  8.88969E-09  8.90717E-09  8.89004E-09  8.97033E-09  8.65506E-09  8.24288E-09  8.05147E-09  7.71360E-09  7.39027E-09
   7.15414E-09  6.97601E-09  6.83953E-09  6.73287E-09  6.64541E-09  6.57361E-09  6.51491E-09  6.46607E-09  6.42552E-09  6.39217E-09
   6.36443E-09  6.34090E-09  6.32086E-09  6.30370E-09  6.28905E-09  6.27646E-09  6.26534E-09  6.25532E-09  6.24607E-09  6.23729E-09
   6.22870E-09  6.22006E-09  6.21116E-09  6.20177E-09  6.19169E-09  6.18075E-09  6.16878E-09  6.15560E-09  6.14106E-09  6.12500E-09
   6.10730E-09  6.08780E-09  6.06638E-09  6.04289E-09  6.01724E-09  5.98928E-09  5.95890E-09  5.92599E-09  5.89042E-09  5.85209E-09
   5.81088E-09  5.76670E-09  5.71945E-09  5.66900E-09  5.61526E-09  5.55815E-09  5.49754E-09  5.43340E-09  5.36579E-09  5.29478E-09
   5.22043E-09  5.14284E-09  5.06209E-09  4.97824E-09  4.89140E-09  4.80166E-09  4.70911E-09  4.61385E-09  4.51599E-09  4.41563E-09
   4.31289E-09  4.20788E-09  4.10075E-09  3.99164E-09  3.88070E-09  3.76813E-09  3.65417E-09  3.53909E-09  3.42329E-09  3.30729E-09
   3.19201E-09  3.07882E-09  2.97037E-09  2.87216E-09  2.79759E-09  2.78844E-09  3.03925E-09  4.50018E-09  5.79652E-09  6.29170E-09
   6.20822E-09  5.92179E-09  5.65602E-09  5.47844E-09  5.40299E-09  5.35913E-09  5.03128E-09  3.91342E-09  2.09123E-09  1.37861E-09
   1.05977E-09  8.43452E-10  6.67768E-10  5.12746E-10  3.70051E-10  2.35608E-10  1.07214E-10 -1.64609E-11 -1.36199E-10 -2.52547E-10
  -3.65830E-10 -4.76315E-10 -5.84127E-10 -6.89413E-10 -7.92235E-10 -8.92650E-10 -9.90680E-10 -1.08635E-09 -1.17968E-09 -1.27066E-09
  -1.35928E-09 -1.44555E-09 -1.52944E-09 -1.61094E-09 -1.69003E-09 -1.76671E-09 -1.84096E-09 -1.91274E-09 -1.98204E-09 -2.04884E-09
  -2.11312E-09 -2.17487E-09 -2.23406E-09 -2.29069E-09 -2.34471E-09 -2.39612E-09 -2.44490E-09 -2.49105E-09 -2.53454E-09 -2.57534E-09
  -2.61348E-09 -2.64891E-09 -2.68162E-09 -2.71163E-09 -2.73892E-09 -2.76344E-09 -2.78525E-09 -2.80431E-09 -2.82070E-09 -2.83452E-09
  -2.84589E-09 -2.85490E-09 -2.86166E-09 -2.86628E-09 -2.86886E-09 -2.86950E-09 -2.86831E-09 -2.86538E-09 -2.86082E-09 -2.85473E-09
