 LCModel (Version 6.3-1R) Copyright: S.W. Provencher.          Ref.: Magn. Reson. Med. 30:672-679 (1993).                
 onepulse 25x11_ftSpec_smooth_lcm
 26 lines in following concentration table = NCONC+1
    Conc.  %SD   /Cr    Metabolite                                         
 1.48E-11 999%   0.000 Ala                                                 
 2.32E-09  28%   0.000 Asp                                                 
    0.000 999%   0.000 Cr                                                  
 1.25E-10 422%   0.000 GABA                                                
 2.74E-09  25%   0.000 Glc                                                 
    0.000 999%   0.000 Gln                                                 
 9.60E-10  61%   0.000 Glu                                                 
    0.000 999%   0.000 Glyc                                                
    0.000 999%   0.000 GPC                                                 
    0.000 999%   0.000 GSH                                                 
 5.52E-10 194%   0.000 Ins                                                 
    0.000 999%   0.000 Lac                                                 
 7.09E-10  31%   0.000 NAAG                                                
    0.000 999%   0.000 NAA                                                 
    0.000 999%   0.000 PCh                                                 
    0.000 999%   0.000 PCr                                                 
 8.14E-10  68%   0.000 PE                                                  
    0.000 999%   0.000 Scyllo                                              
 3.18E-09  31%   0.000 Ser                                                 
    0.000 999%   0.000 Tau                                                 
    0.000 999%   0.000 GPC+PCh                                             
 7.09E-10  31%   0.000 NAA+NAAG                                            
 5.52E-10  94%   0.000 Ins+Glyc                                            
    0.000 999%   0.000 Cr+PCr                                              
 9.60E-10  61%   0.000 Glu+Gln                                             
   6 lines in following misc. output table
  FWHM = 0.123 ppm    S/N =   3                                            
  Data shift = 0.470 ppm                                                   
  Ph: -34 deg     -64.3 deg/ppm                                            
  alphaB,S = 9.9E-01,   5.0E+00                                            
    9 spline knots.   Ns = 5(1)                                            
  (12) 6 infls.   (11) 3 extrs.                                            
  363 points on ppm-axis = NY
      4.250000     4.238821     4.227641     4.216462     4.205282     4.194103     4.182923     4.171744     4.160564     4.149385
      4.138206     4.127026     4.115847     4.104667     4.093488     4.082308     4.071129     4.059949     4.048770     4.037591
      4.026411     4.015232     4.004052     3.992873     3.981693     3.970514     3.959334     3.948155     3.936975     3.925796
      3.914617     3.903437     3.892258     3.881078     3.869899     3.858719     3.847540     3.836360     3.825181     3.814002
      3.802822     3.791643     3.780463     3.769284     3.758104     3.746925     3.735745     3.724566     3.713387     3.702207
      3.691028     3.679848     3.668669     3.657489     3.646310     3.635130     3.623951     3.612772     3.601592     3.590413
      3.579233     3.568054     3.556874     3.545695     3.534515     3.523336     3.512156     3.500977     3.489798     3.478618
      3.467439     3.456259     3.445080     3.433900     3.422721     3.411541     3.400362     3.389183     3.378003     3.366824
      3.355644     3.344465     3.333285     3.322106     3.310926     3.299747     3.288568     3.277388     3.266209     3.255029
      3.243850     3.232670     3.221491     3.210311     3.199132     3.187953     3.176773     3.165594     3.154414     3.143235
      3.132055     3.120876     3.109696     3.098517     3.087337     3.076158     3.064979     3.053799     3.042620     3.031440
      3.020261     3.009081     2.997902     2.986722     2.975543     2.964364     2.953184     2.942005     2.930825     2.919646
      2.908466     2.897287     2.886107     2.874928     2.863749     2.852569     2.841390     2.830210     2.819031     2.807851
      2.796672     2.785492     2.774313     2.763134     2.751954     2.740775     2.729595     2.718416     2.707236     2.696057
      2.684877     2.673698     2.662519     2.651339     2.640160     2.628980     2.617801     2.606621     2.595442     2.584262
      2.573083     2.561903     2.550724     2.539545     2.528365     2.517186     2.506006     2.494827     2.483647     2.472468
      2.461288     2.450109     2.438930     2.427750     2.416571     2.405391     2.394212     2.383032     2.371853     2.360673
      2.349494     2.338315     2.327135     2.315956     2.304776     2.293597     2.282417     2.271238     2.260058     2.248879
      2.237700     2.226520     2.215341     2.204161     2.192982     2.181802     2.170623     2.159443     2.148264     2.137084
      2.125905     2.114726     2.103546     2.092367     2.081187     2.070008     2.058828     2.047649     2.036469     2.025290
      2.014111     2.002931     1.991752     1.980572     1.969393     1.958213     1.947034     1.935854     1.924675     1.913496
      1.902316     1.891137     1.879957     1.868778     1.857598     1.846419     1.835239     1.824060     1.812881     1.801701
      1.790522     1.779342     1.768163     1.756983     1.745804     1.734624     1.723445     1.712265     1.701086     1.689907
      1.678727     1.667548     1.656368     1.645189     1.634009     1.622830     1.611650     1.600471     1.589292     1.578112
      1.566933     1.555753     1.544574     1.533394     1.522215     1.511035     1.499856     1.488677     1.477497     1.466318
      1.455138     1.443959     1.432779     1.421600     1.410420     1.399241     1.388062     1.376882     1.365703     1.354523
      1.343344     1.332164     1.320985     1.309805     1.298626     1.287446     1.276267     1.265088     1.253908     1.242729
      1.231549     1.220370     1.209190     1.198011     1.186831     1.175652     1.164473     1.153293     1.142114     1.130934
      1.119755     1.108575     1.097396     1.086216     1.075037     1.063858     1.052678     1.041499     1.030319     1.019140
      1.007960     0.996781     0.985601     0.974422     0.963243     0.952063     0.940884     0.929704     0.918525     0.907345
      0.896166     0.884986     0.873807     0.862628     0.851448     0.840269     0.829089     0.817910     0.806730     0.795551
      0.784371     0.773192     0.762012     0.750833     0.739654     0.728474     0.717295     0.706115     0.694936     0.683756
      0.672577     0.661397     0.650218     0.639039     0.627859     0.616680     0.605500     0.594321     0.583141     0.571962
      0.560782     0.549603     0.538424     0.527244     0.516065     0.504885     0.493706     0.482526     0.471347     0.460167
      0.448988     0.437809     0.426629     0.415450     0.404270     0.393091     0.381911     0.370732     0.359552     0.348373
      0.337193     0.326014     0.314835     0.303655     0.292476     0.281296     0.270117     0.258937     0.247758     0.236578
      0.225399     0.214220     0.203040
 NY phased data points follow
   6.98326E-09  9.41102E-09  8.15229E-09  1.00238E-08  8.79639E-09  1.09338E-08  8.79882E-09  1.07880E-08  9.14816E-09  1.03410E-08
   8.34242E-09  1.02226E-08  7.09525E-09  9.53415E-09  8.93470E-09  1.08990E-08  9.00932E-09  9.95905E-09  7.47273E-09  8.76121E-09
   7.89860E-09  1.15738E-08  1.12757E-08  1.30804E-08  1.25718E-08  1.31282E-08  1.11613E-08  1.14811E-08  1.00757E-08  1.09845E-08
   9.70740E-09  1.02206E-08  8.71002E-09  1.01469E-08  8.33955E-09  9.55156E-09  7.58635E-09  8.07120E-09  6.21323E-09  7.48853E-09
   6.28084E-09  7.97951E-09  5.57549E-09  7.07127E-09  5.00234E-09  5.92883E-09  3.19787E-09  4.25012E-09  2.92709E-09  3.91185E-09
   1.26523E-09  2.48891E-09  4.38421E-09  9.26973E-09  9.66730E-09  1.11304E-08  9.67896E-09  1.03628E-08  8.50385E-09  8.74973E-09
   7.95659E-09  7.58703E-09  6.33483E-09  6.50823E-09  4.20786E-09  4.59516E-09  2.10183E-09  1.57205E-09  5.30183E-10  5.77892E-09
   9.35952E-09  1.25716E-08  1.04025E-08  1.16291E-08  1.12190E-08  1.24004E-08  1.05670E-08  1.18047E-08  1.06065E-08  1.25173E-08
   1.09738E-08  1.22070E-08  1.00452E-08  1.21564E-08  1.02142E-08  1.13330E-08  9.91939E-09  1.06677E-08  9.28506E-09  9.91737E-09
   7.97675E-09  9.48396E-09  8.49370E-09  9.50057E-09  7.62723E-09  9.06979E-09  8.89078E-09  9.40409E-09  7.81630E-09  8.25382E-09
   6.30042E-09  6.37081E-09  4.88490E-09  6.58679E-09  5.75555E-09  6.24046E-09  5.17591E-09  7.22730E-09  6.04791E-09  7.04094E-09
   6.00603E-09  7.81623E-09  6.57899E-09  7.42337E-09  6.17595E-09  6.62745E-09  4.35212E-09  5.15515E-09  4.51451E-09  5.59862E-09
   4.17603E-09  5.12909E-09  4.30191E-09  5.47470E-09  4.54863E-09  5.04139E-09  4.10630E-09  3.88342E-09  2.42448E-09  3.39243E-09
   4.11030E-09  5.68142E-09  5.03294E-09  5.41876E-09  4.41923E-09  5.84665E-09  5.84812E-09  6.80223E-09  6.23201E-09  7.24044E-09
   6.62106E-09  7.36053E-09  6.61432E-09  6.98379E-09  6.62557E-09  7.31664E-09  6.64559E-09  6.85277E-09  6.20871E-09  6.39416E-09
   5.43965E-09  6.41393E-09  5.84937E-09  6.27345E-09  5.31537E-09  4.74576E-09  4.16658E-09  4.58677E-09  1.78589E-09 -9.56060E-10
  -2.37046E-10  7.55062E-09  1.28743E-08  1.53998E-08  1.54631E-08  1.66093E-08  1.66684E-08  1.74017E-08  1.78884E-08  1.82931E-08
   1.84799E-08  1.95814E-08  1.93965E-08  1.93319E-08  1.97368E-08  2.01088E-08  1.93078E-08  1.87394E-08  1.84031E-08  1.73619E-08
   1.62691E-08  1.56911E-08  1.37462E-08  1.20571E-08  9.94682E-09  8.50324E-09  6.43164E-09  4.19098E-09  2.36487E-09  9.00798E-10
  -1.28294E-09 -2.25823E-09 -3.70653E-09 -4.78656E-09 -4.93002E-09 -5.82136E-09 -5.55116E-09 -4.62775E-09 -4.78273E-09 -4.24895E-09
  -3.61530E-09 -2.89035E-09 -2.46941E-09 -2.33710E-09 -1.80673E-09 -8.31163E-10 -1.14565E-09 -1.09700E-09 -9.39592E-10 -1.41534E-09
  -1.26588E-09 -1.59151E-09 -1.20354E-09 -1.10445E-09 -7.01142E-10 -3.60997E-10 -6.31104E-10 -2.50999E-10 -1.03926E-09 -9.86351E-10
  -6.28650E-10 -1.05306E-09 -2.80561E-10 -1.35157E-09 -9.09575E-10 -1.21422E-09 -2.59735E-10 -1.28303E-10 -5.83541E-10 -7.64112E-10
  -4.65564E-10 -6.03241E-10 -7.40351E-10 -1.39045E-09 -9.98687E-10 -1.25704E-09 -1.28553E-09 -1.04234E-09 -1.36635E-09 -1.09476E-09
  -7.39831E-10 -8.22605E-10 -5.69567E-10 -5.82363E-10 -3.62336E-10 -6.85360E-10  1.00827E-10 -9.72660E-10 -3.88946E-11 -8.77286E-10
   8.43004E-11 -1.00560E-09 -2.31224E-10 -9.20193E-10 -9.88088E-10 -1.57571E-09 -1.42066E-09 -1.84091E-09 -1.65797E-09 -2.19876E-09
  -2.10454E-09 -2.23402E-09 -1.55070E-09 -2.21549E-09 -1.66755E-09 -1.80364E-09 -7.29575E-10 -9.56077E-10 -1.63399E-10 -1.09411E-09
   9.97664E-11 -2.65483E-10  3.10371E-10 -6.82551E-10  9.62554E-11 -7.29277E-10 -3.44856E-11 -7.28075E-10  1.18158E-10 -4.68741E-10
   6.16445E-11 -7.92091E-10 -3.78898E-10 -5.83074E-10 -3.82598E-10 -4.25588E-10 -3.91179E-10 -1.13352E-09 -1.82104E-10 -8.25940E-10
  -6.25644E-10 -1.09489E-09 -3.47397E-10 -1.00574E-09 -6.96437E-10 -1.05980E-09 -4.34602E-10 -1.22211E-09 -8.71478E-10 -1.40269E-09
  -8.95032E-10 -1.23171E-09 -8.86304E-10 -1.60818E-09 -6.77581E-10 -1.41301E-09 -1.20925E-09 -1.35691E-09 -1.34100E-09 -1.52011E-09
  -1.42442E-09 -1.34080E-09 -1.48563E-09 -1.99259E-09 -1.07798E-09 -1.83952E-09 -1.73183E-09 -2.11093E-09 -1.25866E-09 -1.98334E-09
  -1.57112E-09 -1.98258E-09 -1.78045E-09 -2.33619E-09 -1.70714E-09 -1.97500E-09 -1.55573E-09 -2.42105E-09 -2.04969E-09 -2.18072E-09
  -1.84699E-09 -2.10315E-09 -2.00094E-09 -2.37694E-09 -1.93195E-09 -2.84200E-09 -2.51411E-09 -2.84550E-09 -2.00266E-09 -2.60641E-09
  -2.28904E-09 -2.89203E-09 -2.28800E-09 -2.66325E-09 -2.44003E-09 -3.11926E-09 -1.73448E-09 -3.29096E-09 -2.65485E-09 -3.36921E-09
  -2.40426E-09 -3.25170E-09 -2.53925E-09 -3.49578E-09 -2.00944E-09 -2.93832E-09 -2.90890E-09 -3.22656E-09 -2.56703E-09 -3.59470E-09
  -2.67830E-09 -3.46216E-09 -2.49688E-09
 NY points of the fit to the data follow
   6.69356E-09  8.76871E-09  1.05997E-08  9.50641E-09  9.13796E-09  1.05484E-08  1.04470E-08  1.18581E-08  1.09615E-08  9.82621E-09
   8.65048E-09  7.55857E-09  6.57130E-09  7.06659E-09  8.90050E-09  9.41441E-09  8.92906E-09  9.26358E-09  9.81458E-09  1.02253E-08
   1.01969E-08  1.06228E-08  1.11157E-08  1.26189E-08  1.30999E-08  1.19875E-08  1.13848E-08  1.05236E-08  9.98969E-09  1.01217E-08
   9.89700E-09  9.84728E-09  9.65863E-09  9.72074E-09  8.83794E-09  8.47504E-09  8.20130E-09  7.75947E-09  7.06123E-09  6.89315E-09
   6.41930E-09  5.88481E-09  5.58773E-09  5.64354E-09  5.49737E-09  6.15819E-09  6.97023E-09  6.58163E-09  5.97721E-09  7.27944E-09
   7.04340E-09  6.72898E-09  7.27910E-09  7.66376E-09  7.38973E-09  7.95078E-09  8.21267E-09  7.04298E-09  6.66270E-09  7.66510E-09
   7.05115E-09  6.62660E-09  7.40039E-09  6.92168E-09  6.74408E-09  7.48629E-09  7.75617E-09  7.44215E-09  7.57566E-09  7.86906E-09
   7.73122E-09  8.13606E-09  8.60159E-09  7.80087E-09  7.46171E-09  8.76666E-09  1.07443E-08  1.02710E-08  1.03140E-08  1.09292E-08
   1.12442E-08  1.13750E-08  1.13635E-08  1.17321E-08  1.16030E-08  1.24727E-08  1.34569E-08  1.12769E-08  1.02082E-08  9.70018E-09
   9.23654E-09  8.81361E-09  8.57131E-09  8.40055E-09  8.10539E-09  7.91221E-09  7.77749E-09  7.56891E-09  7.46605E-09  7.32446E-09
   7.17973E-09  7.06028E-09  6.96872E-09  6.90235E-09  6.80899E-09  6.72004E-09  6.65178E-09  6.59074E-09  6.52413E-09  6.46940E-09
   6.43202E-09  6.34756E-09  6.29166E-09  6.26457E-09  6.19602E-09  6.13977E-09  6.09018E-09  6.04387E-09  5.99960E-09  5.95676E-09
   5.91492E-09  5.87385E-09  5.83334E-09  5.79326E-09  5.75346E-09  5.71387E-09  5.67437E-09  5.63490E-09  5.59540E-09  5.55579E-09
   5.51603E-09  5.47607E-09  5.43587E-09  5.39540E-09  5.35462E-09  5.31350E-09  5.27203E-09  5.23017E-09  5.18793E-09  5.14528E-09
   5.10223E-09  5.05876E-09  5.01489E-09  4.97063E-09  4.92598E-09  4.88099E-09  4.83568E-09  4.79011E-09  4.74435E-09  4.69850E-09
   4.65267E-09  4.60702E-09  4.56179E-09  4.51728E-09  4.47391E-09  4.43227E-09  4.39325E-09  4.35816E-09  4.32904E-09  4.30924E-09
   4.30448E-09  4.32547E-09  4.39415E-09  4.56235E-09  4.98145E-09  6.27799E-09  1.19504E-08  1.89064E-08  1.97505E-08  1.74356E-08
   1.82585E-08  1.88587E-08  1.85203E-08  1.91281E-08  2.00486E-08  2.01879E-08  2.21907E-08  2.15183E-08  1.39425E-08  6.80713E-09
   4.96069E-09  4.20432E-09  3.78448E-09  3.50630E-09  3.29980E-09  3.13422E-09  2.99402E-09  2.87055E-09  2.75867E-09  2.65512E-09
   2.55774E-09  2.46505E-09  2.37603E-09  2.28992E-09  2.20618E-09  2.12437E-09  2.04421E-09  1.96546E-09  1.88791E-09  1.81144E-09
   1.73593E-09  1.66130E-09  1.58748E-09  1.51442E-09  1.44208E-09  1.37043E-09  1.29946E-09  1.22916E-09  1.15950E-09  1.09049E-09
   1.02213E-09  9.54431E-10  8.87393E-10  8.21029E-10  7.55335E-10  6.90334E-10  6.26047E-10  5.62477E-10  4.99637E-10  4.37551E-10
   3.76241E-10  3.15716E-10  2.55993E-10  1.97087E-10  1.39011E-10  8.18108E-11  2.54731E-11 -2.99739E-11 -8.44991E-11 -1.38098E-10
  -1.90752E-10 -2.42440E-10 -2.93145E-10 -3.42856E-10 -3.91548E-10 -4.39205E-10 -4.85817E-10 -5.31367E-10 -5.75838E-10 -6.19208E-10
  -6.61477E-10 -7.02619E-10 -7.42626E-10 -7.81509E-10 -8.19292E-10 -8.56002E-10 -8.91661E-10 -9.26291E-10 -9.59920E-10 -9.92569E-10
  -1.02426E-09 -1.05503E-09 -1.08488E-09 -1.11385E-09 -1.14196E-09 -1.16923E-09 -1.19568E-09 -1.22134E-09 -1.24622E-09 -1.27035E-09
  -1.29376E-09 -1.31645E-09 -1.33846E-09 -1.35980E-09 -1.38050E-09 -1.40057E-09 -1.42003E-09 -1.43891E-09 -1.45722E-09 -1.47497E-09
  -1.49220E-09 -1.50891E-09 -1.52514E-09 -1.54087E-09 -1.55615E-09 -1.57098E-09 -1.58539E-09 -1.59938E-09 -1.61297E-09 -1.62617E-09
  -1.63901E-09 -1.65150E-09 -1.66364E-09 -1.67544E-09 -1.68693E-09 -1.69812E-09 -1.70901E-09 -1.71962E-09 -1.72996E-09 -1.74003E-09
  -1.74985E-09 -1.75942E-09 -1.76876E-09 -1.77786E-09 -1.78675E-09 -1.79542E-09 -1.80388E-09 -1.81213E-09 -1.82019E-09 -1.82804E-09
  -1.83572E-09 -1.84320E-09 -1.85049E-09 -1.85759E-09 -1.86449E-09 -1.87116E-09 -1.87759E-09 -1.88377E-09 -1.88967E-09 -1.89529E-09
  -1.90060E-09 -1.90559E-09 -1.91024E-09 -1.91455E-09 -1.91850E-09 -1.92207E-09 -1.92524E-09 -1.92801E-09 -1.93036E-09 -1.93228E-09
  -1.93376E-09 -1.93478E-09 -1.93533E-09 -1.93539E-09 -1.93497E-09 -1.93404E-09 -1.93260E-09 -1.93063E-09 -1.92812E-09 -1.92507E-09
  -1.92146E-09 -1.91729E-09 -1.91254E-09 -1.90721E-09 -1.90129E-09 -1.89477E-09 -1.88764E-09 -1.87990E-09 -1.87153E-09 -1.86254E-09
  -1.85292E-09 -1.84265E-09 -1.83174E-09 -1.82018E-09 -1.80797E-09 -1.79509E-09 -1.78155E-09 -1.76735E-09 -1.75247E-09 -1.73692E-09
  -1.72070E-09 -1.70379E-09 -1.68621E-09 -1.66795E-09 -1.64900E-09 -1.62937E-09 -1.60906E-09 -1.58807E-09 -1.56640E-09 -1.54405E-09
  -1.52101E-09 -1.49731E-09 -1.47292E-09
 NY background values follow
     6.699E-10    6.966E-10    7.236E-10    7.508E-10    7.781E-10    8.057E-10    8.334E-10    8.614E-10    8.895E-10    9.178E-10
     9.463E-10    9.750E-10    1.004E-09    1.033E-09    1.062E-09    1.092E-09    1.121E-09    1.151E-09    1.181E-09    1.211E-09
     1.241E-09    1.272E-09    1.302E-09    1.333E-09    1.364E-09    1.395E-09    1.426E-09    1.458E-09    1.489E-09    1.521E-09
     1.552E-09    1.584E-09    1.616E-09    1.649E-09    1.681E-09    1.713E-09    1.746E-09    1.779E-09    1.812E-09    1.845E-09
     1.878E-09    1.911E-09    1.944E-09    1.978E-09    2.011E-09    2.045E-09    2.079E-09    2.113E-09    2.147E-09    2.181E-09
     2.215E-09    2.249E-09    2.284E-09    2.318E-09    2.353E-09    2.387E-09    2.422E-09    2.457E-09    2.492E-09    2.527E-09
     2.562E-09    2.597E-09    2.632E-09    2.668E-09    2.703E-09    2.738E-09    2.774E-09    2.809E-09    2.844E-09    2.880E-09
     2.915E-09    2.950E-09    2.985E-09    3.020E-09    3.055E-09    3.090E-09    3.125E-09    3.159E-09    3.194E-09    3.228E-09
     3.261E-09    3.295E-09    3.328E-09    3.361E-09    3.394E-09    3.427E-09    3.459E-09    3.490E-09    3.522E-09    3.553E-09
     3.583E-09    3.613E-09    3.643E-09    3.672E-09    3.700E-09    3.728E-09    3.756E-09    3.783E-09    3.809E-09    3.835E-09
     3.860E-09    3.884E-09    3.908E-09    3.931E-09    3.953E-09    3.974E-09    3.995E-09    4.014E-09    4.033E-09    4.051E-09
     4.069E-09    4.085E-09    4.100E-09    4.114E-09    4.128E-09    4.140E-09    4.152E-09    4.162E-09    4.171E-09    4.179E-09
     4.186E-09    4.192E-09    4.197E-09    4.201E-09    4.203E-09    4.204E-09    4.204E-09    4.203E-09    4.201E-09    4.198E-09
     4.193E-09    4.187E-09    4.181E-09    4.173E-09    4.164E-09    4.153E-09    4.142E-09    4.130E-09    4.116E-09    4.101E-09
     4.086E-09    4.069E-09    4.051E-09    4.032E-09    4.012E-09    3.991E-09    3.968E-09    3.945E-09    3.921E-09    3.895E-09
     3.869E-09    3.842E-09    3.813E-09    3.784E-09    3.754E-09    3.723E-09    3.690E-09    3.657E-09    3.623E-09    3.588E-09
     3.552E-09    3.516E-09    3.478E-09    3.439E-09    3.400E-09    3.360E-09    3.319E-09    3.277E-09    3.235E-09    3.191E-09
     3.147E-09    3.102E-09    3.057E-09    3.010E-09    2.963E-09    2.916E-09    2.867E-09    2.818E-09    2.769E-09    2.719E-09
     2.668E-09    2.617E-09    2.565E-09    2.512E-09    2.459E-09    2.406E-09    2.352E-09    2.298E-09    2.243E-09    2.188E-09
     2.133E-09    2.077E-09    2.022E-09    1.966E-09    1.909E-09    1.853E-09    1.797E-09    1.740E-09    1.683E-09    1.627E-09
     1.570E-09    1.513E-09    1.457E-09    1.400E-09    1.344E-09    1.288E-09    1.232E-09    1.176E-09    1.121E-09    1.065E-09
     1.010E-09    9.555E-10    9.012E-10    8.473E-10    7.938E-10    7.407E-10    6.881E-10    6.360E-10    5.844E-10    5.334E-10
     4.829E-10    4.330E-10    3.838E-10    3.352E-10    2.873E-10    2.401E-10    1.936E-10    1.479E-10    1.029E-10    5.875E-11
     1.539E-11   -2.712E-11   -6.878E-11   -1.096E-10   -1.494E-10   -1.884E-10   -2.264E-10   -2.635E-10   -2.996E-10   -3.347E-10
    -3.688E-10   -4.019E-10   -4.339E-10   -4.649E-10   -4.949E-10   -5.239E-10   -5.520E-10   -5.791E-10   -6.053E-10   -6.306E-10
    -6.550E-10   -6.786E-10   -7.013E-10   -7.233E-10   -7.444E-10   -7.648E-10   -7.845E-10   -8.034E-10   -8.216E-10   -8.391E-10
    -8.560E-10   -8.723E-10   -8.879E-10   -9.029E-10   -9.174E-10   -9.313E-10   -9.446E-10   -9.574E-10   -9.698E-10   -9.816E-10
    -9.930E-10   -1.004E-09   -1.014E-09   -1.024E-09   -1.034E-09   -1.043E-09   -1.052E-09   -1.061E-09   -1.069E-09   -1.077E-09
    -1.084E-09   -1.092E-09   -1.099E-09   -1.105E-09   -1.112E-09   -1.118E-09   -1.124E-09   -1.129E-09   -1.135E-09   -1.140E-09
    -1.145E-09   -1.150E-09   -1.155E-09   -1.159E-09   -1.164E-09   -1.168E-09   -1.172E-09   -1.176E-09   -1.179E-09   -1.183E-09
    -1.186E-09   -1.189E-09   -1.192E-09   -1.195E-09   -1.198E-09   -1.201E-09   -1.203E-09   -1.205E-09   -1.207E-09   -1.209E-09
    -1.211E-09   -1.212E-09   -1.213E-09   -1.213E-09   -1.214E-09   -1.213E-09   -1.213E-09   -1.212E-09   -1.211E-09   -1.210E-09
    -1.208E-09   -1.205E-09   -1.202E-09   -1.199E-09   -1.195E-09   -1.191E-09   -1.187E-09   -1.182E-09   -1.176E-09   -1.170E-09
    -1.163E-09   -1.156E-09   -1.148E-09   -1.140E-09   -1.131E-09   -1.122E-09   -1.112E-09   -1.101E-09   -1.090E-09   -1.078E-09
    -1.066E-09   -1.053E-09   -1.040E-09   -1.026E-09   -1.011E-09   -9.955E-10   -9.795E-10   -9.629E-10   -9.456E-10   -9.277E-10
    -9.092E-10   -8.900E-10   -8.702E-10   -8.497E-10   -8.285E-10   -8.068E-10   -7.843E-10   -7.613E-10   -7.375E-10   -7.132E-10
    -6.881E-10   -6.625E-10   -6.362E-10
 Ala      Conc. = 1.48E-11
   6.67234E-10  6.95207E-10  7.18962E-10  7.49610E-10  7.80973E-10  8.05722E-10  8.34239E-10  8.69776E-10  8.92944E-10  9.19102E-10
   9.55023E-10  9.80954E-10  1.00736E-09  1.03806E-09  1.06662E-09  1.09525E-09  1.12419E-09  1.15341E-09  1.18289E-09  1.21260E-09
   1.24253E-09  1.27267E-09  1.30299E-09  1.33351E-09  1.36420E-09  1.39506E-09  1.42609E-09  1.45729E-09  1.48864E-09  1.52014E-09
   1.55180E-09  1.58361E-09  1.61556E-09  1.64765E-09  1.67988E-09  1.71225E-09  1.74475E-09  1.77739E-09  1.81015E-09  1.84304E-09
   1.87605E-09  1.90918E-09  1.94244E-09  1.97581E-09  2.00929E-09  2.04289E-09  2.07660E-09  2.11041E-09  2.14433E-09  2.17835E-09
   2.21248E-09  2.24670E-09  2.28102E-09  2.31544E-09  2.34994E-09  2.38454E-09  2.41922E-09  2.45399E-09  2.48884E-09  2.52378E-09
   2.55880E-09  2.59389E-09  2.62905E-09  2.66426E-09  2.69951E-09  2.73479E-09  2.77008E-09  2.80537E-09  2.84064E-09  2.87587E-09
   2.91105E-09  2.94616E-09  2.98119E-09  3.01612E-09  3.05092E-09  3.08559E-09  3.12010E-09  3.15443E-09  3.18857E-09  3.22250E-09
   3.25619E-09  3.28962E-09  3.32277E-09  3.35564E-09  3.38818E-09  3.42037E-09  3.45221E-09  3.48365E-09  3.51468E-09  3.54528E-09
   3.57540E-09  3.60504E-09  3.63416E-09  3.66273E-09  3.69073E-09  3.71814E-09  3.74497E-09  3.77134E-09  3.79791E-09  3.82873E-09
   3.88079E-09  3.89165E-09  3.90936E-09  3.96822E-09  3.99066E-09  4.00628E-09  4.03518E-09  4.06250E-09  4.07917E-09  4.10289E-09
   4.13947E-09  4.12506E-09  4.13566E-09  4.17186E-09  4.16374E-09  4.16530E-09  4.17108E-09  4.17793E-09  4.18478E-09  4.19116E-09
   4.19680E-09  4.20158E-09  4.20540E-09  4.20820E-09  4.20996E-09  4.21065E-09  4.21025E-09  4.20875E-09  4.20615E-09  4.20244E-09
   4.19762E-09  4.19167E-09  4.18461E-09  4.17644E-09  4.16714E-09  4.15674E-09  4.14523E-09  4.13260E-09  4.11889E-09  4.10407E-09
   4.08816E-09  4.07117E-09  4.05310E-09  4.03397E-09  4.01376E-09  3.99249E-09  3.97018E-09  3.94684E-09  3.92245E-09  3.89705E-09
   3.87064E-09  3.84322E-09  3.81481E-09  3.78544E-09  3.75508E-09  3.72377E-09  3.69152E-09  3.65834E-09  3.62423E-09  3.58924E-09
   3.55336E-09  3.51663E-09  3.47908E-09  3.44080E-09  3.40195E-09  3.36320E-09  3.32831E-09  3.30472E-09  3.25442E-09  3.20855E-09
   3.16787E-09  3.12340E-09  3.07614E-09  3.03172E-09  2.98667E-09  2.93797E-09  2.89190E-09  2.84926E-09  2.77829E-09  2.72290E-09
   2.67049E-09  2.61838E-09  2.56604E-09  2.51333E-09  2.46019E-09  2.40664E-09  2.35269E-09  2.29836E-09  2.24367E-09  2.18865E-09
   2.13332E-09  2.07773E-09  2.02188E-09  1.96584E-09  1.90961E-09  1.85321E-09  1.79671E-09  1.74012E-09  1.68346E-09  1.62677E-09
   1.57010E-09  1.51344E-09  1.45685E-09  1.40035E-09  1.34397E-09  1.28775E-09  1.23170E-09  1.17588E-09  1.12029E-09  1.06497E-09
   1.00995E-09  9.55264E-10  9.00934E-10  8.46993E-10  7.93454E-10  7.40359E-10  6.87742E-10  6.35617E-10  5.84007E-10  5.32952E-10
   4.82477E-10  4.32603E-10  3.83356E-10  3.34756E-10  2.86825E-10  2.39612E-10  1.93112E-10  1.47356E-10  1.02382E-10  5.82000E-11
   1.48307E-11 -2.76995E-11 -6.93693E-11 -1.10166E-10 -1.50059E-10 -1.89032E-10 -2.27070E-10 -2.64153E-10 -3.00263E-10 -3.35375E-10
  -3.69485E-10 -4.02568E-10 -4.34612E-10 -4.65625E-10 -4.95630E-10 -5.24652E-10 -5.52712E-10 -5.79830E-10 -6.06031E-10 -6.31336E-10
  -6.55768E-10 -6.79351E-10 -7.02104E-10 -7.24050E-10 -7.45211E-10 -7.65606E-10 -7.85262E-10 -8.04195E-10 -8.22427E-10 -8.39979E-10
  -8.56870E-10 -8.73125E-10 -8.88761E-10 -9.03795E-10 -9.18252E-10 -9.32146E-10 -9.45497E-10 -9.58326E-10 -9.70651E-10 -9.82486E-10
  -9.93854E-10 -1.00477E-09 -1.01525E-09 -1.02531E-09 -1.03496E-09 -1.04423E-09 -1.05313E-09 -1.06167E-09 -1.06987E-09 -1.07774E-09
  -1.08529E-09 -1.09255E-09 -1.09951E-09 -1.10620E-09 -1.11262E-09 -1.11880E-09 -1.12472E-09 -1.13042E-09 -1.13589E-09 -1.14116E-09
  -1.14621E-09 -1.15107E-09 -1.15575E-09 -1.16024E-09 -1.16456E-09 -1.16872E-09 -1.17271E-09 -1.17654E-09 -1.18021E-09 -1.18374E-09
  -1.18713E-09 -1.19038E-09 -1.19348E-09 -1.19643E-09 -1.19923E-09 -1.20184E-09 -1.20426E-09 -1.20646E-09 -1.20844E-09 -1.21017E-09
  -1.21164E-09 -1.21283E-09 -1.21373E-09 -1.21432E-09 -1.21460E-09 -1.21453E-09 -1.21412E-09 -1.21334E-09 -1.21218E-09 -1.21063E-09
  -1.20868E-09 -1.20631E-09 -1.20351E-09 -1.20027E-09 -1.19657E-09 -1.19241E-09 -1.18778E-09 -1.18265E-09 -1.17703E-09 -1.17090E-09
  -1.16425E-09 -1.15708E-09 -1.14936E-09 -1.14111E-09 -1.13229E-09 -1.12292E-09 -1.11297E-09 -1.10245E-09 -1.09134E-09 -1.07964E-09
  -1.06735E-09 -1.05444E-09 -1.04093E-09 -1.02681E-09 -1.01206E-09 -9.96692E-10 -9.80693E-10 -9.64063E-10 -9.46796E-10 -9.28891E-10
  -9.10344E-10 -8.91154E-10 -8.71318E-10 -8.50836E-10 -8.29706E-10 -8.07927E-10 -7.85500E-10 -7.62424E-10 -7.38699E-10 -7.14328E-10
  -6.89311E-10 -6.63649E-10 -6.37345E-10
 Asp      Conc. = 2.32E-09
   1.11718E-09  1.81425E-09  1.67054E-09  2.09056E-09  1.87944E-09  2.03047E-09  2.09934E-09  2.13783E-09  1.86647E-09  1.66980E-09
   1.52781E-09  1.42267E-09  1.34232E-09  1.27076E-09  1.22048E-09  1.18122E-09  1.14837E-09  1.12063E-09  1.09695E-09  1.07644E-09
   1.05836E-09  1.04208E-09  1.02706E-09  1.01279E-09  9.98807E-10  9.84672E-10  9.69936E-10  9.54147E-10  9.36824E-10  9.17449E-10
   8.95465E-10  8.70285E-10  8.41383E-10  8.08582E-10  7.73229E-10  7.43852E-10  7.75347E-10  1.09278E-09  1.02133E-09  1.27139E-09
   1.12458E-09  9.53790E-10  8.31049E-10  1.13559E-09  1.39112E-09  2.30996E-09  3.25937E-09  3.07835E-09  2.60633E-09  4.00253E-09
   3.83145E-09  3.67360E-09  4.50716E-09  5.22052E-09  5.04526E-09  5.75275E-09  6.06714E-09  4.95663E-09  4.61913E-09  5.58374E-09
   5.05681E-09  4.67262E-09  4.81834E-09  4.49811E-09  4.20747E-09  4.29256E-09  4.47949E-09  4.33785E-09  4.22449E-09  4.14118E-09
   4.07895E-09  4.03189E-09  3.99620E-09  3.96932E-09  3.94946E-09  3.93530E-09  3.92584E-09  3.92032E-09  3.91810E-09  3.91871E-09
   3.92171E-09  3.92677E-09  3.93360E-09  3.94196E-09  3.95164E-09  3.96243E-09  3.97419E-09  3.98677E-09  4.00003E-09  4.01387E-09
   4.02817E-09  4.04284E-09  4.05780E-09  4.07297E-09  4.08826E-09  4.10361E-09  4.11895E-09  4.13423E-09  4.14938E-09  4.16435E-09
   4.17908E-09  4.19354E-09  4.20767E-09  4.22143E-09  4.23477E-09  4.24764E-09  4.26002E-09  4.27186E-09  4.28312E-09  4.29376E-09
   4.30376E-09  4.31306E-09  4.32165E-09  4.32948E-09  4.33653E-09  4.34275E-09  4.34812E-09  4.35261E-09  4.35619E-09  4.35883E-09
   4.36049E-09  4.36114E-09  4.36078E-09  4.35939E-09  4.35697E-09  4.35351E-09  4.34901E-09  4.34346E-09  4.33688E-09  4.32924E-09
   4.32057E-09  4.31085E-09  4.30008E-09  4.28827E-09  4.27542E-09  4.26154E-09  4.24661E-09  4.23067E-09  4.21370E-09  4.19571E-09
   4.17672E-09  4.15673E-09  4.13574E-09  4.11379E-09  4.09086E-09  4.06697E-09  4.04216E-09  4.01643E-09  3.98981E-09  3.96233E-09
   3.93403E-09  3.90493E-09  3.87511E-09  3.84463E-09  3.81358E-09  3.78207E-09  3.75029E-09  3.71848E-09  3.68699E-09  3.65641E-09
   3.62763E-09  3.60231E-09  3.58348E-09  3.57763E-09  3.60055E-09  3.70044E-09  4.08550E-09  6.09053E-09  6.85924E-09  5.92502E-09
   5.99197E-09  6.27191E-09  6.08766E-09  6.04581E-09  6.32225E-09  6.31434E-09  6.24613E-09  7.16187E-09  5.74871E-09  3.64711E-09
   3.12426E-09  2.89908E-09  2.76133E-09  2.65863E-09  2.57288E-09  2.49636E-09  2.42532E-09  2.35771E-09  2.29235E-09  2.22853E-09
   2.16577E-09  2.10378E-09  2.04234E-09  1.98134E-09  1.92066E-09  1.86023E-09  1.80004E-09  1.74005E-09  1.68024E-09  1.62061E-09
   1.56116E-09  1.50190E-09  1.44284E-09  1.38399E-09  1.32537E-09  1.26700E-09  1.20890E-09  1.15110E-09  1.09360E-09  1.03644E-09
   9.79630E-10  9.23213E-10  8.67204E-10  8.11632E-10  7.56506E-10  7.01865E-10  6.47737E-10  5.94140E-10  5.41091E-10  4.88630E-10
   4.36778E-10  3.85557E-10  3.34989E-10  2.85094E-10  2.35894E-10  1.87435E-10  1.39711E-10  9.27546E-11  4.66003E-11  1.25772E-12
