 LCModel (Version 6.3-1R) Copyright: S.W. Provencher.          Ref.: Magn. Reson. Med. 30:672-679 (1993).                
 onepulse 25x13_ftSpec_smooth_lcm
 26 lines in following concentration table = NCONC+1
    Conc.  %SD /Cr+PCr  Metabolite                                         
 4.70E-10  82%   0.984 Ala                                                 
 2.62E-09  35%   5.491 Asp                                                 
    0.000 999%   0.000 Cr                                                  
    0.000 999%   0.000 GABA                                                
 2.79E-10 235%   0.583 Glc                                                 
    0.000 999%   0.000 Gln                                                 
    0.000 999%   0.000 Glu                                                 
    0.000 999%   0.000 Glyc                                                
    0.000 999%   0.000 GPC                                                 
    0.000 999%   0.000 GSH                                                 
 1.44E-09  35%   3.009 Ins                                                 
 3.00E-10 124%   0.628 Lac                                                 
    0.000 999%   0.000 NAAG                                                
    0.000 999%   0.000 NAA                                                 
    0.000 999%   0.000 PCh                                                 
 4.78E-10  59%   1.000 PCr                                                 
    0.000 999%   0.000 PE                                                  
    0.000 999%   0.000 Scyllo                                              
 6.05E-09  22%  12.665 Ser                                                 
    0.000 999%   0.000 Tau                                                 
    0.000 999%   0.000 GPC+PCh                                             
    0.000 999%   0.000 NAA+NAAG                                            
 1.44E-09  35%   3.009 Ins+Glyc                                            
 4.78E-10  59%   1.000 Cr+PCr                                              
    0.000 999%   0.000 Glu+Gln                                             
   6 lines in following misc. output table
  FWHM = 0.123 ppm    S/N =   3                                            
  Data shift = 0.447 ppm                                                   
  Ph: -47 deg      91.7 deg/ppm                                            
  alphaB,S = 6.4E-01,   1.3E+01                                            
    9 spline knots.   Ns = 5(1)                                            
  (10) 6 infls.   ( 9) 5 extrs.                                            
  363 points on ppm-axis = NY
      4.250000     4.238821     4.227641     4.216462     4.205282     4.194103     4.182923     4.171744     4.160564     4.149385
      4.138206     4.127026     4.115847     4.104667     4.093488     4.082308     4.071129     4.059949     4.048770     4.037591
      4.026411     4.015232     4.004052     3.992873     3.981693     3.970514     3.959334     3.948155     3.936975     3.925796
      3.914617     3.903437     3.892258     3.881078     3.869899     3.858719     3.847540     3.836360     3.825181     3.814002
      3.802822     3.791643     3.780463     3.769284     3.758104     3.746925     3.735745     3.724566     3.713387     3.702207
      3.691028     3.679848     3.668669     3.657489     3.646310     3.635130     3.623951     3.612772     3.601592     3.590413
      3.579233     3.568054     3.556874     3.545695     3.534515     3.523336     3.512156     3.500977     3.489798     3.478618
      3.467439     3.456259     3.445080     3.433900     3.422721     3.411541     3.400362     3.389183     3.378003     3.366824
      3.355644     3.344465     3.333285     3.322106     3.310926     3.299747     3.288568     3.277388     3.266209     3.255029
      3.243850     3.232670     3.221491     3.210311     3.199132     3.187953     3.176773     3.165594     3.154414     3.143235
      3.132055     3.120876     3.109696     3.098517     3.087337     3.076158     3.064979     3.053799     3.042620     3.031440
      3.020261     3.009081     2.997902     2.986722     2.975543     2.964364     2.953184     2.942005     2.930825     2.919646
      2.908466     2.897287     2.886107     2.874928     2.863749     2.852569     2.841390     2.830210     2.819031     2.807851
      2.796672     2.785492     2.774313     2.763134     2.751954     2.740775     2.729595     2.718416     2.707236     2.696057
      2.684877     2.673698     2.662519     2.651339     2.640160     2.628980     2.617801     2.606621     2.595442     2.584262
      2.573083     2.561903     2.550724     2.539545     2.528365     2.517186     2.506006     2.494827     2.483647     2.472468
      2.461288     2.450109     2.438930     2.427750     2.416571     2.405391     2.394212     2.383032     2.371853     2.360673
      2.349494     2.338315     2.327135     2.315956     2.304776     2.293597     2.282417     2.271238     2.260058     2.248879
      2.237700     2.226520     2.215341     2.204161     2.192982     2.181802     2.170623     2.159443     2.148264     2.137084
      2.125905     2.114726     2.103546     2.092367     2.081187     2.070008     2.058828     2.047649     2.036469     2.025290
      2.014111     2.002931     1.991752     1.980572     1.969393     1.958213     1.947034     1.935854     1.924675     1.913496
      1.902316     1.891137     1.879957     1.868778     1.857598     1.846419     1.835239     1.824060     1.812881     1.801701
      1.790522     1.779342     1.768163     1.756983     1.745804     1.734624     1.723445     1.712265     1.701086     1.689907
      1.678727     1.667548     1.656368     1.645189     1.634009     1.622830     1.611650     1.600471     1.589292     1.578112
      1.566933     1.555753     1.544574     1.533394     1.522215     1.511035     1.499856     1.488677     1.477497     1.466318
      1.455138     1.443959     1.432779     1.421600     1.410420     1.399241     1.388062     1.376882     1.365703     1.354523
      1.343344     1.332164     1.320985     1.309805     1.298626     1.287446     1.276267     1.265088     1.253908     1.242729
      1.231549     1.220370     1.209190     1.198011     1.186831     1.175652     1.164473     1.153293     1.142114     1.130934
      1.119755     1.108575     1.097396     1.086216     1.075037     1.063858     1.052678     1.041499     1.030319     1.019140
      1.007960     0.996781     0.985601     0.974422     0.963243     0.952063     0.940884     0.929704     0.918525     0.907345
      0.896166     0.884986     0.873807     0.862628     0.851448     0.840269     0.829089     0.817910     0.806730     0.795551
      0.784371     0.773192     0.762012     0.750833     0.739654     0.728474     0.717295     0.706115     0.694936     0.683756
      0.672577     0.661397     0.650218     0.639039     0.627859     0.616680     0.605500     0.594321     0.583141     0.571962
      0.560782     0.549603     0.538424     0.527244     0.516065     0.504885     0.493706     0.482526     0.471347     0.460167
      0.448988     0.437809     0.426629     0.415450     0.404270     0.393091     0.381911     0.370732     0.359552     0.348373
      0.337193     0.326014     0.314835     0.303655     0.292476     0.281296     0.270117     0.258937     0.247758     0.236578
      0.225399     0.214220     0.203040
 NY phased data points follow
  -1.06541E-08 -1.04520E-08 -1.05044E-08 -1.08745E-08 -1.12766E-08 -1.12130E-08 -1.23524E-08 -1.22246E-08 -1.19067E-08 -1.24811E-08
  -1.20365E-08 -1.15691E-08 -1.13831E-08 -1.08991E-08 -1.03614E-08 -1.15946E-08 -1.27017E-08 -1.27776E-08 -1.18186E-08 -1.14588E-08
  -1.07925E-08 -1.14305E-08 -1.31115E-08 -1.47057E-08 -1.45613E-08 -1.42771E-08 -1.36883E-08 -1.20935E-08 -1.08044E-08 -9.88155E-09
  -1.00091E-08 -9.62666E-09 -9.20482E-09 -8.18638E-09 -8.32495E-09 -8.05055E-09 -7.36696E-09 -7.32301E-09 -6.41629E-09 -5.95676E-09
  -6.34134E-09 -6.06080E-09 -7.33311E-09 -6.29742E-09 -6.01239E-09 -5.75531E-09 -5.24601E-09 -4.96142E-09 -5.71616E-09 -5.90270E-09
  -6.65746E-09 -6.40231E-09 -7.37312E-09 -1.11213E-08 -1.47919E-08 -1.49567E-08 -1.29617E-08 -1.04545E-08 -8.76484E-09 -7.42112E-09
  -6.49313E-09 -6.25705E-09 -5.73828E-09 -4.73214E-09 -5.27280E-09 -4.44702E-09 -5.12128E-09 -4.97186E-09 -6.29981E-09 -7.83300E-09
  -1.27422E-08 -1.48895E-08 -1.39266E-08 -1.02177E-08 -8.59401E-09 -7.95103E-09 -7.09702E-09 -5.22315E-09 -4.98745E-09 -3.89750E-09
  -3.97397E-09 -3.45906E-09 -3.07839E-09 -1.26089E-09 -1.93596E-09 -8.49371E-10 -5.88028E-10 -3.57716E-10 -4.75124E-11  2.32949E-10
   5.43782E-10  9.20007E-10  6.22888E-10  5.79832E-10  6.53620E-10  1.26520E-09  1.27778E-09  6.96961E-10  2.09337E-09  2.98079E-09
   2.86876E-09  2.72926E-09  2.67184E-09  1.67846E-09  8.10983E-10  1.07252E-09  1.51731E-09  1.21886E-09  7.13943E-10  1.10637E-09
   1.60067E-09  1.64704E-09  1.80983E-09  2.68995E-09  3.20716E-09  3.26477E-09  3.47753E-09  3.04427E-09  2.33082E-09  1.72860E-09
   1.88328E-09  2.29584E-09  2.21143E-09  2.12551E-09  2.05062E-09  2.72653E-09  2.31116E-09  2.03265E-09  2.31853E-09  1.85549E-09
   2.74208E-10  7.35498E-11  8.62308E-10  2.43447E-09  2.42205E-09  2.38840E-09  2.02455E-09  2.21269E-09  2.70067E-09  3.44309E-09
   3.75623E-09  4.06366E-09  4.09871E-09  5.26974E-09  4.72990E-09  4.78781E-09  4.99040E-09  4.98152E-09  4.78229E-09  4.92188E-09
   4.87736E-09  4.84660E-09  4.48470E-09  4.82178E-09  4.84386E-09  4.61851E-09  4.16602E-09  3.06284E-09  2.67224E-09  3.21318E-09
   9.61676E-10 -1.16486E-09  1.21800E-09  9.49102E-09  1.43556E-08  1.63032E-08  1.58920E-08  1.68789E-08  1.70991E-08  1.75993E-08
   1.75334E-08  1.78706E-08  1.79553E-08  1.82364E-08  1.82983E-08  1.76873E-08  1.79217E-08  1.76677E-08  1.68416E-08  1.61088E-08
   1.53908E-08  1.42338E-08  1.30993E-08  1.22699E-08  9.91333E-09  8.31567E-09  6.14866E-09  4.50391E-09  2.00347E-09 -6.58247E-10
  -2.61526E-09 -4.05975E-09 -6.31067E-09 -7.82322E-09 -8.94165E-09 -9.84775E-09 -9.93134E-09 -1.06848E-08 -9.49955E-09 -9.31977E-09
  -8.71946E-09 -7.70255E-09 -6.86862E-09 -5.48609E-09 -4.50697E-09 -4.06826E-09 -2.51644E-09 -2.23505E-09 -2.40541E-09 -1.92490E-09
  -2.24345E-09 -2.53018E-09 -2.69485E-09 -2.32881E-09 -1.74331E-09 -1.51746E-09 -1.38745E-09 -1.61890E-09 -1.81724E-09 -1.06326E-09
  -1.85762E-09 -1.17828E-09 -1.56281E-09 -1.38718E-09 -1.66485E-09 -1.93193E-09 -1.45822E-09 -1.10246E-09 -9.04551E-10 -1.28205E-09
  -1.49868E-09 -5.76253E-10 -9.37597E-10 -1.43369E-09 -1.69911E-09 -1.53088E-09 -1.14738E-09 -1.59658E-09 -9.75804E-10 -1.42263E-09
  -1.07799E-09 -5.99693E-10 -7.03766E-10 -3.23498E-10 -4.63277E-10 -2.51838E-11 -8.34168E-10 -5.90832E-11 -8.23195E-10 -8.88856E-10
  -9.96274E-10 -9.63021E-10 -9.14344E-10 -1.74936E-09 -1.47280E-09 -1.76934E-09 -1.53618E-09 -1.03854E-09 -1.18074E-09 -1.02759E-09
  -7.99414E-10 -3.79900E-10 -3.39279E-10  3.99725E-10  2.05790E-10  2.17525E-10  9.46048E-10  8.91336E-10  6.19497E-10  4.02973E-10
   2.03725E-10  9.90618E-11 -2.23468E-11 -3.54230E-10 -7.24291E-10 -4.80010E-10 -3.63059E-10 -2.54511E-10 -4.24410E-10 -7.02971E-10
  -4.33647E-10 -9.57854E-10 -9.57345E-10 -6.10758E-10 -5.49338E-10 -6.38719E-10 -5.17902E-10 -4.65472E-10 -5.34178E-10 -5.50149E-10
  -1.05756E-09 -1.33437E-10 -7.68864E-10 -3.02588E-10 -6.29812E-10 -8.13966E-10  3.27839E-11 -5.14423E-10 -3.10660E-10 -7.33855E-10
  -6.52314E-10 -3.01888E-11 -1.54780E-10 -1.49139E-10 -4.56114E-11 -2.52159E-11 -5.15212E-11 -2.31871E-10  2.14492E-10  4.20707E-11
   5.08423E-10  4.38091E-12  4.57197E-10  2.18870E-10  7.22186E-10  5.84990E-10  3.89693E-10  4.63406E-10  1.20238E-09  8.24747E-10
   2.65067E-10  1.09375E-09  1.33563E-09  5.92823E-10  1.28514E-09  1.19324E-09  1.81114E-09  1.16200E-09  1.00292E-09  1.53299E-09
   1.36778E-09  1.30374E-09  1.35533E-09  1.48709E-09  1.82561E-09  2.11824E-09  1.93079E-09  2.31714E-09  2.27766E-09  2.11663E-09
   2.04502E-09  2.20950E-09  2.35316E-09  2.08615E-09  1.82453E-09  2.53301E-09  2.77051E-09  2.07418E-09  2.01936E-09  2.82402E-09
   2.74739E-09  2.71057E-09  2.53437E-09  2.66976E-09  2.95343E-09  3.19727E-09  2.66643E-09  2.90930E-09  2.86454E-09  3.03630E-09
   2.76521E-09  3.35420E-09  2.97220E-09
 NY points of the fit to the data follow
  -4.56898E-09 -9.50928E-09 -1.09414E-08 -1.05471E-08 -1.09698E-08 -1.27839E-08 -1.42384E-08 -1.34529E-08 -1.22088E-08 -1.14351E-08
  -1.16111E-08 -1.15214E-08 -1.10946E-08 -1.07315E-08 -1.09236E-08 -1.15137E-08 -1.15399E-08 -1.15325E-08 -1.24649E-08 -1.36347E-08
  -1.36831E-08 -1.29548E-08 -1.27180E-08 -1.26796E-08 -1.23598E-08 -1.19286E-08 -1.15352E-08 -1.11669E-08 -1.07466E-08 -1.02246E-08
  -9.52576E-09 -8.42768E-09 -8.24365E-09 -8.33766E-09 -8.29176E-09 -8.18785E-09 -8.08492E-09 -7.94896E-09 -7.82545E-09 -7.68715E-09
  -7.52981E-09 -7.58439E-09 -7.81172E-09 -7.62157E-09 -6.53080E-09 -6.56134E-09 -7.02264E-09 -6.97640E-09 -6.48869E-09 -6.33597E-09
  -6.14908E-09 -5.85467E-09 -6.05885E-09 -6.72032E-09 -6.98050E-09 -7.70072E-09 -7.45197E-09 -7.10811E-09 -7.18040E-09 -7.44924E-09
  -7.31916E-09 -7.23049E-09 -7.16689E-09 -6.82740E-09 -6.54452E-09 -6.56729E-09 -6.50127E-09 -6.35381E-09 -6.17948E-09 -5.99438E-09
  -5.80461E-09 -5.61291E-09 -5.42066E-09 -5.22857E-09 -5.03709E-09 -4.84643E-09 -4.65668E-09 -4.46798E-09 -4.28025E-09 -4.09359E-09
  -3.90791E-09 -3.72318E-09 -3.53934E-09 -3.35636E-09 -3.17413E-09 -2.99247E-09 -2.81133E-09 -2.63043E-09 -2.44955E-09 -2.26835E-09
  -2.08633E-09 -1.90289E-09 -1.71704E-09 -1.52737E-09 -1.33167E-09 -1.12624E-09 -9.04328E-10 -6.51886E-10 -3.33564E-10  1.64969E-10
   7.02271E-10  7.48254E-10  1.01393E-09  1.57155E-09  1.78937E-09  1.89334E-09  2.17282E-09  2.53375E-09  2.56000E-09  2.65899E-09
   2.60244E-09  2.37247E-09  2.47837E-09  2.29870E-09  1.96113E-09  1.93274E-09  1.90953E-09  1.77371E-09  1.65041E-09  1.74007E-09
   1.59160E-09  1.44391E-09  1.47167E-09  1.53424E-09  1.60509E-09  1.67698E-09  1.74736E-09  1.81514E-09  1.87987E-09  1.94135E-09
   1.99952E-09  2.05435E-09  2.10591E-09  2.15421E-09  2.19934E-09  2.24135E-09  2.28033E-09  2.31636E-09  2.34951E-09  2.37989E-09
   2.40757E-09  2.43268E-09  2.45530E-09  2.47553E-09  2.49356E-09  2.50949E-09  2.52349E-09  2.53573E-09  2.54646E-09  2.55591E-09
   2.56437E-09  2.57229E-09  2.58009E-09  2.58839E-09  2.59805E-09  2.61014E-09  2.62617E-09  2.64835E-09  2.67997E-09  2.72611E-09
   2.79524E-09  2.90226E-09  3.07620E-09  3.38118E-09  3.98858E-09  5.51896E-09  1.13217E-08  1.92034E-08  2.03167E-08  1.91571E-08
   1.85844E-08  1.83525E-08  1.79433E-08  1.79964E-08  1.89161E-08  2.01493E-08  1.95971E-08  1.35942E-08  5.63986E-09  3.51747E-09
   2.70457E-09  2.27571E-09  2.00369E-09  1.80932E-09  1.65837E-09  1.53383E-09  1.42636E-09  1.33044E-09  1.24265E-09  1.16073E-09
   1.08319E-09  1.00897E-09  9.37332E-10  8.67755E-10  7.99845E-10  7.33309E-10  6.67948E-10  6.03602E-10  5.40155E-10  4.77528E-10
   4.15663E-10  3.54516E-10  2.94069E-10  2.34311E-10  1.75233E-10  1.16842E-10  5.91485E-11  2.17915E-12 -5.40623E-11 -1.09547E-10
  -1.64246E-10 -2.18128E-10 -2.71167E-10 -3.23327E-10 -3.74585E-10 -4.24901E-10 -4.74233E-10 -5.22552E-10 -5.69829E-10 -6.16015E-10
  -6.61074E-10 -7.04973E-10 -7.47673E-10 -7.89141E-10 -8.29341E-10 -8.68220E-10 -9.05759E-10 -9.41916E-10 -9.76646E-10 -1.00992E-09
  -1.04170E-09 -1.07194E-09 -1.10063E-09 -1.12771E-09 -1.15315E-09 -1.17692E-09 -1.19899E-09 -1.21931E-09 -1.23787E-09 -1.25461E-09
  -1.26952E-09 -1.28256E-09 -1.29369E-09 -1.30294E-09 -1.31032E-09 -1.31589E-09 -1.31967E-09 -1.32170E-09 -1.32201E-09 -1.32063E-09
  -1.31761E-09 -1.31297E-09 -1.30676E-09 -1.29900E-09 -1.28973E-09 -1.27898E-09 -1.26680E-09 -1.25321E-09 -1.23825E-09 -1.22195E-09
  -1.20435E-09 -1.18548E-09 -1.16539E-09 -1.14409E-09 -1.12163E-09 -1.09804E-09 -1.07336E-09 -1.04762E-09 -1.02085E-09 -9.93087E-10
  -9.64369E-10 -9.34726E-10 -9.04195E-10 -8.72806E-10 -8.40593E-10 -8.07592E-10 -7.73836E-10 -7.39355E-10 -7.04184E-10 -6.68357E-10
  -6.31907E-10 -5.94866E-10 -5.57266E-10 -5.19137E-10 -4.80516E-10 -4.41431E-10 -4.01915E-10 -3.62000E-10 -3.21718E-10 -2.81102E-10
  -2.40175E-10 -1.98971E-10 -1.57525E-10 -1.15864E-10 -7.40179E-11 -3.20193E-11  1.01067E-11  5.23303E-11  9.46220E-11  1.36954E-10
   1.79293E-10  2.21614E-10  2.63893E-10  3.06105E-10  3.48240E-10  3.90292E-10  4.32252E-10  4.74109E-10  5.15859E-10  5.57486E-10
   5.98986E-10  6.40351E-10  6.81572E-10  7.22637E-10  7.63542E-10  8.04278E-10  8.44836E-10  8.85205E-10  9.25382E-10  9.65352E-10
   1.00511E-09  1.04465E-09  1.08397E-09  1.12304E-09  1.16187E-09  1.20045E-09  1.23877E-09  1.27683E-09  1.31460E-09  1.35209E-09
   1.38929E-09  1.42619E-09  1.46278E-09  1.49906E-09  1.53501E-09  1.57064E-09  1.60593E-09  1.64087E-09  1.67546E-09  1.70970E-09
   1.74356E-09  1.77705E-09  1.81016E-09  1.84288E-09  1.87520E-09  1.90713E-09  1.93865E-09  1.96974E-09  2.00042E-09  2.03067E-09
   2.06048E-09  2.08985E-09  2.11878E-09  2.14724E-09  2.17525E-09  2.20279E-09  2.22986E-09  2.25644E-09  2.28254E-09  2.30814E-09
   2.33326E-09  2.35786E-09  2.38197E-09
 NY background values follow
    -1.233E-08   -1.227E-08   -1.222E-08   -1.216E-08   -1.210E-08   -1.204E-08   -1.198E-08   -1.192E-08   -1.185E-08   -1.179E-08
    -1.172E-08   -1.165E-08   -1.158E-08   -1.150E-08   -1.143E-08   -1.135E-08   -1.127E-08   -1.119E-08   -1.111E-08   -1.103E-08
    -1.095E-08   -1.086E-08   -1.077E-08   -1.069E-08   -1.060E-08   -1.051E-08   -1.041E-08   -1.032E-08   -1.022E-08   -1.013E-08
    -1.003E-08   -9.928E-09   -9.827E-09   -9.725E-09   -9.621E-09   -9.516E-09   -9.409E-09   -9.302E-09   -9.193E-09   -9.083E-09
    -8.971E-09   -8.859E-09   -8.745E-09   -8.630E-09   -8.514E-09   -8.396E-09   -8.278E-09   -8.158E-09   -8.037E-09   -7.915E-09
    -7.792E-09   -7.668E-09   -7.543E-09   -7.416E-09   -7.289E-09   -7.161E-09   -7.031E-09   -6.901E-09   -6.770E-09   -6.637E-09
    -6.504E-09   -6.370E-09   -6.235E-09   -6.099E-09   -5.962E-09   -5.825E-09   -5.687E-09   -5.549E-09   -5.409E-09   -5.270E-09
    -5.130E-09   -4.990E-09   -4.849E-09   -4.709E-09   -4.568E-09   -4.427E-09   -4.286E-09   -4.145E-09   -4.005E-09   -3.864E-09
    -3.724E-09   -3.584E-09   -3.445E-09   -3.306E-09   -3.167E-09   -3.030E-09   -2.893E-09   -2.756E-09   -2.621E-09   -2.486E-09
    -2.353E-09   -2.220E-09   -2.089E-09   -1.959E-09   -1.830E-09   -1.702E-09   -1.576E-09   -1.451E-09   -1.328E-09   -1.207E-09
    -1.087E-09   -9.687E-10   -8.525E-10   -7.383E-10   -6.260E-10   -5.158E-10   -4.078E-10   -3.020E-10   -1.985E-10   -9.728E-11
     1.427E-12    9.767E-11    1.913E-10    2.823E-10    3.705E-10    4.559E-10    5.385E-10    6.181E-10    6.947E-10    7.681E-10
     8.384E-10    9.055E-10    9.693E-10    1.030E-09    1.087E-09    1.141E-09    1.192E-09    1.240E-09    1.285E-09    1.327E-09
     1.365E-09    1.401E-09    1.434E-09    1.464E-09    1.491E-09    1.515E-09    1.536E-09    1.555E-09    1.570E-09    1.583E-09
     1.594E-09    1.602E-09    1.607E-09    1.610E-09    1.610E-09    1.608E-09    1.603E-09    1.597E-09    1.587E-09    1.576E-09
     1.562E-09    1.546E-09    1.528E-09    1.508E-09    1.486E-09    1.462E-09    1.436E-09    1.408E-09    1.379E-09    1.347E-09
     1.314E-09    1.279E-09    1.243E-09    1.204E-09    1.165E-09    1.124E-09    1.081E-09    1.037E-09    9.918E-10    9.452E-10
     8.973E-10    8.483E-10    7.982E-10    7.470E-10    6.948E-10    6.416E-10    5.876E-10    5.326E-10    4.768E-10    4.203E-10
     3.631E-10    3.053E-10    2.468E-10    1.878E-10    1.283E-10    6.835E-11    7.995E-12   -5.272E-11   -1.137E-10   -1.750E-10
    -2.365E-10   -2.982E-10   -3.600E-10   -4.219E-10   -4.837E-10   -5.456E-10   -6.074E-10   -6.691E-10   -7.306E-10   -7.920E-10
    -8.530E-10   -9.138E-10   -9.742E-10   -1.034E-09   -1.094E-09   -1.153E-09   -1.212E-09   -1.270E-09   -1.327E-09   -1.384E-09
    -1.440E-09   -1.495E-09   -1.550E-09   -1.603E-09   -1.656E-09   -1.708E-09   -1.759E-09   -1.808E-09   -1.857E-09   -1.905E-09
    -1.951E-09   -1.997E-09   -2.041E-09   -2.084E-09   -2.125E-09   -2.166E-09   -2.205E-09   -2.242E-09   -2.278E-09   -2.312E-09
    -2.345E-09   -2.377E-09   -2.407E-09   -2.435E-09   -2.461E-09   -2.486E-09   -2.509E-09   -2.530E-09   -2.549E-09   -2.567E-09
    -2.582E-09   -2.596E-09   -2.608E-09   -2.618E-09   -2.626E-09   -2.632E-09   -2.636E-09   -2.638E-09   -2.639E-09   -2.638E-09
    -2.635E-09   -2.630E-09   -2.624E-09   -2.616E-09   -2.607E-09   -2.596E-09   -2.584E-09   -2.570E-09   -2.555E-09   -2.539E-09
    -2.521E-09   -2.501E-09   -2.481E-09   -2.459E-09   -2.436E-09   -2.412E-09   -2.387E-09   -2.360E-09   -2.333E-09   -2.304E-09
    -2.275E-09   -2.244E-09   -2.213E-09   -2.181E-09   -2.148E-09   -2.113E-09   -2.079E-09   -2.043E-09   -2.007E-09   -1.970E-09
    -1.932E-09   -1.894E-09   -1.855E-09   -1.815E-09   -1.775E-09   -1.734E-09   -1.693E-09   -1.652E-09   -1.610E-09   -1.568E-09
    -1.525E-09   -1.482E-09   -1.439E-09   -1.395E-09   -1.352E-09   -1.308E-09   -1.264E-09   -1.219E-09   -1.175E-09   -1.131E-09
    -1.086E-09   -1.042E-09   -9.973E-10   -9.528E-10   -9.084E-10   -8.640E-10   -8.197E-10   -7.754E-10   -7.312E-10   -6.871E-10
    -6.431E-10   -5.991E-10   -5.553E-10   -5.116E-10   -4.680E-10   -4.246E-10   -3.813E-10   -3.381E-10   -2.951E-10   -2.523E-10
    -2.096E-10   -1.671E-10   -1.248E-10   -8.276E-11   -4.089E-11    7.687E-13    4.220E-11    8.340E-11    1.244E-10    1.651E-10
     2.055E-10    2.457E-10    2.856E-10    3.252E-10    3.646E-10    4.036E-10    4.424E-10    4.808E-10    5.189E-10    5.567E-10
     5.941E-10    6.312E-10    6.680E-10    7.044E-10    7.404E-10    7.760E-10    8.113E-10    8.462E-10    8.807E-10    9.148E-10
     9.485E-10    9.818E-10    1.015E-09    1.047E-09    1.079E-09    1.111E-09    1.142E-09    1.172E-09    1.203E-09    1.232E-09
     1.262E-09    1.290E-09    1.319E-09
 Ala      Conc. = 4.70E-10
  -1.19011E-08 -1.19114E-08 -1.18649E-08 -1.18229E-08 -1.18028E-08 -1.17644E-08 -1.17543E-08 -1.17788E-08 -1.16978E-08 -1.16388E-08
  -1.16746E-08 -1.16133E-08 -1.15265E-08 -1.14847E-08 -1.14213E-08 -1.13447E-08 -1.12633E-08 -1.11796E-08 -1.10942E-08 -1.10074E-08
  -1.09193E-08 -1.08299E-08 -1.07393E-08 -1.06475E-08 -1.05544E-08 -1.04601E-08 -1.03644E-08 -1.02675E-08 -1.01694E-08 -1.00700E-08
  -9.96930E-09 -9.86731E-09 -9.76405E-09 -9.65959E-09 -9.55382E-09 -9.44679E-09 -9.33854E-09 -9.22905E-09 -9.11832E-09 -9.00640E-09
  -8.89322E-09 -8.77884E-09 -8.66328E-09 -8.54657E-09 -8.42863E-09 -8.30958E-09 -8.18935E-09 -8.06796E-09 -7.94550E-09 -7.82191E-09
  -7.69721E-09 -7.57137E-09 -7.44450E-09 -7.31657E-09 -7.18754E-09 -7.05744E-09 -6.92633E-09 -6.79423E-09 -6.66106E-09 -6.52699E-09
  -6.39186E-09 -6.25576E-09 -6.11871E-09 -5.98079E-09 -5.84203E-09 -5.70249E-09 -5.56223E-09 -5.42131E-09 -5.27976E-09 -5.13764E-09
  -4.99503E-09 -4.85195E-09 -4.70848E-09 -4.56462E-09 -4.42046E-09 -4.27605E-09 -4.13137E-09 -3.98656E-09 -3.84154E-09 -3.69644E-09
  -3.55121E-09 -3.40589E-09 -3.26046E-09 -3.11495E-09 -2.96933E-09 -2.82348E-09 -2.67740E-09 -2.53090E-09 -2.38382E-09 -2.23590E-09
  -2.08672E-09 -1.93579E-09 -1.78221E-09 -1.62468E-09 -1.46117E-09 -1.28814E-09 -1.09906E-09 -8.80196E-10 -5.96595E-10 -1.34506E-10
   3.63782E-10  3.66850E-10  5.83484E-10  1.08179E-09  1.22134E-09  1.20544E-09  1.24675E-09  1.33705E-09  1.38258E-09  1.31160E-09
   1.03616E-09  7.97254E-10  9.62422E-10  8.00624E-10  4.55512E-10  4.39937E-10  4.92804E-10  5.63683E-10  6.39400E-10  7.15240E-10
   7.89471E-10  8.60982E-10  9.29385E-10  9.94481E-10  1.05621E-09  1.11455E-09  1.16952E-09  1.22115E-09  1.26947E-09  1.31453E-09
   1.35638E-09  1.39505E-09  1.43062E-09  1.46311E-09  1.49258E-09  1.51908E-09  1.54266E-09  1.56336E-09  1.58123E-09  1.59633E-09
   1.60870E-09  1.61839E-09  1.62545E-09  1.62990E-09  1.63185E-09  1.63131E-09  1.62834E-09  1.62299E-09  1.61533E-09  1.60538E-09
   1.59321E-09  1.57890E-09  1.56251E-09  1.54406E-09  1.52370E-09  1.50148E-09  1.47748E-09  1.45184E-09  1.42474E-09  1.39636E-09
   1.36708E-09  1.33741E-09  1.30838E-09  1.28208E-09  1.26391E-09  1.27202E-09  1.40167E-09  1.75977E-09  1.79565E-09  1.69917E-09
   1.62411E-09  1.57184E-09  1.50623E-09  1.45270E-09  1.43663E-09  1.44319E-09  1.40607E-09  1.16704E-09  7.16095E-10  5.60223E-10
   4.68390E-10  3.93964E-10  3.26103E-10  2.61204E-10  1.97752E-10  1.35034E-10  7.26798E-11  1.04882E-11 -5.16443E-11 -1.13770E-10
  -1.75917E-10 -2.38076E-10 -3.00243E-10 -3.62388E-10 -4.24489E-10 -4.86517E-10 -5.48427E-10 -6.10185E-10 -6.71756E-10 -7.33091E-10
  -7.94151E-10 -8.54901E-10 -9.15290E-10 -9.75272E-10 -1.03481E-09 -1.09386E-09 -1.15238E-09 -1.21031E-09 -1.26762E-09 -1.32427E-09
  -1.38021E-09 -1.43539E-09 -1.48978E-09 -1.54332E-09 -1.59599E-09 -1.64773E-09 -1.69849E-09 -1.74825E-09 -1.79695E-09 -1.84456E-09
  -1.89102E-09 -1.93631E-09 -1.98038E-09 -2.02319E-09 -2.06471E-09 -2.10487E-09 -2.14366E-09 -2.18104E-09 -2.21695E-09 -2.25137E-09
  -2.28425E-09 -2.31557E-09 -2.34527E-09 -2.37334E-09 -2.39972E-09 -2.42439E-09 -2.44730E-09 -2.46844E-09 -2.48775E-09 -2.50521E-09
  -2.52078E-09 -2.53444E-09 -2.54615E-09 -2.55592E-09 -2.56379E-09 -2.56978E-09 -2.57395E-09 -2.57631E-09 -2.57691E-09 -2.57577E-09
  -2.57294E-09 -2.56845E-09 -2.56233E-09 -2.55461E-09 -2.54534E-09 -2.53455E-09 -2.52226E-09 -2.50853E-09 -2.49338E-09 -2.47684E-09
  -2.45895E-09 -2.43975E-09 -2.41927E-09 -2.39754E-09 -2.37461E-09 -2.35050E-09 -2.32525E-09 -2.29889E-09 -2.27146E-09 -2.24299E-09
  -2.21352E-09 -2.18308E-09 -2.15170E-09 -2.11942E-09 -2.08628E-09 -2.05230E-09 -2.01752E-09 -1.98197E-09 -1.94569E-09 -1.90871E-09
  -1.87106E-09 -1.83277E-09 -1.79389E-09 -1.75443E-09 -1.71444E-09 -1.67394E-09 -1.63296E-09 -1.59155E-09 -1.54973E-09 -1.50753E-09
  -1.46498E-09 -1.42211E-09 -1.37895E-09 -1.33554E-09 -1.29191E-09 -1.24808E-09 -1.20409E-09 -1.15996E-09 -1.11571E-09 -1.07140E-09
  -1.02703E-09 -9.82641E-10 -9.38258E-10 -8.93901E-10 -8.49584E-10 -8.05312E-10 -7.61093E-10 -7.16940E-10 -6.72856E-10 -6.28858E-10
  -5.84950E-10 -5.41140E-10 -4.97437E-10 -4.53855E-10 -4.10395E-10 -3.67070E-10 -3.23886E-10 -2.80855E-10 -2.37982E-10 -1.95281E-10
  -1.52754E-10 -1.10411E-10 -6.82650E-11 -2.63214E-11  1.54117E-11  5.69291E-11  9.82218E-11  1.39277E-10  1.80086E-10  2.20650E-10
   2.60950E-10  3.00979E-10  3.40742E-10  3.80219E-10  4.19398E-10  4.58286E-10  4.96871E-10  5.35135E-10  5.73079E-10  6.10699E-10
   6.47975E-10  6.84916E-10  7.21499E-10  7.57727E-10  7.93585E-10  8.29073E-10  8.64184E-10  8.98906E-10  9.33233E-10  9.67164E-10
   1.00068E-09  1.03379E-09  1.06648E-09  1.09873E-09  1.13056E-09  1.16195E-09  1.19288E-09  1.22336E-09  1.25339E-09  1.28294E-09
   1.31203E-09  1.34064E-09  1.36877E-09
 Asp      Conc. = 2.62E-09
  -1.10531E-08 -1.14763E-08 -1.16057E-08 -1.17497E-08 -1.19722E-08 -1.20322E-08 -1.23128E-08 -1.22330E-08 -1.20931E-08 -1.19491E-08
  -1.18092E-08 -1.16729E-08 -1.15376E-08 -1.14048E-08 -1.12783E-08 -1.11538E-08 -1.10302E-08 -1.09067E-08 -1.07828E-08 -1.06580E-08
  -1.05318E-08 -1.04038E-08 -1.02735E-08 -1.01405E-08 -1.00041E-08 -9.86375E-09 -9.71866E-09 -9.56795E-09 -9.41045E-09 -9.24450E-09
  -9.06800E-09 -8.87766E-09 -8.66856E-09 -8.43233E-09 -8.15301E-09 -7.80036E-09 -7.48850E-09 -7.26063E-09 -7.17471E-09 -7.11145E-09
  -6.89772E-09 -6.46462E-09 -5.65633E-09 -5.18294E-09 -4.25638E-09 -4.45550E-09 -5.06468E-09 -5.14827E-09 -4.77630E-09 -4.72821E-09
  -4.63704E-09 -4.43100E-09 -4.71741E-09 -5.45584E-09 -5.78844E-09 -6.57709E-09 -6.39324E-09 -6.11113E-09 -6.24234E-09 -6.56754E-09
  -6.49149E-09 -6.45474E-09 -6.44112E-09 -6.14981E-09 -5.91348E-09 -5.98128E-09 -5.95889E-09 -5.85378E-09 -5.72059E-09 -5.57554E-09
  -5.42481E-09 -5.27121E-09 -5.11621E-09 -4.96060E-09 -4.80488E-09 -4.64936E-09 -4.49420E-09 -4.33961E-09 -4.18560E-09 -4.03234E-09
  -3.87983E-09 -3.72815E-09 -3.57734E-09 -3.42749E-09 -3.27863E-09 -3.13077E-09 -2.98403E-09 -2.83840E-09 -2.69395E-09 -2.55075E-09
  -2.40882E-09 -2.26828E-09 -2.12914E-09 -1.99143E-09 -1.85526E-09 -1.72066E-09 -1.58770E-09 -1.45643E-09 -1.32694E-09 -1.19929E-09
  -1.07350E-09 -9.49677E-10 -8.27879E-10 -7.08147E-10 -5.90575E-10 -4.75227E-10 -3.62136E-10 -2.51424E-10 -1.43142E-10 -3.73144E-11
   6.59270E-11  1.66594E-10  2.64527E-10  3.59739E-10  4.52094E-10  5.41562E-10  6.28055E-10  7.11507E-10  7.91861E-10  8.68961E-10
   9.42952E-10  1.01358E-09  1.08088E-09  1.14486E-09  1.20556E-09  1.26301E-09  1.31726E-09  1.36834E-09  1.41628E-09  1.46111E-09
   1.50289E-09  1.54164E-09  1.57742E-09  1.61024E-09  1.64018E-09  1.66724E-09  1.69151E-09  1.71300E-09  1.73177E-09  1.74787E-09
   1.76134E-09  1.77224E-09  1.78063E-09  1.78653E-09  1.79006E-09  1.79125E-09  1.79017E-09  1.78688E-09  1.78150E-09  1.77408E-09
   1.76474E-09  1.75362E-09  1.74084E-09  1.72657E-09  1.71106E-09  1.69458E-09  1.67749E-09  1.66036E-09  1.64397E-09  1.62950E-09
   1.61898E-09  1.61586E-09  1.62697E-09  1.66736E-09  1.77782E-09  2.10857E-09  3.50368E-09  5.13165E-09  5.26714E-09  4.96938E-09
   4.81729E-09  4.72407E-09  4.59499E-09  4.58101E-09  4.75981E-09  4.99347E-09  4.77351E-09  3.26939E-09  1.53707E-09  1.06499E-09
   8.48741E-10  7.10952E-10  6.05781E-10  5.16823E-10  4.36869E-10  3.62323E-10  2.91206E-10  2.22355E-10  1.55061E-10  8.88702E-11
   2.34816E-11 -4.12878E-11 -1.05574E-10 -1.69449E-10 -2.32968E-10 -2.96163E-10 -3.59036E-10 -4.21588E-10 -4.83810E-10 -5.45680E-10
  -6.07177E-10 -6.68280E-10 -7.28952E-10 -7.89158E-10 -8.48871E-10 -9.08050E-10 -9.66660E-10 -1.02465E-09 -1.08200E-09 -1.13866E-09
  -1.19459E-09 -1.24975E-09 -1.30410E-09 -1.35759E-09 -1.41019E-09 -1.46186E-09 -1.51255E-09 -1.56222E-09 -1.61084E-09 -1.65836E-09
  -1.70473E-09 -1.74993E-09 -1.79390E-09 -1.83662E-09 -1.87805E-09 -1.91812E-09 -1.95683E-09 -1.99412E-09 -2.02994E-09 -2.06428E-09
