 LCModel (Version 6.3-1R) Copyright: S.W. Provencher.          Ref.: Magn. Reson. Med. 30:672-679 (1993).                
 onepulse 25x19_ftSpec_smooth_lcm
 26 lines in following concentration table = NCONC+1
    Conc.  %SD   /Cr    Metabolite                                         
 1.29E-10 251%   0.000 Ala                                                 
 9.44E-10  67%   0.000 Asp                                                 
    0.000 999%   0.000 Cr                                                  
 3.23E-09  14%   0.000 GABA                                                
 2.02E-09  23%   0.000 Glc                                                 
    0.000 999%   0.000 Gln                                                 
    0.000 999%   0.000 Glu                                                 
    0.000 999%   0.000 Glyc                                                
 1.58E-10  54%   0.000 GPC                                                 
 1.92E-10 151%   0.000 GSH                                                 
 4.04E-10  89%   0.000 Ins                                                 
    0.000 999%   0.000 Lac                                                 
    0.000 999%   0.000 NAAG                                                
 9.92E-10  24%   0.000 NAA                                                 
    0.000 999%   0.000 PCh                                                 
    0.000 999%   0.000 PCr                                                 
    0.000 999%   0.000 PE                                                  
    0.000 999%   0.000 Scyllo                                              
    0.000 999%   0.000 Ser                                                 
    0.000 999%   0.000 Tau                                                 
 1.58E-10  54%   0.000 GPC+PCh                                             
 9.92E-10  24%   0.000 NAA+NAAG                                            
 4.04E-10  89%   0.000 Ins+Glyc                                            
    0.000 999%   0.000 Cr+PCr                                              
    0.000 999%   0.000 Glu+Gln                                             
   6 lines in following misc. output table
  FWHM = 0.078 ppm    S/N =   3                                            
  Data shift = 0.335 ppm                                                   
  Ph:  64 deg      25.8 deg/ppm                                            
  alphaB,S = 1.8E-01,   7.7E+01                                            
   16 spline knots.   Ns = 5(1)                                            
  ( 9) 2 infls.   ( 5) 1 extrs.                                            
  363 points on ppm-axis = NY
      4.250000     4.238821     4.227641     4.216462     4.205282     4.194103     4.182923     4.171744     4.160564     4.149385
      4.138206     4.127026     4.115847     4.104667     4.093488     4.082308     4.071129     4.059949     4.048770     4.037591
      4.026411     4.015232     4.004052     3.992873     3.981693     3.970514     3.959334     3.948155     3.936975     3.925796
      3.914617     3.903437     3.892258     3.881078     3.869899     3.858719     3.847540     3.836360     3.825181     3.814002
      3.802822     3.791643     3.780463     3.769284     3.758104     3.746925     3.735745     3.724566     3.713387     3.702207
      3.691028     3.679848     3.668669     3.657489     3.646310     3.635130     3.623951     3.612772     3.601592     3.590413
      3.579233     3.568054     3.556874     3.545695     3.534515     3.523336     3.512156     3.500977     3.489798     3.478618
      3.467439     3.456259     3.445080     3.433900     3.422721     3.411541     3.400362     3.389183     3.378003     3.366824
      3.355644     3.344465     3.333285     3.322106     3.310926     3.299747     3.288568     3.277388     3.266209     3.255029
      3.243850     3.232670     3.221491     3.210311     3.199132     3.187953     3.176773     3.165594     3.154414     3.143235
      3.132055     3.120876     3.109696     3.098517     3.087337     3.076158     3.064979     3.053799     3.042620     3.031440
      3.020261     3.009081     2.997902     2.986722     2.975543     2.964364     2.953184     2.942005     2.930825     2.919646
      2.908466     2.897287     2.886107     2.874928     2.863749     2.852569     2.841390     2.830210     2.819031     2.807851
      2.796672     2.785492     2.774313     2.763134     2.751954     2.740775     2.729595     2.718416     2.707236     2.696057
      2.684877     2.673698     2.662519     2.651339     2.640160     2.628980     2.617801     2.606621     2.595442     2.584262
      2.573083     2.561903     2.550724     2.539545     2.528365     2.517186     2.506006     2.494827     2.483647     2.472468
      2.461288     2.450109     2.438930     2.427750     2.416571     2.405391     2.394212     2.383032     2.371853     2.360673
      2.349494     2.338315     2.327135     2.315956     2.304776     2.293597     2.282417     2.271238     2.260058     2.248879
      2.237700     2.226520     2.215341     2.204161     2.192982     2.181802     2.170623     2.159443     2.148264     2.137084
      2.125905     2.114726     2.103546     2.092367     2.081187     2.070008     2.058828     2.047649     2.036469     2.025290
      2.014111     2.002931     1.991752     1.980572     1.969393     1.958213     1.947034     1.935854     1.924675     1.913496
      1.902316     1.891137     1.879957     1.868778     1.857598     1.846419     1.835239     1.824060     1.812881     1.801701
      1.790522     1.779342     1.768163     1.756983     1.745804     1.734624     1.723445     1.712265     1.701086     1.689907
      1.678727     1.667548     1.656368     1.645189     1.634009     1.622830     1.611650     1.600471     1.589292     1.578112
      1.566933     1.555753     1.544574     1.533394     1.522215     1.511035     1.499856     1.488677     1.477497     1.466318
      1.455138     1.443959     1.432779     1.421600     1.410420     1.399241     1.388062     1.376882     1.365703     1.354523
      1.343344     1.332164     1.320985     1.309805     1.298626     1.287446     1.276267     1.265088     1.253908     1.242729
      1.231549     1.220370     1.209190     1.198011     1.186831     1.175652     1.164473     1.153293     1.142114     1.130934
      1.119755     1.108575     1.097396     1.086216     1.075037     1.063858     1.052678     1.041499     1.030319     1.019140
      1.007960     0.996781     0.985601     0.974422     0.963243     0.952063     0.940884     0.929704     0.918525     0.907345
      0.896166     0.884986     0.873807     0.862628     0.851448     0.840269     0.829089     0.817910     0.806730     0.795551
      0.784371     0.773192     0.762012     0.750833     0.739654     0.728474     0.717295     0.706115     0.694936     0.683756
      0.672577     0.661397     0.650218     0.639039     0.627859     0.616680     0.605500     0.594321     0.583141     0.571962
      0.560782     0.549603     0.538424     0.527244     0.516065     0.504885     0.493706     0.482526     0.471347     0.460167
      0.448988     0.437809     0.426629     0.415450     0.404270     0.393091     0.381911     0.370732     0.359552     0.348373
      0.337193     0.326014     0.314835     0.303655     0.292476     0.281296     0.270117     0.258937     0.247758     0.236578
      0.225399     0.214220     0.203040
 NY phased data points follow
   1.44200E-08  1.61603E-08  1.69445E-08  1.76637E-08  1.62196E-08  1.51624E-08  1.41927E-08  1.32115E-08  1.21988E-08  1.27777E-08
   1.09337E-08  1.16875E-08  1.17402E-08  1.17594E-08  1.20805E-08  1.22371E-08  1.25598E-08  1.22622E-08  1.20458E-08  1.21539E-08
   1.16417E-08  1.19113E-08  1.15039E-08  1.07662E-08  1.10394E-08  1.10874E-08  1.14510E-08  1.26052E-08  1.14887E-08  1.12772E-08
   1.09944E-08  1.15844E-08  1.21260E-08  1.31163E-08  1.39865E-08  1.35487E-08  1.26448E-08  1.11640E-08  1.01359E-08  9.16630E-09
   9.07570E-09  8.50286E-09  7.90734E-09  7.97574E-09  7.42628E-09  7.73040E-09  7.26174E-09  7.03116E-09  6.25464E-09  6.37230E-09
   6.14068E-09  6.69870E-09  6.53688E-09  7.11114E-09  6.83800E-09  6.25805E-09  5.91675E-09  6.19216E-09  5.44658E-09  6.46180E-09
   6.18633E-09  7.05921E-09  7.99708E-09  1.00711E-08  1.13872E-08  1.39151E-08  1.40034E-08  1.26493E-08  1.10434E-08  9.71493E-09
   8.49916E-09  7.87918E-09  6.54969E-09  6.43537E-09  6.13614E-09  5.51406E-09  5.33299E-09  6.26867E-09  6.46907E-09  8.45196E-09
   1.09628E-08  1.32599E-08  1.41769E-08  1.37990E-08  1.28756E-08  1.17409E-08  1.05568E-08  9.81791E-09  9.60270E-09  8.89001E-09
   8.56328E-09  7.86859E-09  7.00456E-09  6.78164E-09  6.78894E-09  6.43262E-09  5.38881E-09  6.02347E-09  4.99178E-09  5.09340E-09
   5.27806E-09  4.48820E-09  5.48174E-09  4.70993E-09  5.15249E-09  4.69918E-09  4.75572E-09  4.72256E-09  4.12043E-09  4.16261E-09
   3.71886E-09  3.34528E-09  2.57534E-09  3.01405E-09  3.76102E-09  4.07479E-09  3.78504E-09  3.38915E-09  4.22179E-09  4.15520E-09
   5.00014E-09  4.69198E-09  4.42695E-09  3.46824E-09  3.88908E-09  2.62315E-09  3.13667E-09  1.53230E-09  2.25447E-09  2.44151E-09
   3.54398E-09  2.92424E-09  2.85368E-09  2.87759E-09  3.38183E-09  2.65961E-09  2.27253E-09  2.48587E-09  2.75702E-09  2.25906E-09
   3.10632E-09  3.53401E-09  3.93830E-09  4.12434E-09  4.42781E-09  4.17080E-09  4.53884E-09  5.10307E-09  5.41562E-09  5.25445E-09
   5.46897E-09  5.00493E-09  5.20173E-09  5.39551E-09  4.55774E-09  5.06628E-09  4.96858E-09  4.91790E-09  5.85617E-09  5.63513E-09
   5.84652E-09  5.65043E-09  5.54967E-09  5.96325E-09  5.15416E-09  5.13280E-09  5.74054E-09  6.39358E-09  7.68651E-09  9.36351E-09
   1.15246E-08  1.35667E-08  1.63248E-08  1.66265E-08  1.56810E-08  1.34471E-08  1.11834E-08  9.51886E-09  7.52338E-09  6.98327E-09
   6.04609E-09  5.26666E-09  4.45540E-09  3.53629E-09  3.15151E-09  1.83819E-09  1.48818E-09  5.42324E-10  3.22336E-10 -7.58202E-10
  -1.98127E-09 -2.56483E-09 -3.47576E-09 -5.59130E-09 -5.58369E-09 -7.98540E-09 -9.04475E-09 -1.07978E-08 -1.25240E-08 -1.40043E-08
  -1.56191E-08 -1.68353E-08 -1.77947E-08 -1.88878E-08 -1.94748E-08 -1.94982E-08 -1.94146E-08 -1.83682E-08 -1.78564E-08 -1.66317E-08
  -1.46615E-08 -1.26789E-08 -9.94542E-09 -8.90091E-09 -6.69186E-09 -4.66143E-09 -3.15684E-09 -1.49566E-09 -4.35895E-11  5.31601E-10
   9.32248E-10  7.75429E-10  4.48770E-10  5.65231E-10 -3.45817E-10 -1.19345E-09 -8.48982E-10 -7.34247E-10 -9.57543E-10 -3.04388E-10
   1.02230E-10 -1.34072E-10 -3.75418E-10  2.68396E-10 -3.81641E-10 -4.68440E-10 -1.07360E-09 -9.35584E-10 -8.33875E-10 -2.05491E-11
  -5.16813E-10 -2.01769E-10  1.31895E-10  5.93179E-12  1.52898E-10  8.59749E-11 -4.23746E-10 -9.41968E-10 -4.39032E-10 -4.37089E-10
  -5.80175E-10 -4.27494E-10  1.51838E-10  1.32796E-12  5.17953E-11  6.48244E-10  2.73336E-10  3.71328E-10  5.07260E-10  7.09783E-10
  -3.76908E-10 -3.08496E-10 -1.33334E-10 -9.35241E-10 -9.09256E-10 -7.50926E-10 -3.46286E-10 -7.85975E-10 -1.71199E-10 -2.34360E-10
   6.60703E-10  6.00460E-10  1.08441E-09  7.68498E-10  6.62944E-10  9.21411E-10  9.14148E-10  4.15300E-10  7.18983E-10  8.08934E-10
   3.21305E-10  6.38544E-11  1.97829E-11  5.47305E-10 -2.58982E-10 -1.96586E-10 -1.55126E-10 -1.55359E-10  2.41545E-10 -5.02729E-10
   5.79544E-10  6.25331E-11  1.16158E-10  5.34078E-11  7.78420E-10 -3.02711E-10  7.54058E-10  5.86632E-10 -1.77721E-10 -5.52395E-10
   2.54056E-10 -4.19023E-10 -2.32527E-10  3.38117E-10 -1.44809E-10  5.18254E-10 -3.16030E-10 -1.71782E-10  1.11309E-10  6.18574E-11
  -1.27800E-10  2.37559E-10 -9.03445E-11  3.07733E-10 -5.59609E-11  7.58407E-10  3.82981E-10  1.35589E-10  8.37768E-11  3.31863E-10
   9.19391E-10  6.97780E-11  3.52878E-12  3.50915E-10  7.78016E-10  5.28444E-10  3.85651E-10  7.90327E-11  3.72290E-10 -1.14368E-10
   1.38387E-09  6.98560E-10 -3.65216E-11  5.01531E-10  6.73022E-10  7.02840E-10  7.64713E-10  3.70707E-10  6.43184E-10  8.59713E-10
   7.83600E-11  6.18814E-10  1.00435E-09  1.10915E-09 -1.03721E-10  9.96019E-10  6.74249E-10  5.06710E-10  5.01093E-10  4.92659E-10
   1.03100E-09  8.78544E-10  8.02102E-10  8.48254E-10  7.71190E-10  1.14182E-09  1.17879E-09  9.87078E-10  1.03632E-09  1.44301E-09
   1.10599E-09  8.50232E-10  1.16920E-09
 NY points of the fit to the data follow
   1.55781E-08  1.56262E-08  1.55726E-08  1.53856E-08  1.49778E-08  1.43452E-08  1.35333E-08  1.27764E-08  1.21660E-08  1.17647E-08
   1.17999E-08  1.19579E-08  1.21456E-08  1.23822E-08  1.26439E-08  1.29420E-08  1.32594E-08  1.34459E-08  1.33686E-08  1.31307E-08
   1.28025E-08  1.22534E-08  1.15452E-08  1.09898E-08  1.05781E-08  1.04200E-08  1.06892E-08  1.12556E-08  1.18290E-08  1.22670E-08
   1.23227E-08  1.22062E-08  1.21711E-08  1.19854E-08  1.18077E-08  1.20704E-08  1.22139E-08  1.19526E-08  1.13168E-08  1.04696E-08
   9.57623E-09  8.64705E-09  7.44736E-09  6.63043E-09  6.42426E-09  6.13395E-09  5.91421E-09  6.05216E-09  6.35415E-09  6.65031E-09
   6.90494E-09  7.04792E-09  7.08676E-09  7.04534E-09  7.00403E-09  7.03708E-09  7.17979E-09  7.35210E-09  7.42646E-09  7.49343E-09
   7.75450E-09  8.25704E-09  8.91346E-09  9.59528E-09  1.04681E-08  1.12295E-08  1.16478E-08  1.18495E-08  1.18215E-08  1.14613E-08
   1.07510E-08  9.74396E-09  8.69756E-09  7.87945E-09  7.05288E-09  6.40941E-09  6.66398E-09  7.54740E-09  8.47241E-09  9.60213E-09
   1.07268E-08  1.16107E-08  1.22339E-08  1.24697E-08  1.21440E-08  1.13344E-08  1.01534E-08  8.76272E-09  7.70586E-09  7.62650E-09
   7.62275E-09  7.57104E-09  7.28134E-09  6.72966E-09  6.33631E-09  5.98822E-09  5.42405E-09  5.02575E-09  4.83188E-09  4.63942E-09
   4.53404E-09  4.51028E-09  4.52981E-09  4.58567E-09  4.64771E-09  4.69473E-09  4.71539E-09  4.70337E-09  4.65408E-09  4.56932E-09
   4.46601E-09  4.37731E-09  4.31418E-09  4.22652E-09  4.15621E-09  4.13864E-09  4.13247E-09  4.12881E-09  4.12511E-09  4.12039E-09
   4.11419E-09  4.10628E-09  4.09646E-09  4.08464E-09  4.07072E-09  4.05466E-09  4.03638E-09  4.01587E-09  3.99310E-09  3.96801E-09
   3.94056E-09  3.91073E-09  3.87849E-09  3.84378E-09  3.80662E-09  3.76692E-09  3.72470E-09  3.67990E-09  3.63251E-09  3.58252E-09
   3.52987E-09  3.47459E-09  3.41664E-09  3.35600E-09  3.29267E-09  3.22667E-09  3.15803E-09  3.08675E-09  3.01290E-09  2.93654E-09
   2.85778E-09  2.77676E-09  2.69368E-09  2.60880E-09  2.52249E-09  2.43522E-09  2.34767E-09  2.26077E-09  2.17589E-09  2.09499E-09
   2.02111E-09  1.95910E-09  1.91725E-09  1.91100E-09  1.97362E-09  2.19472E-09  2.93154E-09  4.87531E-09  7.56986E-09  1.04606E-08
   1.32347E-08  1.56024E-08  1.71876E-08  1.76152E-08  1.66410E-08  1.41544E-08  1.02295E-08  5.43128E-09  1.30026E-09 -4.58799E-10
  -1.13823E-09 -1.54193E-09 -1.84162E-09 -2.09051E-09 -2.31013E-09 -2.51067E-09 -2.69736E-09 -2.87304E-09 -3.03926E-09 -3.19686E-09
  -3.34623E-09 -3.48752E-09 -3.62066E-09 -3.74547E-09 -3.86171E-09 -3.96908E-09 -4.06736E-09 -4.15673E-09 -4.23743E-09 -4.30969E-09
  -4.37373E-09 -4.42975E-09 -4.47796E-09 -4.51854E-09 -4.55169E-09 -4.57759E-09 -4.59644E-09 -4.60842E-09 -4.61370E-09 -4.61248E-09
  -4.60492E-09 -4.59122E-09 -4.57154E-09 -4.54608E-09 -4.51501E-09 -4.47851E-09 -4.43675E-09 -4.38992E-09 -4.33819E-09 -4.28175E-09
  -4.22076E-09 -4.15541E-09 -4.08588E-09 -4.01235E-09 -3.93501E-09 -3.85412E-09 -3.76993E-09 -3.68269E-09 -3.59266E-09 -3.50009E-09
  -3.40524E-09 -3.30835E-09 -3.20968E-09 -3.10949E-09 -3.00800E-09 -2.90550E-09 -2.80221E-09 -2.69841E-09 -2.59430E-09 -2.49017E-09
  -2.38627E-09 -2.28281E-09 -2.18007E-09 -2.07828E-09 -1.97768E-09 -1.87852E-09 -1.78104E-09 -1.68547E-09 -1.59207E-09 -1.50108E-09
  -1.41271E-09 -1.32723E-09 -1.24473E-09 -1.16515E-09 -1.08845E-09 -1.01455E-09 -9.43388E-10 -8.74909E-10 -8.09040E-10 -7.45723E-10
  -6.84898E-10 -6.26489E-10 -5.70448E-10 -5.16699E-10 -4.65190E-10 -4.15853E-10 -3.68608E-10 -3.23428E-10 -2.80232E-10 -2.38949E-10
  -1.99519E-10 -1.61895E-10 -1.25995E-10 -9.17656E-11 -5.91571E-11 -2.80780E-11  1.49980E-12  2.96576E-11  5.64474E-11  8.19410E-11
   1.06183E-10  1.29220E-10  1.51099E-10  1.71870E-10  1.91568E-10  2.10249E-10  2.27949E-10  2.44722E-10  2.60608E-10  2.75649E-10
   2.89894E-10  3.03386E-10  3.16168E-10  3.28286E-10  3.39780E-10  3.50696E-10  3.61076E-10  3.70965E-10  3.80398E-10  3.89432E-10
   3.98093E-10  4.06433E-10  4.14492E-10  4.22305E-10  4.29920E-10  4.37376E-10  4.44710E-10  4.51969E-10  4.59163E-10  4.66303E-10
   4.73396E-10  4.80449E-10  4.87468E-10  4.94462E-10  5.01436E-10  5.08398E-10  5.15355E-10  5.22313E-10  5.29278E-10  5.36260E-10
   5.43260E-10  5.50290E-10  5.57354E-10  5.64456E-10  5.71606E-10  5.78808E-10  5.86069E-10  5.93395E-10  6.00791E-10  6.08262E-10
   6.15818E-10  6.23461E-10  6.31198E-10  6.39034E-10  6.46974E-10  6.55024E-10  6.63177E-10  6.71424E-10  6.79758E-10  6.88171E-10
   6.96653E-10  7.05197E-10  7.13793E-10  7.22436E-10  7.31114E-10  7.39822E-10  7.48550E-10  7.57290E-10  7.66036E-10  7.74778E-10
   7.83511E-10  7.92224E-10  8.00912E-10  8.09566E-10  8.18180E-10  8.26745E-10  8.35254E-10  8.43702E-10  8.52079E-10  8.60379E-10
   8.68595E-10  8.76720E-10  8.84748E-10
 NY background values follow
     4.344E-09    4.343E-09    4.342E-09    4.340E-09    4.338E-09    4.337E-09    4.335E-09    4.333E-09    4.331E-09    4.329E-09
     4.326E-09    4.324E-09    4.322E-09    4.319E-09    4.317E-09    4.315E-09    4.312E-09    4.309E-09    4.307E-09    4.304E-09
     4.301E-09    4.299E-09    4.296E-09    4.293E-09    4.291E-09    4.288E-09    4.285E-09    4.282E-09    4.280E-09    4.277E-09
     4.275E-09    4.272E-09    4.269E-09    4.267E-09    4.265E-09    4.262E-09    4.260E-09    4.258E-09    4.256E-09    4.255E-09
     4.253E-09    4.251E-09    4.250E-09    4.249E-09    4.248E-09    4.248E-09    4.247E-09    4.247E-09    4.247E-09    4.248E-09
     4.249E-09    4.250E-09    4.251E-09    4.252E-09    4.255E-09    4.257E-09    4.260E-09    4.263E-09    4.266E-09    4.270E-09
     4.274E-09    4.278E-09    4.283E-09    4.287E-09    4.292E-09    4.297E-09    4.302E-09    4.307E-09    4.313E-09    4.318E-09
     4.323E-09    4.328E-09    4.333E-09    4.338E-09    4.343E-09    4.348E-09    4.352E-09    4.356E-09    4.360E-09    4.364E-09
     4.367E-09    4.369E-09    4.372E-09    4.374E-09    4.375E-09    4.376E-09    4.376E-09    4.376E-09    4.375E-09    4.374E-09
     4.372E-09    4.369E-09    4.366E-09    4.362E-09    4.357E-09    4.352E-09    4.346E-09    4.339E-09    4.332E-09    4.324E-09
     4.315E-09    4.305E-09    4.294E-09    4.283E-09    4.270E-09    4.257E-09    4.243E-09    4.228E-09    4.212E-09    4.195E-09
     4.177E-09    4.158E-09    4.138E-09    4.117E-09    4.095E-09    4.072E-09    4.048E-09    4.022E-09    3.995E-09    3.967E-09
     3.937E-09    3.906E-09    3.873E-09    3.839E-09    3.803E-09    3.765E-09    3.725E-09    3.684E-09    3.640E-09    3.595E-09
     3.548E-09    3.498E-09    3.447E-09    3.393E-09    3.337E-09    3.278E-09    3.218E-09    3.155E-09    3.089E-09    3.021E-09
     2.950E-09    2.877E-09    2.801E-09    2.722E-09    2.640E-09    2.555E-09    2.467E-09    2.377E-09    2.283E-09    2.186E-09
     2.085E-09    1.982E-09    1.874E-09    1.764E-09    1.650E-09    1.532E-09    1.411E-09    1.286E-09    1.157E-09    1.025E-09
     8.883E-10    7.478E-10    6.034E-10    4.548E-10    3.021E-10    1.451E-10   -1.606E-11   -1.816E-10   -3.515E-10   -5.253E-10
    -7.027E-10   -8.830E-10   -1.066E-09   -1.251E-09   -1.438E-09   -1.625E-09   -1.814E-09   -2.002E-09   -2.191E-09   -2.378E-09
    -2.564E-09   -2.749E-09   -2.931E-09   -3.111E-09   -3.287E-09   -3.460E-09   -3.629E-09   -3.793E-09   -3.952E-09   -4.105E-09
    -4.253E-09   -4.394E-09   -4.528E-09   -4.655E-09   -4.773E-09   -4.884E-09   -4.985E-09   -5.079E-09   -5.163E-09   -5.239E-09
    -5.308E-09   -5.368E-09   -5.420E-09   -5.465E-09   -5.502E-09   -5.533E-09   -5.556E-09   -5.572E-09   -5.581E-09   -5.584E-09
    -5.581E-09   -5.571E-09   -5.555E-09   -5.534E-09   -5.506E-09   -5.474E-09   -5.436E-09   -5.392E-09   -5.344E-09   -5.291E-09
    -5.234E-09   -5.172E-09   -5.106E-09   -5.035E-09   -4.961E-09   -4.883E-09   -4.802E-09   -4.718E-09   -4.631E-09   -4.541E-09
    -4.449E-09   -4.355E-09   -4.259E-09   -4.161E-09   -4.062E-09   -3.962E-09   -3.861E-09   -3.760E-09   -3.658E-09   -3.556E-09
    -3.455E-09   -3.353E-09   -3.253E-09   -3.153E-09   -3.054E-09   -2.957E-09   -2.861E-09   -2.768E-09   -2.676E-09   -2.587E-09
    -2.500E-09   -2.416E-09   -2.335E-09   -2.257E-09   -2.182E-09   -2.109E-09   -2.040E-09   -1.972E-09   -1.908E-09   -1.846E-09
    -1.786E-09   -1.729E-09   -1.674E-09   -1.621E-09   -1.570E-09   -1.522E-09   -1.476E-09   -1.431E-09   -1.389E-09   -1.348E-09
    -1.310E-09   -1.273E-09   -1.238E-09   -1.204E-09   -1.172E-09   -1.141E-09   -1.112E-09   -1.084E-09   -1.058E-09   -1.033E-09
    -1.009E-09   -9.861E-10   -9.644E-10   -9.438E-10   -9.243E-10   -9.057E-10   -8.880E-10   -8.713E-10   -8.554E-10   -8.403E-10
    -8.260E-10   -8.124E-10   -7.994E-10   -7.871E-10   -7.754E-10   -7.642E-10   -7.535E-10   -7.433E-10   -7.335E-10   -7.240E-10
    -7.149E-10   -7.061E-10   -6.976E-10   -6.892E-10   -6.810E-10   -6.729E-10   -6.650E-10   -6.570E-10   -6.491E-10   -6.412E-10
    -6.334E-10   -6.255E-10   -6.176E-10   -6.098E-10   -6.019E-10   -5.940E-10   -5.861E-10   -5.781E-10   -5.701E-10   -5.621E-10
    -5.540E-10   -5.458E-10   -5.376E-10   -5.294E-10   -5.210E-10   -5.126E-10   -5.040E-10   -4.954E-10   -4.867E-10   -4.778E-10
    -4.689E-10   -4.599E-10   -4.507E-10   -4.414E-10   -4.319E-10   -4.224E-10   -4.127E-10   -4.028E-10   -3.929E-10   -3.828E-10
    -3.727E-10   -3.625E-10   -3.521E-10   -3.418E-10   -3.313E-10   -3.208E-10   -3.103E-10   -2.997E-10   -2.891E-10   -2.784E-10
    -2.678E-10   -2.571E-10   -2.464E-10   -2.358E-10   -2.252E-10   -2.145E-10   -2.040E-10   -1.934E-10   -1.829E-10   -1.725E-10
    -1.621E-10   -1.518E-10   -1.415E-10
 Ala      Conc. = 1.29E-10
   4.46262E-09  4.46219E-09  4.45836E-09  4.45173E-09  4.44242E-09  4.43028E-09  4.41343E-09  4.39576E-09  4.38405E-09  4.36885E-09
   4.35035E-09  4.34178E-09  4.33553E-09  4.32710E-09  4.32216E-09  4.31943E-09  4.31738E-09  4.31556E-09  4.31380E-09  4.31202E-09
   4.31020E-09  4.30833E-09  4.30641E-09  4.30444E-09  4.30241E-09  4.30037E-09  4.29830E-09  4.29621E-09  4.29410E-09  4.29200E-09
   4.28992E-09  4.28785E-09  4.28584E-09  4.28387E-09  4.28198E-09  4.28017E-09  4.27846E-09  4.27686E-09  4.27538E-09  4.27404E-09
   4.27285E-09  4.27183E-09  4.27099E-09  4.27033E-09  4.26990E-09  4.26967E-09  4.26968E-09  4.26996E-09  4.27047E-09  4.27127E-09
   4.27237E-09  4.27376E-09  4.27548E-09  4.27753E-09  4.27997E-09  4.28272E-09  4.28584E-09  4.28936E-09  4.29323E-09  4.29741E-09
   4.30190E-09  4.30666E-09  4.31165E-09  4.31685E-09  4.32223E-09  4.32778E-09  4.33343E-09  4.33919E-09  4.34501E-09  4.35086E-09
   4.35672E-09  4.36256E-09  4.36834E-09  4.37405E-09  4.37964E-09  4.38511E-09  4.39041E-09  4.39550E-09  4.40038E-09  4.40504E-09
   4.40940E-09  4.41349E-09  4.41725E-09  4.42071E-09  4.42380E-09  4.42657E-09  4.42901E-09  4.43114E-09  4.43301E-09  4.43464E-09
   4.43614E-09  4.43756E-09  4.43908E-09  4.44089E-09  4.44330E-09  4.44682E-09  4.45231E-09  4.46134E-09  4.47734E-09  4.50976E-09
   4.56607E-09  4.62120E-09  4.67748E-09  4.74663E-09  4.80805E-09  4.84582E-09  4.85143E-09  4.82044E-09  4.74963E-09  4.64179E-09
   4.51474E-09  4.40194E-09  4.31445E-09  4.20230E-09  4.10740E-09  4.06530E-09  4.03494E-09  4.00749E-09  3.98039E-09  3.95266E-09
   3.92384E-09  3.89366E-09  3.86198E-09  3.82868E-09  3.79367E-09  3.75690E-09  3.71828E-09  3.67777E-09  3.63532E-09  3.59085E-09
   3.54431E-09  3.49566E-09  3.44483E-09  3.39176E-09  3.33642E-09  3.27873E-09  3.21865E-09  3.15612E-09  3.09108E-09  3.02348E-09
   2.95323E-09  2.88032E-09  2.80467E-09  2.72621E-09  2.64487E-09  2.56060E-09  2.47333E-09  2.38300E-09  2.28953E-09  2.19288E-09
   2.09298E-09  1.98976E-09  1.88317E-09  1.77315E-09  1.65964E-09  1.54258E-09  1.42193E-09  1.29763E-09  1.16965E-09  1.03795E-09
   9.02521E-10  7.63377E-10  6.20620E-10  4.74403E-10  3.25262E-10  1.74660E-10  2.88426E-11 -9.82210E-11 -2.19564E-10 -3.43013E-10
  -4.72443E-10 -6.12124E-10 -7.68080E-10 -9.46003E-10 -1.14900E-09 -1.37813E-09 -1.63146E-09 -1.89816E-09 -2.14952E-09 -2.35356E-09
  -2.54580E-09 -2.73320E-09 -2.91712E-09 -3.09772E-09 -3.27478E-09 -3.44801E-09 -3.61699E-09 -3.78129E-09 -3.94046E-09 -4.09404E-09
  -4.24158E-09 -4.38262E-09 -4.51669E-09 -4.64329E-09 -4.76199E-09 -4.87230E-09 -4.97390E-09 -5.06686E-09 -5.15136E-09 -5.22758E-09
  -5.29567E-09 -5.35582E-09 -5.40819E-09 -5.45296E-09 -5.49031E-09 -5.52040E-09 -5.54341E-09 -5.55952E-09 -5.56890E-09 -5.57173E-09
  -5.56818E-09 -5.55842E-09 -5.54264E-09 -5.52102E-09 -5.49372E-09 -5.46093E-09 -5.42283E-09 -5.37958E-09 -5.33138E-09 -5.27839E-09
  -5.22080E-09 -5.15878E-09 -5.09251E-09 -5.02218E-09 -4.94798E-09 -4.87016E-09 -4.78897E-09 -4.70468E-09 -4.61753E-09 -4.52778E-09
  -4.43568E-09 -4.34148E-09 -4.24545E-09 -4.14783E-09 -4.04886E-09 -3.94881E-09 -3.84792E-09 -3.74645E-09 -3.64462E-09 -3.54272E-09
  -3.44098E-09 -3.33964E-09 -3.23895E-09 -3.13917E-09 -3.04051E-09 -2.94325E-09 -2.84760E-09 -2.75383E-09 -2.66217E-09 -2.57286E-09
  -2.48612E-09 -2.40222E-09 -2.32125E-09 -2.24316E-09 -2.16788E-09 -2.09537E-09 -2.02555E-09 -1.95836E-09 -1.89373E-09 -1.83161E-09
  -1.77193E-09 -1.71462E-09 -1.65964E-09 -1.60690E-09 -1.55636E-09 -1.50794E-09 -1.46157E-09 -1.41723E-09 -1.37482E-09 -1.33428E-09
  -1.29556E-09 -1.25860E-09 -1.22331E-09 -1.18966E-09 -1.15759E-09 -1.12701E-09 -1.09789E-09 -1.07014E-09 -1.04373E-09 -1.01857E-09
  -9.94622E-10 -9.71842E-10 -9.50180E-10 -9.29588E-10 -9.10031E-10 -8.91453E-10 -8.73817E-10 -8.57073E-10 -8.41177E-10 -8.26089E-10
  -8.11761E-10 -7.98151E-10 -7.85213E-10 -7.72904E-10 -7.61184E-10 -7.50005E-10 -7.39328E-10 -7.29108E-10 -7.19308E-10 -7.09873E-10
  -7.00778E-10 -6.91968E-10 -6.83406E-10 -6.75057E-10 -6.66873E-10 -6.58814E-10 -6.50843E-10 -6.42917E-10 -6.35022E-10 -6.27149E-10
  -6.19291E-10 -6.11442E-10 -6.03595E-10 -5.95741E-10 -5.87875E-10 -5.79991E-10 -5.72082E-10 -5.64140E-10 -5.56161E-10 -5.48135E-10
  -5.40061E-10 -5.31927E-10 -5.23729E-10 -5.15464E-10 -5.07121E-10 -4.98698E-10 -4.90186E-10 -4.81580E-10 -4.72875E-10 -4.64067E-10
  -4.55145E-10 -4.46109E-10 -4.36950E-10 -4.27665E-10 -4.18248E-10 -4.08693E-10 -3.99008E-10 -3.89201E-10 -3.79280E-10 -3.69254E-10
  -3.59132E-10 -3.48922E-10 -3.38632E-10 -3.28271E-10 -3.17848E-10 -3.07368E-10 -2.96844E-10 -2.86280E-10 -2.75687E-10 -2.65071E-10
  -2.54439E-10 -2.43802E-10 -2.33165E-10 -2.22537E-10 -2.11925E-10 -2.01337E-10 -1.90780E-10 -1.80261E-10 -1.69788E-10 -1.59368E-10
  -1.49008E-10 -1.38716E-10 -1.28497E-10
 Asp      Conc. = 9.44E-10
   5.08536E-09  4.89282E-09  4.73625E-09  4.57709E-09  4.45209E-09  4.33564E-09  4.26294E-09  4.24115E-09  4.25555E-09  4.27539E-09
   4.29534E-09  4.31427E-09  4.33193E-09  4.34798E-09  4.36195E-09  4.37462E-09  4.38646E-09  4.39768E-09  4.40848E-09  4.41899E-09
   4.42937E-09  4.43975E-09  4.45029E-09  4.46110E-09  4.47236E-09  4.48426E-09  4.49697E-09  4.51072E-09  4.52583E-09  4.54264E-09
   4.56163E-09  4.58344E-09  4.60897E-09  4.63960E-09  4.67751E-09  4.72671E-09  4.79385E-09  4.86527E-09  4.94277E-09  5.00690E-09
   5.05387E-09  5.08867E-09  5.12876E-09  5.19088E-09  5.28465E-09  5.41443E-09  5.52775E-09  5.62462E-09  5.74633E-09  5.82836E-09
   5.84461E-09  5.74696E-09  5.53983E-09  5.25087E-09  4.95302E-09  4.72919E-09  4.60800E-09  4.56890E-09  4.47293E-09  4.36406E-09
   4.34031E-09  4.33452E-09  4.32854E-09  4.33874E-09  4.33252E-09  4.29301E-09  4.24584E-09  4.23204E-09  4.23056E-09  4.23436E-09
   4.24075E-09  4.24847E-09  4.25687E-09  4.26555E-09  4.27427E-09  4.28289E-09  4.29128E-09  4.29936E-09  4.30706E-09  4.31436E-09
   4.32116E-09  4.32749E-09  4.33324E-09  4.33844E-09  4.34301E-09  4.34697E-09  4.35027E-09  4.35292E-09  4.35489E-09  4.35618E-09
   4.35678E-09  4.35666E-09  4.35582E-09  4.35423E-09  4.35191E-09  4.34880E-09  4.34492E-09  4.34025E-09  4.33476E-09  4.32846E-09
   4.32131E-09  4.31331E-09  4.30444E-09  4.29468E-09  4.28403E-09  4.27245E-09  4.25995E-09  4.24649E-09  4.23208E-09  4.21668E-09
   4.20030E-09  4.18290E-09  4.16445E-09  4.14494E-09  4.12432E-09  4.10251E-09  4.07948E-09  4.05515E-09  4.02948E-09  4.00240E-09
   3.97386E-09  3.94381E-09  3.91219E-09  3.87895E-09  3.84402E-09  3.80735E-09  3.76888E-09  3.72856E-09  3.68634E-09  3.64215E-09
   3.59594E-09  3.54764E-09  3.49722E-09  3.44460E-09  3.38974E-09  3.33256E-09  3.27304E-09  3.21111E-09  3.14671E-09  3.07979E-09
   3.01026E-09  2.93812E-09  2.86328E-09  2.78570E-09  2.70529E-09  2.62201E-09  2.53581E-09  2.44663E-09  2.35441E-09  2.25911E-09
   2.16069E-09  2.05909E-09  1.95430E-09  1.84628E-09  1.73503E-09  1.62054E-09  1.50285E-09  1.38200E-09  1.25811E-09  1.13134E-09
   1.00200E-09  8.70603E-10  7.38056E-10  6.05997E-10  4.78001E-10  3.63147E-10  2.94548E-10  3.92462E-10  5.72297E-10  7.67535E-10
   9.44484E-10  1.07041E-09  1.09931E-09  9.84856E-10  6.99224E-10  2.30026E-10 -4.16620E-10 -1.17936E-09 -1.87265E-09 -2.21523E-09
  -2.45159E-09 -2.65870E-09 -2.85301E-09 -3.03963E-09 -3.22038E-09 -3.39591E-09 -3.56636E-09 -3.73159E-09 -3.89133E-09 -4.04523E-09
  -4.19291E-09 -4.33397E-09 -4.46797E-09 -4.59444E-09 -4.71296E-09 -4.82306E-09 -4.92442E-09 -5.01714E-09 -5.10138E-09 -5.17732E-09
  -5.24514E-09 -5.30501E-09 -5.35711E-09 -5.40161E-09 -5.43868E-09 -5.46850E-09 -5.49125E-09 -5.50710E-09 -5.51622E-09 -5.51880E-09
  -5.51500E-09 -5.50500E-09 -5.48899E-09 -5.46713E-09 -5.43960E-09 -5.40659E-09 -5.36827E-09 -5.32481E-09 -5.27640E-09 -5.22321E-09
  -5.16542E-09 -5.10321E-09 -5.03675E-09 -4.96623E-09 -4.89185E-09 -4.81386E-09 -4.73250E-09 -4.64804E-09 -4.56073E-09 -4.47082E-09
