 LCModel (Version 6.3-1R) Copyright: S.W. Provencher.          Ref.: Magn. Reson. Med. 30:672-679 (1993).                
 onepulse 25x18_ftSpec_smooth_lcm
 26 lines in following concentration table = NCONC+1
    Conc.  %SD /Cr+PCr  Metabolite                                         
    0.000 999%   0.000 Ala                                                 
 4.39E-10 163%   2.306 Asp                                                 
    0.000 999%   0.000 Cr                                                  
 1.84E-09  48%   9.651 GABA                                                
 1.73E-09  31%   9.082 Glc                                                 
    0.000 999%   0.000 Gln                                                 
 8.72E-10  86%   4.579 Glu                                                 
    0.000 999%   0.000 Glyc                                                
    0.000 999%   0.000 GPC                                                 
    0.000 999%   0.000 GSH                                                 
 4.41E-10  80%   2.314 Ins                                                 
    0.000 999%   0.000 Lac                                                 
    0.000 999%   0.000 NAAG                                                
 9.26E-10  31%   4.865 NAA                                                 
 1.97E-10  43%   1.033 PCh                                                 
 1.90E-10 220%   1.000 PCr                                                 
    0.000 999%   0.000 PE                                                  
    0.000 999%   0.000 Scyllo                                              
 1.29E-09  63%   6.770 Ser                                                 
    0.000 999%   0.000 Tau                                                 
 1.97E-10  43%   1.033 GPC+PCh                                             
 9.26E-10  31%   4.865 NAA+NAAG                                            
 4.41E-10  80%   2.314 Ins+Glyc                                            
 1.90E-10 220%   1.000 Cr+PCr                                              
 8.72E-10  86%   4.579 Glu+Gln                                             
   6 lines in following misc. output table
  FWHM = 0.089 ppm    S/N =   3                                            
  Data shift = 0.335 ppm                                                   
  Ph:  18 deg       6.0 deg/ppm                                            
  alphaB,S = 1.9E-01,   3.7E+01                                            
   16 spline knots.   Ns = 5(1)                                            
  ( 7) 2 infls.   ( 3) 1 extrs.                                            
  363 points on ppm-axis = NY
      4.250000     4.238821     4.227641     4.216462     4.205282     4.194103     4.182923     4.171744     4.160564     4.149385
      4.138206     4.127026     4.115847     4.104667     4.093488     4.082308     4.071129     4.059949     4.048770     4.037591
      4.026411     4.015232     4.004052     3.992873     3.981693     3.970514     3.959334     3.948155     3.936975     3.925796
      3.914617     3.903437     3.892258     3.881078     3.869899     3.858719     3.847540     3.836360     3.825181     3.814002
      3.802822     3.791643     3.780463     3.769284     3.758104     3.746925     3.735745     3.724566     3.713387     3.702207
      3.691028     3.679848     3.668669     3.657489     3.646310     3.635130     3.623951     3.612772     3.601592     3.590413
      3.579233     3.568054     3.556874     3.545695     3.534515     3.523336     3.512156     3.500977     3.489798     3.478618
      3.467439     3.456259     3.445080     3.433900     3.422721     3.411541     3.400362     3.389183     3.378003     3.366824
      3.355644     3.344465     3.333285     3.322106     3.310926     3.299747     3.288568     3.277388     3.266209     3.255029
      3.243850     3.232670     3.221491     3.210311     3.199132     3.187953     3.176773     3.165594     3.154414     3.143235
      3.132055     3.120876     3.109696     3.098517     3.087337     3.076158     3.064979     3.053799     3.042620     3.031440
      3.020261     3.009081     2.997902     2.986722     2.975543     2.964364     2.953184     2.942005     2.930825     2.919646
      2.908466     2.897287     2.886107     2.874928     2.863749     2.852569     2.841390     2.830210     2.819031     2.807851
      2.796672     2.785492     2.774313     2.763134     2.751954     2.740775     2.729595     2.718416     2.707236     2.696057
      2.684877     2.673698     2.662519     2.651339     2.640160     2.628980     2.617801     2.606621     2.595442     2.584262
      2.573083     2.561903     2.550724     2.539545     2.528365     2.517186     2.506006     2.494827     2.483647     2.472468
      2.461288     2.450109     2.438930     2.427750     2.416571     2.405391     2.394212     2.383032     2.371853     2.360673
      2.349494     2.338315     2.327135     2.315956     2.304776     2.293597     2.282417     2.271238     2.260058     2.248879
      2.237700     2.226520     2.215341     2.204161     2.192982     2.181802     2.170623     2.159443     2.148264     2.137084
      2.125905     2.114726     2.103546     2.092367     2.081187     2.070008     2.058828     2.047649     2.036469     2.025290
      2.014111     2.002931     1.991752     1.980572     1.969393     1.958213     1.947034     1.935854     1.924675     1.913496
      1.902316     1.891137     1.879957     1.868778     1.857598     1.846419     1.835239     1.824060     1.812881     1.801701
      1.790522     1.779342     1.768163     1.756983     1.745804     1.734624     1.723445     1.712265     1.701086     1.689907
      1.678727     1.667548     1.656368     1.645189     1.634009     1.622830     1.611650     1.600471     1.589292     1.578112
      1.566933     1.555753     1.544574     1.533394     1.522215     1.511035     1.499856     1.488677     1.477497     1.466318
      1.455138     1.443959     1.432779     1.421600     1.410420     1.399241     1.388062     1.376882     1.365703     1.354523
      1.343344     1.332164     1.320985     1.309805     1.298626     1.287446     1.276267     1.265088     1.253908     1.242729
      1.231549     1.220370     1.209190     1.198011     1.186831     1.175652     1.164473     1.153293     1.142114     1.130934
      1.119755     1.108575     1.097396     1.086216     1.075037     1.063858     1.052678     1.041499     1.030319     1.019140
      1.007960     0.996781     0.985601     0.974422     0.963243     0.952063     0.940884     0.929704     0.918525     0.907345
      0.896166     0.884986     0.873807     0.862628     0.851448     0.840269     0.829089     0.817910     0.806730     0.795551
      0.784371     0.773192     0.762012     0.750833     0.739654     0.728474     0.717295     0.706115     0.694936     0.683756
      0.672577     0.661397     0.650218     0.639039     0.627859     0.616680     0.605500     0.594321     0.583141     0.571962
      0.560782     0.549603     0.538424     0.527244     0.516065     0.504885     0.493706     0.482526     0.471347     0.460167
      0.448988     0.437809     0.426629     0.415450     0.404270     0.393091     0.381911     0.370732     0.359552     0.348373
      0.337193     0.326014     0.314835     0.303655     0.292476     0.281296     0.270117     0.258937     0.247758     0.236578
      0.225399     0.214220     0.203040
 NY phased data points follow
   1.27918E-08  1.44898E-08  1.57289E-08  1.62642E-08  1.51962E-08  1.40206E-08  1.33487E-08  1.20082E-08  1.15219E-08  1.17088E-08
   1.05179E-08  1.08905E-08  1.06830E-08  1.08975E-08  1.16855E-08  1.10411E-08  1.18382E-08  1.14684E-08  1.11848E-08  1.12816E-08
   1.11074E-08  1.13677E-08  1.10483E-08  9.90379E-09  1.04995E-08  1.04928E-08  1.12616E-08  1.19206E-08  1.10681E-08  1.07143E-08
   1.06473E-08  1.10216E-08  1.16200E-08  1.28091E-08  1.38670E-08  1.32469E-08  1.22350E-08  1.11859E-08  1.00617E-08  9.05147E-09
   9.08956E-09  8.66827E-09  7.97948E-09  7.77524E-09  7.48001E-09  7.64219E-09  7.10416E-09  7.13683E-09  6.38924E-09  6.28220E-09
   6.08818E-09  6.35378E-09  6.34546E-09  6.83628E-09  6.47477E-09  6.12265E-09  5.47892E-09  5.70207E-09  5.40137E-09  6.08981E-09
   5.57041E-09  6.41793E-09  7.54700E-09  9.66201E-09  1.11934E-08  1.39000E-08  1.37577E-08  1.22537E-08  1.09199E-08  9.56698E-09
   8.59495E-09  7.59209E-09  6.79693E-09  6.29917E-09  6.05528E-09  5.37191E-09  5.32392E-09  5.87274E-09  6.10841E-09  8.00194E-09
   1.08312E-08  1.28195E-08  1.39051E-08  1.37402E-08  1.29123E-08  1.19527E-08  1.08539E-08  1.02108E-08  9.79138E-09  9.20425E-09
   8.82298E-09  8.07472E-09  7.28135E-09  6.98183E-09  6.93838E-09  6.55718E-09  5.74572E-09  6.19476E-09  5.04002E-09  5.49848E-09
   5.46888E-09  4.63804E-09  5.74886E-09  4.82403E-09  5.41374E-09  4.89001E-09  4.75985E-09  4.95175E-09  4.24747E-09  4.08408E-09
   3.82600E-09  3.30555E-09  2.87858E-09  3.15927E-09  3.79596E-09  4.16224E-09  3.94638E-09  3.54676E-09  4.18643E-09  4.20297E-09
   5.31730E-09  4.96323E-09  4.52548E-09  3.63790E-09  4.10606E-09  2.93173E-09  3.23007E-09  1.72672E-09  2.41635E-09  2.65917E-09
   3.82005E-09  3.10259E-09  2.95830E-09  2.84162E-09  3.47798E-09  2.73372E-09  2.31664E-09  2.55615E-09  2.88710E-09  2.27279E-09
   3.14803E-09  3.58779E-09  3.99563E-09  4.17023E-09  4.33669E-09  4.27183E-09  4.59273E-09  5.17299E-09  5.50334E-09  5.47284E-09
   5.31991E-09  5.11195E-09  5.25560E-09  5.33481E-09  4.43452E-09  4.91427E-09  4.84116E-09  4.86408E-09  5.71996E-09  5.38006E-09
   5.45952E-09  5.38535E-09  5.24194E-09  5.74089E-09  4.79976E-09  4.75434E-09  5.21901E-09  5.97806E-09  7.48374E-09  8.97896E-09
   1.11765E-08  1.33180E-08  1.64961E-08  1.64703E-08  1.54070E-08  1.29999E-08  1.09905E-08  9.50648E-09  7.42537E-09  6.84163E-09
   6.16019E-09  5.17666E-09  4.25813E-09  3.48017E-09  3.04124E-09  1.81530E-09  1.38205E-09  3.73170E-10  4.33114E-11 -1.05331E-09
  -2.23333E-09 -2.82138E-09 -3.75611E-09 -5.95268E-09 -6.05835E-09 -8.41234E-09 -9.36078E-09 -1.11822E-08 -1.26856E-08 -1.42701E-08
  -1.57625E-08 -1.65773E-08 -1.74894E-08 -1.80777E-08 -1.85614E-08 -1.81224E-08 -1.76037E-08 -1.65231E-08 -1.58688E-08 -1.46571E-08
  -1.23161E-08 -1.06739E-08 -7.94432E-09 -6.89842E-09 -4.96612E-09 -3.01828E-09 -1.82210E-09 -6.40947E-10  3.06596E-10  4.79762E-10
   8.05937E-10  4.61094E-10 -1.80222E-10  3.55111E-10 -8.17823E-10 -1.39878E-09 -8.73566E-10 -5.11850E-10 -9.05629E-10 -2.19643E-10
  -1.14116E-10 -1.27577E-10 -3.65653E-10 -1.11478E-10 -6.41978E-10 -5.63125E-10 -1.15951E-09 -1.03320E-09 -6.82375E-10 -3.31759E-11
  -5.82002E-10 -1.12190E-10 -2.46337E-10 -9.57878E-12  3.09363E-10 -1.47673E-10 -7.29905E-10 -1.16247E-09 -4.34911E-10 -6.97244E-10
  -4.95243E-10 -3.04466E-10  8.42764E-11  4.61417E-11  1.62527E-10  6.09561E-10  1.72889E-10  3.88158E-10  1.86611E-10  5.61784E-10
  -9.53471E-10 -3.37635E-10 -3.40066E-10 -8.97330E-10 -1.07746E-09 -8.01569E-10 -6.00050E-10 -8.32798E-10  2.70627E-11 -4.18565E-10
   7.05515E-10  6.32261E-10  9.49398E-10  6.96625E-10  5.47187E-10  9.15737E-10  6.74905E-10  4.75716E-10  7.60646E-10  7.17419E-10
   2.59176E-10 -6.71528E-11 -2.54339E-10  3.94262E-10 -5.49794E-10 -2.23594E-10 -4.55432E-10 -3.20808E-10  1.38005E-10 -5.76211E-10
   3.37681E-10  5.00700E-12 -1.30095E-10 -4.45437E-12  5.34327E-10 -2.47425E-10  4.03164E-10  4.59577E-10 -4.68152E-10 -5.92954E-10
   2.07904E-10 -3.66077E-10 -3.12593E-10  2.61182E-10 -2.27247E-10  3.41492E-10 -3.33984E-10 -4.21230E-10  1.85403E-11  1.88848E-11
  -2.19846E-10 -1.19721E-11 -2.05725E-10  3.04851E-10 -2.66041E-10  8.64168E-10  1.16253E-10  1.48485E-10  1.95344E-11  2.90936E-10
   9.02726E-10 -9.46426E-11 -3.61416E-11  4.04194E-10  7.06657E-10  5.81419E-10  3.53505E-10 -1.30672E-10  3.42633E-10  7.88508E-11
   1.36744E-09  4.99295E-10 -9.99947E-11  4.92209E-10  6.02647E-10  4.31870E-10  5.09615E-10  3.02347E-10  4.74961E-10  7.44716E-10
   8.52208E-11  5.32878E-10  8.52536E-10  7.08312E-10 -9.93570E-11  1.15739E-09  5.90680E-10  6.11708E-10  2.61644E-10  4.71308E-10
   9.28379E-10  6.98275E-10  6.85852E-10  7.94846E-10  3.93811E-10  1.36663E-09  1.03424E-09  1.02443E-09  8.15733E-10  1.48632E-09
   9.01345E-10  7.32317E-10  1.09284E-09
 NY points of the fit to the data follow
   1.52796E-08  1.49386E-08  1.44433E-08  1.43750E-08  1.43022E-08  1.38971E-08  1.31021E-08  1.22834E-08  1.16789E-08  1.10877E-08
   1.07460E-08  1.05848E-08  1.05845E-08  1.07128E-08  1.10219E-08  1.13345E-08  1.16525E-08  1.20025E-08  1.21417E-08  1.20143E-08
   1.18922E-08  1.16552E-08  1.12025E-08  1.07596E-08  1.05148E-08  1.02462E-08  1.01758E-08  1.05392E-08  1.11007E-08  1.16893E-08
   1.19328E-08  1.19857E-08  1.21781E-08  1.21108E-08  1.15325E-08  1.10376E-08  1.11643E-08  1.12056E-08  1.09403E-08  1.04217E-08
   9.81782E-09  9.26952E-09  8.25330E-09  7.29270E-09  7.03953E-09  6.81575E-09  6.45071E-09  6.30963E-09  6.30036E-09  6.33126E-09
   6.38904E-09  6.43277E-09  6.46322E-09  6.42398E-09  6.32926E-09  6.26386E-09  6.26611E-09  6.37653E-09  6.49322E-09  6.60265E-09
   6.80109E-09  7.21275E-09  7.82017E-09  8.44160E-09  9.32900E-09  1.02039E-08  1.07625E-08  1.10833E-08  1.11974E-08  1.10075E-08
   1.05997E-08  9.93474E-09  8.99438E-09  8.23893E-09  7.67125E-09  6.95235E-09  6.88530E-09  7.71600E-09  8.63749E-09  9.68632E-09
   1.07959E-08  1.17673E-08  1.25572E-08  1.29353E-08  1.27741E-08  1.23148E-08  1.15612E-08  1.02713E-08  8.58924E-09  7.90984E-09
   7.60871E-09  7.48900E-09  7.33234E-09  6.91292E-09  6.60892E-09  6.43561E-09  6.03911E-09  5.68525E-09  5.49129E-09  5.27944E-09
   5.09187E-09  4.95772E-09  4.85638E-09  4.77633E-09  4.71075E-09  4.65536E-09  4.60769E-09  4.56591E-09  4.52869E-09  4.49505E-09
   4.46399E-09  4.43489E-09  4.40736E-09  4.38105E-09  4.35565E-09  4.33096E-09  4.30654E-09  4.28214E-09  4.25757E-09  4.23266E-09
   4.20724E-09  4.18119E-09  4.15436E-09  4.12659E-09  4.09778E-09  4.06781E-09  4.03655E-09  4.00391E-09  3.96981E-09  3.93414E-09
   3.89680E-09  3.85771E-09  3.81680E-09  3.77396E-09  3.72914E-09  3.68225E-09  3.63322E-09  3.58197E-09  3.52845E-09  3.47258E-09
   3.41430E-09  3.35359E-09  3.29042E-09  3.22475E-09  3.15657E-09  3.08587E-09  3.01267E-09  2.93697E-09  2.85880E-09  2.77821E-09
   2.69526E-09  2.61006E-09  2.52276E-09  2.43356E-09  2.34274E-09  2.25068E-09  2.15794E-09  2.06528E-09  1.97386E-09  1.88534E-09
   1.80240E-09  1.72935E-09  1.67382E-09  1.65049E-09  1.69231E-09  1.89354E-09  2.66178E-09  4.87408E-09  7.57232E-09  1.02208E-08
   1.27836E-08  1.50341E-08  1.65011E-08  1.67365E-08  1.57706E-08  1.38605E-08  1.09240E-08  6.59519E-09  1.90485E-09 -6.07929E-11
  -8.00544E-10 -1.23216E-09 -1.54638E-09 -1.80292E-09 -2.02609E-09 -2.22751E-09 -2.41323E-09 -2.58663E-09 -2.74962E-09 -2.90332E-09
  -3.04834E-09 -3.18498E-09 -3.31329E-09 -3.43322E-09 -3.54462E-09 -3.64728E-09 -3.74103E-09 -3.82611E-09 -3.90279E-09 -3.97135E-09
  -4.03201E-09 -4.08501E-09 -4.13056E-09 -4.16890E-09 -4.20021E-09 -4.22470E-09 -4.24257E-09 -4.25402E-09 -4.25923E-09 -4.25839E-09
  -4.25170E-09 -4.23934E-09 -4.22148E-09 -4.19833E-09 -4.17005E-09 -4.13684E-09 -4.09887E-09 -4.05632E-09 -4.00938E-09 -3.95821E-09
  -3.90301E-09 -3.84394E-09 -3.78120E-09 -3.71495E-09 -3.64538E-09 -3.57272E-09 -3.49718E-09 -3.41897E-09 -3.33832E-09 -3.25544E-09
  -3.17054E-09 -3.08385E-09 -2.99559E-09 -2.90597E-09 -2.81519E-09 -2.72350E-09 -2.63109E-09 -2.53819E-09 -2.44499E-09 -2.35175E-09
  -2.25867E-09 -2.16594E-09 -2.07381E-09 -1.98249E-09 -1.89217E-09 -1.80310E-09 -1.71547E-09 -1.62950E-09 -1.54543E-09 -1.46345E-09
  -1.38377E-09 -1.30665E-09 -1.23214E-09 -1.16022E-09 -1.09083E-09 -1.02393E-09 -9.59455E-10 -8.97359E-10 -8.37579E-10 -7.80070E-10
  -7.24780E-10 -6.71645E-10 -6.20624E-10 -5.71654E-10 -5.24691E-10 -4.79676E-10 -4.36542E-10 -3.95268E-10 -3.55783E-10 -3.18026E-10
  -2.81948E-10 -2.47507E-10 -2.14633E-10 -1.83280E-10 -1.53406E-10 -1.24931E-10 -9.78317E-11 -7.20363E-11 -4.75004E-11 -2.41598E-11
  -1.97575E-12  1.90957E-11  3.90989E-11  5.80785E-11  7.60707E-11  9.31249E-11  1.09278E-10  1.24579E-10  1.39067E-10  1.52783E-10
   1.65772E-10  1.78077E-10  1.89740E-10  2.00803E-10  2.11309E-10  2.21302E-10  2.30823E-10  2.39916E-10  2.48619E-10  2.56984E-10
   2.65043E-10  2.72846E-10  2.80435E-10  2.87845E-10  2.95128E-10  3.02323E-10  3.09470E-10  3.16615E-10  3.23773E-10  3.30951E-10
   3.38156E-10  3.45392E-10  3.52666E-10  3.59984E-10  3.67352E-10  3.74777E-10  3.82262E-10  3.89816E-10  3.97443E-10  4.05151E-10
   4.12943E-10  4.20827E-10  4.28809E-10  4.36894E-10  4.45089E-10  4.53398E-10  4.61829E-10  4.70388E-10  4.79079E-10  4.87909E-10
   4.96885E-10  5.06011E-10  5.15294E-10  5.24739E-10  5.34353E-10  5.44141E-10  5.54098E-10  5.64218E-10  5.74494E-10  5.84917E-10
   5.95483E-10  6.06183E-10  6.17011E-10  6.27960E-10  6.39022E-10  6.50191E-10  6.61459E-10  6.72820E-10  6.84266E-10  6.95792E-10
   7.07389E-10  7.19051E-10  7.30771E-10  7.42541E-10  7.54355E-10  7.66206E-10  7.78087E-10  7.89992E-10  8.01912E-10  8.13841E-10
   8.25772E-10  8.37697E-10  8.49612E-10
 NY background values follow
     3.647E-09    3.641E-09    3.636E-09    3.630E-09    3.624E-09    3.618E-09    3.612E-09    3.606E-09    3.601E-09    3.595E-09
     3.589E-09    3.583E-09    3.577E-09    3.572E-09    3.566E-09    3.560E-09    3.554E-09    3.549E-09    3.543E-09    3.537E-09
     3.532E-09    3.526E-09    3.520E-09    3.515E-09    3.509E-09    3.504E-09    3.498E-09    3.493E-09    3.487E-09    3.482E-09
     3.476E-09    3.471E-09    3.466E-09    3.460E-09    3.455E-09    3.450E-09    3.445E-09    3.440E-09    3.435E-09    3.431E-09
     3.426E-09    3.422E-09    3.418E-09    3.414E-09    3.410E-09    3.406E-09    3.403E-09    3.400E-09    3.396E-09    3.394E-09
     3.391E-09    3.389E-09    3.387E-09    3.385E-09    3.383E-09    3.382E-09    3.381E-09    3.380E-09    3.380E-09    3.380E-09
     3.380E-09    3.381E-09    3.381E-09    3.382E-09    3.383E-09    3.385E-09    3.386E-09    3.388E-09    3.390E-09    3.392E-09
     3.395E-09    3.397E-09    3.400E-09    3.403E-09    3.406E-09    3.409E-09    3.412E-09    3.416E-09    3.419E-09    3.423E-09
     3.426E-09    3.430E-09    3.434E-09    3.438E-09    3.442E-09    3.445E-09    3.449E-09    3.453E-09    3.457E-09    3.461E-09
     3.465E-09    3.468E-09    3.471E-09    3.474E-09    3.477E-09    3.480E-09    3.482E-09    3.484E-09    3.486E-09    3.487E-09
     3.488E-09    3.488E-09    3.488E-09    3.487E-09    3.486E-09    3.484E-09    3.482E-09    3.479E-09    3.475E-09    3.471E-09
     3.466E-09    3.460E-09    3.453E-09    3.446E-09    3.437E-09    3.428E-09    3.417E-09    3.406E-09    3.393E-09    3.379E-09
     3.364E-09    3.347E-09    3.329E-09    3.309E-09    3.288E-09    3.265E-09    3.240E-09    3.213E-09    3.185E-09    3.154E-09
     3.122E-09    3.087E-09    3.050E-09    3.011E-09    2.970E-09    2.926E-09    2.880E-09    2.831E-09    2.780E-09    2.726E-09
     2.669E-09    2.610E-09    2.547E-09    2.482E-09    2.414E-09    2.342E-09    2.268E-09    2.191E-09    2.110E-09    2.027E-09
     1.940E-09    1.850E-09    1.757E-09    1.660E-09    1.560E-09    1.456E-09    1.349E-09    1.238E-09    1.124E-09    1.006E-09
     8.845E-10    7.591E-10    6.301E-10    4.971E-10    3.603E-10    2.196E-10    7.494E-11   -7.377E-11   -2.265E-10   -3.828E-10
    -5.424E-10   -7.048E-10   -8.694E-10   -1.036E-09   -1.204E-09   -1.373E-09   -1.543E-09   -1.712E-09   -1.882E-09   -2.050E-09
    -2.218E-09   -2.384E-09   -2.547E-09   -2.709E-09   -2.867E-09   -3.022E-09   -3.172E-09   -3.319E-09   -3.461E-09   -3.598E-09
    -3.729E-09   -3.854E-09   -3.973E-09   -4.084E-09   -4.188E-09   -4.285E-09   -4.373E-09   -4.453E-09   -4.526E-09   -4.590E-09
    -4.648E-09   -4.697E-09   -4.740E-09   -4.776E-09   -4.804E-09   -4.827E-09   -4.842E-09   -4.852E-09   -4.855E-09   -4.853E-09
    -4.844E-09   -4.830E-09   -4.811E-09   -4.787E-09   -4.757E-09   -4.722E-09   -4.683E-09   -4.640E-09   -4.592E-09   -4.539E-09
    -4.483E-09   -4.423E-09   -4.359E-09   -4.292E-09   -4.222E-09   -4.148E-09   -4.072E-09   -3.993E-09   -3.911E-09   -3.828E-09
    -3.742E-09   -3.654E-09   -3.565E-09   -3.475E-09   -3.384E-09   -3.291E-09   -3.198E-09   -3.105E-09   -3.011E-09   -2.917E-09
    -2.823E-09   -2.730E-09   -2.637E-09   -2.545E-09   -2.454E-09   -2.365E-09   -2.276E-09   -2.190E-09   -2.105E-09   -2.023E-09
    -1.943E-09   -1.865E-09   -1.790E-09   -1.718E-09   -1.648E-09   -1.580E-09   -1.515E-09   -1.453E-09   -1.392E-09   -1.335E-09
    -1.279E-09   -1.225E-09   -1.174E-09   -1.124E-09   -1.077E-09   -1.031E-09   -9.879E-10   -9.462E-10   -9.063E-10   -8.681E-10
    -8.316E-10   -7.967E-10   -7.635E-10   -7.317E-10   -7.014E-10   -6.726E-10   -6.451E-10   -6.189E-10   -5.940E-10   -5.702E-10
    -5.477E-10   -5.262E-10   -5.059E-10   -4.865E-10   -4.682E-10   -4.507E-10   -4.342E-10   -4.186E-10   -4.037E-10   -3.896E-10
    -3.763E-10   -3.637E-10   -3.516E-10   -3.402E-10   -3.294E-10   -3.191E-10   -3.092E-10   -2.998E-10   -2.907E-10   -2.820E-10
    -2.737E-10   -2.655E-10   -2.576E-10   -2.499E-10   -2.423E-10   -2.348E-10   -2.273E-10   -2.198E-10   -2.123E-10   -2.049E-10
    -1.973E-10   -1.898E-10   -1.822E-10   -1.746E-10   -1.669E-10   -1.592E-10   -1.514E-10   -1.435E-10   -1.356E-10   -1.276E-10
    -1.195E-10   -1.113E-10   -1.030E-10   -9.464E-11   -8.615E-11   -7.755E-11   -6.882E-11   -5.997E-11   -5.098E-11   -4.186E-11
    -3.259E-11   -2.318E-11   -1.360E-11   -3.865E-12    6.038E-12    1.612E-11    2.636E-11    3.677E-11    4.733E-11    5.804E-11
     6.890E-11    7.988E-11    9.100E-11    1.022E-10    1.136E-10    1.250E-10    1.366E-10    1.482E-10    1.600E-10    1.718E-10
     1.837E-10    1.956E-10    2.076E-10    2.197E-10    2.318E-10    2.439E-10    2.561E-10    2.683E-10    2.805E-10    2.927E-10
     3.049E-10    3.171E-10    3.293E-10
 Asp      Conc. = 4.39E-10
   4.17990E-09  4.11542E-09  4.05055E-09  3.97814E-09  3.91589E-09  3.84020E-09  3.77579E-09  3.71586E-09  3.68346E-09  3.66206E-09
   3.64610E-09  3.63332E-09  3.62270E-09  3.61368E-09  3.60538E-09  3.59751E-09  3.59009E-09  3.58305E-09  3.57635E-09  3.56993E-09
   3.56377E-09  3.55785E-09  3.55217E-09  3.54673E-09  3.54153E-09  3.53661E-09  3.53197E-09  3.52767E-09  3.52378E-09  3.52039E-09
   3.51764E-09  3.51573E-09  3.51498E-09  3.51594E-09  3.51959E-09  3.52817E-09  3.54749E-09  3.57054E-09  3.60191E-09  3.62968E-09
   3.65077E-09  3.66617E-09  3.68177E-09  3.71146E-09  3.75444E-09  3.82942E-09  3.89656E-09  3.95173E-09  4.03326E-09  4.10697E-09
   4.17058E-09  4.19788E-09  4.18300E-09  4.11555E-09  4.00184E-09  3.88527E-09  3.78112E-09  3.76016E-09  3.72478E-09  3.65435E-09
   3.61968E-09  3.60143E-09  3.57818E-09  3.56837E-09  3.56791E-09  3.55362E-09  3.51922E-09  3.49905E-09  3.48647E-09  3.47808E-09
   3.47234E-09  3.46844E-09  3.46588E-09  3.46436E-09  3.46364E-09  3.46360E-09  3.46410E-09  3.46506E-09  3.46641E-09  3.46810E-09
   3.47007E-09  3.47230E-09  3.47472E-09  3.47735E-09  3.48012E-09  3.48303E-09  3.48603E-09  3.48907E-09  3.49212E-09  3.49513E-09
   3.49809E-09  3.50093E-09  3.50365E-09  3.50619E-09  3.50853E-09  3.51063E-09  3.51246E-09  3.51398E-09  3.51517E-09  3.51600E-09
   3.51641E-09  3.51640E-09  3.51593E-09  3.51496E-09  3.51346E-09  3.51140E-09  3.50876E-09  3.50549E-09  3.50158E-09  3.49698E-09
   3.49168E-09  3.48563E-09  3.47880E-09  3.47114E-09  3.46259E-09  3.45306E-09  3.44249E-09  3.43081E-09  3.41795E-09  3.40383E-09
   3.38839E-09  3.37155E-09  3.35325E-09  3.33341E-09  3.31196E-09  3.28883E-09  3.26396E-09  3.23726E-09  3.20868E-09  3.17815E-09
   3.14557E-09  3.11090E-09  3.07406E-09  3.03497E-09  2.99359E-09  2.94981E-09  2.90358E-09  2.85484E-09  2.80351E-09  2.74952E-09
   2.69278E-09  2.63328E-09  2.57095E-09  2.50575E-09  2.43764E-09  2.36656E-09  2.29248E-09  2.21535E-09  2.13513E-09  2.05177E-09
   1.96525E-09  1.87551E-09  1.78252E-09  1.68625E-09  1.58668E-09  1.48377E-09  1.37751E-09  1.26790E-09  1.15497E-09  1.03875E-09
   9.19340E-10  7.96940E-10  6.71934E-10  5.45039E-10  4.17991E-10  2.95618E-10  1.98075E-10  1.94180E-10  2.05684E-10  2.08054E-10
   2.03965E-10  1.79959E-10  1.08086E-10 -3.92790E-11 -2.56983E-10 -5.26721E-10 -8.53594E-10 -1.26645E-09 -1.71299E-09 -1.96227E-09
  -2.15747E-09 -2.33668E-09 -2.50811E-09 -2.67422E-09 -2.83579E-09 -2.99300E-09 -3.14575E-09 -3.29378E-09 -3.43678E-09 -3.57439E-09
  -3.70621E-09 -3.83187E-09 -3.95093E-09 -4.06295E-09 -4.16754E-09 -4.26426E-09 -4.35280E-09 -4.43326E-09 -4.50583E-09 -4.57068E-09
  -4.62800E-09 -4.67796E-09 -4.72074E-09 -4.75653E-09 -4.78548E-09 -4.80780E-09 -4.82364E-09 -4.83319E-09 -4.83663E-09 -4.83412E-09
  -4.82586E-09 -4.81201E-09 -4.79274E-09 -4.76825E-09 -4.73869E-09 -4.70426E-09 -4.66512E-09 -4.62145E-09 -4.57342E-09 -4.52122E-09
  -4.46502E-09 -4.40499E-09 -4.34131E-09 -4.27416E-09 -4.20372E-09 -4.13021E-09 -4.05385E-09 -3.97484E-09 -3.89340E-09 -3.80976E-09
  -3.72413E-09 -3.63672E-09 -3.54775E-09 -3.45743E-09 -3.36598E-09 -3.27363E-09 -3.18057E-09 -3.08704E-09 -2.99322E-09 -2.89937E-09
  -2.80569E-09 -2.71237E-09 -2.61966E-09 -2.52778E-09 -2.43690E-09 -2.34727E-09 -2.25911E-09 -2.17261E-09 -2.08801E-09 -2.00552E-09
  -1.92533E-09 -1.84770E-09 -1.77270E-09 -1.70029E-09 -1.63042E-09 -1.56305E-09 -1.49810E-09 -1.43554E-09 -1.37531E-09 -1.31735E-09
  -1.26161E-09 -1.20803E-09 -1.15657E-09 -1.10717E-09 -1.05978E-09 -1.01435E-09 -9.70794E-10 -9.29106E-10 -8.89211E-10 -8.51049E-10
  -8.14569E-10 -7.79731E-10 -7.46463E-10 -7.14720E-10 -6.84460E-10 -6.55602E-10 -6.28123E-10 -6.01952E-10 -5.77043E-10 -5.53332E-10
  -5.30781E-10 -5.09346E-10 -4.88982E-10 -4.69644E-10 -4.51297E-10 -4.33890E-10 -4.17386E-10 -4.01738E-10 -3.86905E-10 -3.72847E-10
  -3.59517E-10 -3.46875E-10 -3.34876E-10 -3.23479E-10 -3.12642E-10 -3.02320E-10 -2.92472E-10 -2.83054E-10 -2.74028E-10 -2.65341E-10
  -2.56963E-10 -2.48842E-10 -2.40938E-10 -2.33213E-10 -2.25618E-10 -2.18112E-10 -2.10656E-10 -2.03203E-10 -1.95738E-10 -1.88255E-10
  -1.80748E-10 -1.73209E-10 -1.65634E-10 -1.58016E-10 -1.50350E-10 -1.42629E-10 -1.34847E-10 -1.26998E-10 -1.19078E-10 -1.11077E-10
  -1.02994E-10 -9.48186E-11 -8.65468E-11 -7.81736E-11 -6.96907E-11 -6.10945E-11 -5.23774E-11 -4.35335E-11 -3.45575E-11 -2.54442E-11
  -1.61852E-11 -6.77659E-12  2.78865E-12  1.25155E-11  2.24101E-11  3.24786E-11  4.27157E-11  5.31148E-11  6.36692E-11  7.43718E-11
   8.52155E-11  9.61937E-11  1.07299E-10  1.18525E-10  1.29864E-10  1.41310E-10  1.52855E-10  1.64492E-10  1.76215E-10  1.88017E-10
   1.99891E-10  2.11829E-10  2.23825E-10  2.35872E-10  2.47963E-10  2.60091E-10  2.72249E-10  2.84430E-10  2.96627E-10  3.08833E-10
   3.21042E-10  3.33245E-10  3.45438E-10
 GABA     Conc. = 1.84E-09
   3.76087E-09  3.75626E-09  3.75177E-09  3.74741E-09  3.74319E-09  3.73915E-09  3.73529E-09  3.73164E-09  3.72825E-09  3.72515E-09
   3.72237E-09  3.72003E-09  3.71817E-09  3.71686E-09  3.71629E-09  3.71653E-09  3.71766E-09  3.72005E-09  3.72392E-09  3.72955E-09
   3.73756E-09  3.74870E-09  3.76404E-09  3.78535E-09  3.81512E-09  3.85773E-09  3.92155E-09  4.02413E-09  4.21357E-09  4.55493E-09
   4.86726E-09  5.25053E-09  5.88743E-09  6.48444E-09  6.95744E-09  7.43605E-09  7.82982E-09  8.03949E-09  7.97418E-09  7.64390E-09
   7.24772E-09  6.97058E-09  6.28209E-09  5.48668E-09  5.20283E-09  4.86887E-09  4.39738E-09  4.16765E-09  4.03956E-09  3.96036E-09
   3.90959E-09  3.87712E-09  3.85818E-09  3.85047E-09  3.85286E-09  3.86540E-09  3.88977E-09  3.92931E-09  3.99073E-09  4.08748E-09
   4.25033E-09  4.56442E-09  4.93384E-09  5.29064E-09  5.85526E-09  6.46827E-09  6.92960E-09  7.30287E-09  7.57328E-09  7.67537E-09
   7.52776E-09  7.10426E-09  6.54065E-09  6.13679E-09  5.62869E-09  4.86230E-09  4.53252E-09  4.40248E-09  4.14814E-09  4.05072E-09
   4.07949E-09  4.11811E-09  4.28193E-09  4.55876E-09  4.79036E-09  5.05780E-09  5.39344E-09  5.70727E-09  5.97890E-09  6.13247E-09
   6.17468E-09  6.24633E-09  6.21377E-09  5.89033E-09  5.65263E-09  5.53038E-09  5.17945E-09  4.86143E-09  4.69656E-09  4.50917E-09
   4.34252E-09  4.22640E-09  4.14073E-09  4.07442E-09  4.02110E-09  3.97674E-09  3.93901E-09  3.90626E-09  3.87727E-09  3.85117E-09
   3.82704E-09  3.80433E-09  3.78272E-09  3.76189E-09  3.74159E-09  3.72165E-09  3.70166E-09  3.68140E-09  3.66071E-09  3.63941E-09
   3.61739E-09  3.59453E-09  3.57067E-09  3.54570E-09  3.51949E-09  3.49196E-09  3.46297E-09  3.43245E-09  3.40030E-09  3.36643E-09
   3.33075E-09  3.29317E-09  3.25361E-09  3.21199E-09  3.16822E-09  3.12223E-09  3.07394E-09  3.02327E-09  2.97015E-09  2.91450E-09
   2.85623E-09  2.79533E-09  2.73172E-09  2.66537E-09  2.59622E-09  2.52425E-09  2.44941E-09  2.37168E-09  2.29101E-09  2.20738E-09
   2.12077E-09  2.03117E-09  1.93859E-09  1.84303E-09  1.74454E-09  1.64317E-09  1.53904E-09  1.43231E-09  1.32326E-09  1.21232E-09
   1.10020E-09  9.88110E-10  8.78324E-10  7.75395E-10  6.90426E-10  6.58910E-10  8.57124E-10  1.33268E-09  1.83086E-09  2.30666E-09
   2.74861E-09  3.07651E-09  3.17219E-09  2.97304E-09  2.52547E-09  1.86996E-09  9.37886E-10 -2.91232E-10 -1.27347E-09 -1.65959E-09
  -1.91677E-09 -2.13028E-09 -2.32314E-09 -2.50375E-09 -2.67570E-09 -2.84066E-09 -2.99939E-09 -3.15217E-09 -3.29902E-09 -3.43981E-09
  -3.57431E-09 -3.70224E-09 -3.82327E-09 -3.93701E-09 -4.04311E-09 -4.14118E-09 -4.23092E-09 -4.31247E-09 -4.38603E-09 -4.45179E-09
  -4.50994E-09 -4.56066E-09 -4.60416E-09 -4.64061E-09 -4.67019E-09 -4.69308E-09 -4.70947E-09 -4.71954E-09 -4.72347E-09 -4.72143E-09
  -4.71361E-09 -4.70018E-09 -4.68133E-09 -4.65722E-09 -4.62804E-09 -4.59396E-09 -4.55517E-09 -4.51183E-09 -4.46412E-09 -4.41223E-09
  -4.35633E-09 -4.29659E-09 -4.23319E-09 -4.16631E-09 -4.09614E-09 -4.02289E-09 -3.94678E-09 -3.86801E-09 -3.78682E-09 -3.70341E-09
