 LCModel (Version 6.3-1R) Copyright: S.W. Provencher.          Ref.: Magn. Reson. Med. 30:672-679 (1993).                
 onepulse 25x14_ftSpec_smooth_lcm
 26 lines in following concentration table = NCONC+1
    Conc.  %SD /Cr+PCr  Metabolite                                         
    0.000 999%   0.000 Ala                                                 
 3.87E-10 197%   0.961 Asp                                                 
    0.000 999%   0.000 Cr                                                  
    0.000 999%   0.000 GABA                                                
 4.32E-10 399%   1.073 Glc                                                 
 3.42E-09  17%   8.499 Gln                                                 
    0.000 999%   0.000 Glu                                                 
    0.000 999%   0.000 Glyc                                                
    0.000 999%   0.000 GPC                                                 
    0.000 999%   0.000 GSH                                                 
 1.23E-09  37%   3.053 Ins                                                 
    0.000 999%   0.000 Lac                                                 
 3.56E-10  58%   0.883 NAAG                                                
    0.000 999%   0.000 NAA                                                 
    0.000 999%   0.000 PCh                                                 
 4.03E-10  67%   1.000 PCr                                                 
 1.72E-09  90%   4.265 PE                                                  
 9.46E-11 290%   0.235 Scyllo                                              
 2.74E-10 732%   0.680 Ser                                                 
 4.53E-10 379%   1.125 Tau                                                 
    0.000 999%   0.000 GPC+PCh                                             
 3.56E-10  58%   0.883 NAA+NAAG                                            
 1.23E-09  37%   3.053 Ins+Glyc                                            
 4.03E-10  67%   1.000 Cr+PCr                                              
 3.42E-09  17%   8.499 Glu+Gln                                             
   6 lines in following misc. output table
  FWHM = 0.101 ppm    S/N =   3                                            
  Data shift = 0.391 ppm                                                   
  Ph: -25 deg     -31.6 deg/ppm                                            
  alphaB,S = 5.4E-01,   5.1E+01                                            
    8 spline knots.   Ns = 5(1)                                            
  ( 8) 4 infls.   ( 5) 1 extrs.                                            
  363 points on ppm-axis = NY
      4.250000     4.238821     4.227641     4.216462     4.205282     4.194103     4.182923     4.171744     4.160564     4.149385
      4.138206     4.127026     4.115847     4.104667     4.093488     4.082308     4.071129     4.059949     4.048770     4.037591
      4.026411     4.015232     4.004052     3.992873     3.981693     3.970514     3.959334     3.948155     3.936975     3.925796
      3.914617     3.903437     3.892258     3.881078     3.869899     3.858719     3.847540     3.836360     3.825181     3.814002
      3.802822     3.791643     3.780463     3.769284     3.758104     3.746925     3.735745     3.724566     3.713387     3.702207
      3.691028     3.679848     3.668669     3.657489     3.646310     3.635130     3.623951     3.612772     3.601592     3.590413
      3.579233     3.568054     3.556874     3.545695     3.534515     3.523336     3.512156     3.500977     3.489798     3.478618
      3.467439     3.456259     3.445080     3.433900     3.422721     3.411541     3.400362     3.389183     3.378003     3.366824
      3.355644     3.344465     3.333285     3.322106     3.310926     3.299747     3.288568     3.277388     3.266209     3.255029
      3.243850     3.232670     3.221491     3.210311     3.199132     3.187953     3.176773     3.165594     3.154414     3.143235
      3.132055     3.120876     3.109696     3.098517     3.087337     3.076158     3.064979     3.053799     3.042620     3.031440
      3.020261     3.009081     2.997902     2.986722     2.975543     2.964364     2.953184     2.942005     2.930825     2.919646
      2.908466     2.897287     2.886107     2.874928     2.863749     2.852569     2.841390     2.830210     2.819031     2.807851
      2.796672     2.785492     2.774313     2.763134     2.751954     2.740775     2.729595     2.718416     2.707236     2.696057
      2.684877     2.673698     2.662519     2.651339     2.640160     2.628980     2.617801     2.606621     2.595442     2.584262
      2.573083     2.561903     2.550724     2.539545     2.528365     2.517186     2.506006     2.494827     2.483647     2.472468
      2.461288     2.450109     2.438930     2.427750     2.416571     2.405391     2.394212     2.383032     2.371853     2.360673
      2.349494     2.338315     2.327135     2.315956     2.304776     2.293597     2.282417     2.271238     2.260058     2.248879
      2.237700     2.226520     2.215341     2.204161     2.192982     2.181802     2.170623     2.159443     2.148264     2.137084
      2.125905     2.114726     2.103546     2.092367     2.081187     2.070008     2.058828     2.047649     2.036469     2.025290
      2.014111     2.002931     1.991752     1.980572     1.969393     1.958213     1.947034     1.935854     1.924675     1.913496
      1.902316     1.891137     1.879957     1.868778     1.857598     1.846419     1.835239     1.824060     1.812881     1.801701
      1.790522     1.779342     1.768163     1.756983     1.745804     1.734624     1.723445     1.712265     1.701086     1.689907
      1.678727     1.667548     1.656368     1.645189     1.634009     1.622830     1.611650     1.600471     1.589292     1.578112
      1.566933     1.555753     1.544574     1.533394     1.522215     1.511035     1.499856     1.488677     1.477497     1.466318
      1.455138     1.443959     1.432779     1.421600     1.410420     1.399241     1.388062     1.376882     1.365703     1.354523
      1.343344     1.332164     1.320985     1.309805     1.298626     1.287446     1.276267     1.265088     1.253908     1.242729
      1.231549     1.220370     1.209190     1.198011     1.186831     1.175652     1.164473     1.153293     1.142114     1.130934
      1.119755     1.108575     1.097396     1.086216     1.075037     1.063858     1.052678     1.041499     1.030319     1.019140
      1.007960     0.996781     0.985601     0.974422     0.963243     0.952063     0.940884     0.929704     0.918525     0.907345
      0.896166     0.884986     0.873807     0.862628     0.851448     0.840269     0.829089     0.817910     0.806730     0.795551
      0.784371     0.773192     0.762012     0.750833     0.739654     0.728474     0.717295     0.706115     0.694936     0.683756
      0.672577     0.661397     0.650218     0.639039     0.627859     0.616680     0.605500     0.594321     0.583141     0.571962
      0.560782     0.549603     0.538424     0.527244     0.516065     0.504885     0.493706     0.482526     0.471347     0.460167
      0.448988     0.437809     0.426629     0.415450     0.404270     0.393091     0.381911     0.370732     0.359552     0.348373
      0.337193     0.326014     0.314835     0.303655     0.292476     0.281296     0.270117     0.258937     0.247758     0.236578
      0.225399     0.214220     0.203040
 NY phased data points follow
   1.12342E-08  1.13819E-08  9.41960E-09  1.04502E-08  9.93242E-09  1.03440E-08  9.98643E-09  1.06789E-08  1.07367E-08  1.10437E-08
   1.06823E-08  1.21208E-08  1.05965E-08  1.09466E-08  1.07084E-08  1.04915E-08  9.90833E-09  9.76570E-09  9.07090E-09  9.80007E-09
   1.05598E-08  1.16214E-08  1.08258E-08  1.01881E-08  9.58998E-09  9.61469E-09  1.04273E-08  1.20650E-08  1.29245E-08  1.26187E-08
   1.14300E-08  1.06095E-08  9.05727E-09  7.91831E-09  7.14016E-09  7.84262E-09  7.23063E-09  7.03292E-09  6.29212E-09  6.77899E-09
   6.20070E-09  5.83853E-09  6.06916E-09  5.39709E-09  5.02943E-09  5.76860E-09  5.22781E-09  6.99206E-09  5.67932E-09  5.71614E-09
   5.37984E-09  5.03362E-09  4.54161E-09  6.11445E-09  5.48637E-09  6.63030E-09  6.05612E-09  7.18524E-09  1.03672E-08  1.44212E-08
   1.53215E-08  1.42121E-08  1.15931E-08  1.01738E-08  8.49375E-09  8.15539E-09  7.33429E-09  7.49157E-09  5.95680E-09  6.64776E-09
   5.47746E-09  6.30172E-09  5.40948E-09  6.51601E-09  7.35024E-09  1.21633E-08  1.54052E-08  1.65881E-08  1.44687E-08  1.33659E-08
   1.24473E-08  1.23555E-08  1.06407E-08  1.06427E-08  9.43673E-09  9.58083E-09  9.10639E-09  9.77954E-09  7.71188E-09  8.24955E-09
   7.56888E-09  7.11849E-09  6.93878E-09  6.79044E-09  6.75564E-09  6.53501E-09  5.94281E-09  6.12746E-09  5.79877E-09  6.38969E-09
   6.15450E-09  5.48564E-09  6.31873E-09  6.23822E-09  4.87197E-09  4.47390E-09  4.17986E-09  3.91871E-09  3.71281E-09  4.89649E-09
   4.91631E-09  4.93924E-09  4.67285E-09  5.49436E-09  5.53501E-09  5.98990E-09  5.60871E-09  6.28867E-09  5.56156E-09  5.36424E-09
   4.46503E-09  4.38465E-09  3.51766E-09  4.07911E-09  4.00470E-09  5.11037E-09  4.43826E-09  4.94233E-09  4.10007E-09  5.09089E-09
   4.24847E-09  4.22695E-09  4.12690E-09  4.54030E-09  3.34815E-09  4.17278E-09  5.29154E-09  6.72172E-09  6.45915E-09  5.82561E-09
   5.68992E-09  5.96321E-09  6.37424E-09  7.23651E-09  7.03424E-09  7.32484E-09  6.68642E-09  7.65658E-09  7.16886E-09  6.29403E-09
   6.45855E-09  6.43037E-09  6.05836E-09  6.25479E-09  6.24684E-09  6.26419E-09  6.09388E-09  6.18239E-09  6.34826E-09  6.14725E-09
   5.49119E-09  5.41607E-09  5.02494E-09  6.52044E-09  6.47963E-09  6.24104E-09  8.42815E-09  1.50569E-08  2.02647E-08  2.01334E-08
   1.83071E-08  1.66762E-08  1.63712E-08  1.55333E-08  1.48900E-08  1.40743E-08  1.38938E-08  1.29788E-08  1.27437E-08  1.20667E-08
   1.12408E-08  1.09517E-08  9.90662E-09  9.13009E-09  8.04714E-09  7.19906E-09  5.91474E-09  5.07455E-09  3.86240E-09  1.83924E-09
   6.39108E-10 -9.80729E-10 -2.35135E-09 -4.50999E-09 -6.62653E-09 -7.80611E-09 -8.72317E-09 -1.05639E-08 -1.14459E-08 -1.19060E-08
  -1.23745E-08 -1.21662E-08 -1.25289E-08 -1.09527E-08 -1.09984E-08 -9.80988E-09 -8.80306E-09 -7.66067E-09 -6.05689E-09 -5.08962E-09
  -4.46986E-09 -2.56262E-09 -2.51557E-09 -2.27580E-09 -1.66349E-09 -1.89081E-09 -2.16267E-09 -2.51855E-09 -2.08824E-09 -1.44108E-09
  -1.61566E-09 -1.47531E-09 -1.43748E-09 -1.71201E-09 -7.94306E-10 -1.27457E-09 -9.92088E-10 -9.65141E-10 -1.13646E-09 -1.22448E-09
  -1.56594E-09 -1.35575E-09 -1.12987E-09 -9.69132E-10 -1.01437E-09 -1.24094E-09 -2.72256E-10 -3.81229E-10 -1.06420E-09 -9.87151E-10
  -1.22639E-09 -6.76854E-10 -1.35910E-09 -9.65330E-10 -1.48983E-09 -1.37698E-09 -7.15987E-10 -1.02866E-09 -5.66808E-10 -5.71073E-10
   2.81922E-10 -4.24949E-10  9.83336E-11 -1.72141E-11 -5.00697E-10 -3.16680E-10 -7.11235E-10 -2.80713E-10 -1.08235E-09 -1.33552E-09
  -1.38323E-09 -1.61566E-09 -1.38214E-09 -1.39039E-09 -1.65694E-09 -1.78002E-09 -1.17419E-09 -1.33005E-09 -9.23832E-10 -7.57812E-10
  -8.85506E-10 -3.19908E-10  1.38781E-10  1.92734E-10  1.95572E-10  2.00573E-10  4.70086E-10  5.93776E-11  1.05466E-10 -4.37333E-10
  -4.28061E-10 -5.75321E-10 -2.18564E-10 -9.66899E-11 -4.43451E-10 -5.33065E-10 -1.72002E-10 -1.07371E-09 -7.77662E-10 -7.98444E-10
  -8.12420E-10 -1.11221E-09 -7.08567E-10 -8.16737E-10 -2.90216E-10 -1.29593E-09 -1.09719E-09 -6.25239E-10 -1.32521E-09 -6.36850E-10
  -1.54292E-09 -1.12663E-09 -8.68924E-10 -1.25535E-09 -8.17524E-10 -1.67680E-09 -1.57836E-09 -1.32482E-09 -1.56636E-09 -1.54633E-09
  -1.53657E-09 -1.31472E-09 -1.62594E-09 -1.62685E-09 -1.78825E-09 -1.51299E-09 -1.42855E-09 -1.90151E-09 -1.85412E-09 -1.84028E-09
  -1.45332E-09 -1.72198E-09 -1.78871E-09 -2.24830E-09 -1.40044E-09 -1.87225E-09 -2.35405E-09 -1.91292E-09 -1.59751E-09 -2.37686E-09
  -1.94536E-09 -2.53564E-09 -1.20756E-09 -2.03698E-09 -1.90143E-09 -1.96355E-09 -1.93355E-09 -2.10824E-09 -2.21411E-09 -2.64988E-09
  -2.49163E-09 -2.20391E-09 -2.33484E-09 -2.17398E-09 -2.18565E-09 -2.20062E-09 -2.08811E-09 -2.28252E-09 -1.62810E-09 -2.05846E-09
  -2.79357E-09 -2.43554E-09 -1.70503E-09 -2.42698E-09 -2.65052E-09 -2.33485E-09 -2.38900E-09 -2.27310E-09 -2.38176E-09 -3.05054E-09
  -2.61940E-09 -2.63283E-09 -2.31416E-09
 NY points of the fit to the data follow
   1.11566E-08  1.08985E-08  1.05917E-08  1.03805E-08  1.03730E-08  1.04815E-08  1.03693E-08  1.02034E-08  1.04725E-08  1.09570E-08
   1.10497E-08  1.10762E-08  1.08953E-08  1.07986E-08  1.08245E-08  1.07275E-08  1.06191E-08  1.04083E-08  9.89217E-09  9.24743E-09
   9.06004E-09  9.53690E-09  1.01843E-08  1.08090E-08  1.12501E-08  1.16713E-08  1.19924E-08  1.19529E-08  1.15933E-08  1.10402E-08
   1.04001E-08  9.81350E-09  9.42645E-09  9.10298E-09  8.51252E-09  7.75947E-09  7.03358E-09  6.60622E-09  6.38137E-09  6.20101E-09
   5.94655E-09  5.51907E-09  4.99659E-09  4.69932E-09  4.70052E-09  4.79436E-09  4.88531E-09  4.94099E-09  5.05667E-09  5.21377E-09
   5.40041E-09  5.60754E-09  5.85318E-09  6.22349E-09  7.05633E-09  8.06798E-09  8.85208E-09  9.93006E-09  1.10612E-08  1.16779E-08
   1.19387E-08  1.19594E-08  1.17269E-08  1.12001E-08  1.03672E-08  9.41453E-09  8.65862E-09  7.85872E-09  7.01265E-09  6.69903E-09
   6.76965E-09  7.21623E-09  7.92015E-09  8.58405E-09  9.54526E-09  1.07481E-08  1.20339E-08  1.31094E-08  1.37140E-08  1.38185E-08
   1.35310E-08  1.28909E-08  1.21161E-08  1.14691E-08  1.06060E-08  9.43075E-09  8.40533E-09  7.54386E-09  6.96984E-09  6.62716E-09
   6.39773E-09  6.23625E-09  6.11600E-09  6.02650E-09  5.95346E-09  5.89688E-09  5.85398E-09  5.81963E-09  5.79004E-09  5.76406E-09
   5.75077E-09  5.74401E-09  5.73685E-09  5.73142E-09  5.72992E-09  5.73103E-09  5.73377E-09  5.73757E-09  5.74186E-09  5.74643E-09
   5.75104E-09  5.75545E-09  5.75946E-09  5.76289E-09  5.76557E-09  5.76736E-09  5.76813E-09  5.76776E-09  5.76614E-09  5.76317E-09
   5.75875E-09  5.75278E-09  5.74517E-09  5.73586E-09  5.72475E-09  5.71176E-09  5.69684E-09  5.67989E-09  5.66087E-09  5.63969E-09
   5.61630E-09  5.59062E-09  5.56261E-09  5.53220E-09  5.49932E-09  5.46393E-09  5.42598E-09  5.38539E-09  5.34214E-09  5.29616E-09
   5.24742E-09  5.19587E-09  5.14148E-09  5.08420E-09  5.02401E-09  4.96088E-09  4.89485E-09  4.82604E-09  4.75461E-09  4.68075E-09
   4.60465E-09  4.52653E-09  4.44669E-09  4.36546E-09  4.28328E-09  4.20071E-09  4.11850E-09  4.03772E-09  3.95993E-09  3.88748E-09
   3.82418E-09  3.77656E-09  3.75674E-09  3.78991E-09  3.93725E-09  4.39027E-09  6.06268E-09  1.12478E-08  1.65392E-08  1.95710E-08
   2.01675E-08  1.94194E-08  1.84097E-08  1.75813E-08  1.67647E-08  1.53623E-08  1.26351E-08  8.41528E-09  4.30238E-09  3.01992E-09
   2.43850E-09  2.07281E-09  1.80082E-09  1.57827E-09  1.38516E-09  1.21118E-09  1.05043E-09  8.99354E-10  7.55651E-10  6.17822E-10
   4.84838E-10  3.55969E-10  2.30722E-10  1.08735E-10 -1.02319E-11 -1.26367E-10 -2.39788E-10 -3.50555E-10 -4.58720E-10 -5.64307E-10
  -6.67304E-10 -7.67696E-10 -8.65452E-10 -9.60533E-10 -1.05289E-09 -1.14246E-09 -1.22918E-09 -1.31300E-09 -1.39384E-09 -1.47161E-09
  -1.54626E-09 -1.61770E-09 -1.68585E-09 -1.75062E-09 -1.81194E-09 -1.86971E-09 -1.92385E-09 -1.97428E-09 -2.02090E-09 -2.06378E-09
  -2.10298E-09 -2.13862E-09 -2.17076E-09 -2.19951E-09 -2.22492E-09 -2.24712E-09 -2.26617E-09 -2.28216E-09 -2.29518E-09 -2.30530E-09
  -2.31263E-09 -2.31723E-09 -2.31919E-09 -2.31861E-09 -2.31556E-09 -2.31013E-09 -2.30240E-09 -2.29245E-09 -2.28037E-09 -2.26624E-09
  -2.25013E-09 -2.23217E-09 -2.21239E-09 -2.19090E-09 -2.16777E-09 -2.14310E-09 -2.11696E-09 -2.08943E-09 -2.06061E-09 -2.03056E-09
  -1.99940E-09 -1.96715E-09 -1.93398E-09 -1.89988E-09 -1.86497E-09 -1.82937E-09 -1.79312E-09 -1.75631E-09 -1.71903E-09 -1.68134E-09
  -1.64335E-09 -1.60515E-09 -1.56680E-09 -1.52839E-09 -1.48999E-09 -1.45169E-09 -1.41360E-09 -1.37575E-09 -1.33826E-09 -1.30122E-09
  -1.26467E-09 -1.22872E-09 -1.19347E-09 -1.15896E-09 -1.12531E-09 -1.09257E-09 -1.06085E-09 -1.03023E-09 -1.00076E-09 -9.72558E-10
  -9.45701E-10 -9.20257E-10 -8.96327E-10 -8.73964E-10 -8.53276E-10 -8.34340E-10 -8.17246E-10 -8.02031E-10 -7.88836E-10 -7.77719E-10
  -7.68742E-10 -7.61968E-10 -7.57331E-10 -7.54786E-10 -7.54279E-10 -7.55776E-10 -7.59205E-10 -7.64535E-10 -7.71709E-10 -7.80678E-10
  -7.91399E-10 -8.03813E-10 -8.17883E-10 -8.33551E-10 -8.50764E-10 -8.69479E-10 -8.89653E-10 -9.11233E-10 -9.34160E-10 -9.58393E-10
  -9.83884E-10 -1.01058E-09 -1.03844E-09 -1.06739E-09 -1.09742E-09 -1.12845E-09 -1.16045E-09 -1.19335E-09 -1.22711E-09 -1.26170E-09
  -1.29705E-09 -1.33310E-09 -1.36983E-09 -1.40717E-09 -1.44508E-09 -1.48350E-09 -1.52240E-09 -1.56172E-09 -1.60141E-09 -1.64141E-09
  -1.68170E-09 -1.72221E-09 -1.76288E-09 -1.80368E-09 -1.84456E-09 -1.88547E-09 -1.92636E-09 -1.96717E-09 -2.00787E-09 -2.04837E-09
  -2.08868E-09 -2.12871E-09 -2.16843E-09 -2.20778E-09 -2.24669E-09 -2.28517E-09 -2.32311E-09 -2.36051E-09 -2.39728E-09 -2.43339E-09
  -2.46880E-09 -2.50344E-09 -2.53727E-09 -2.57024E-09 -2.60231E-09 -2.63341E-09 -2.66352E-09 -2.69256E-09 -2.72050E-09 -2.74730E-09
  -2.77288E-09 -2.79721E-09 -2.82025E-09
 NY background values follow
     9.040E-10    9.390E-10    9.736E-10    1.008E-09    1.042E-09    1.076E-09    1.110E-09    1.143E-09    1.176E-09    1.209E-09
     1.242E-09    1.274E-09    1.307E-09    1.339E-09    1.371E-09    1.403E-09    1.435E-09    1.466E-09    1.498E-09    1.529E-09
     1.561E-09    1.592E-09    1.623E-09    1.654E-09    1.685E-09    1.716E-09    1.747E-09    1.778E-09    1.809E-09    1.839E-09
     1.870E-09    1.901E-09    1.932E-09    1.963E-09    1.994E-09    2.025E-09    2.056E-09    2.087E-09    2.118E-09    2.149E-09
     2.181E-09    2.212E-09    2.244E-09    2.276E-09    2.307E-09    2.339E-09    2.372E-09    2.404E-09    2.437E-09    2.469E-09
     2.502E-09    2.535E-09    2.569E-09    2.602E-09    2.636E-09    2.670E-09    2.705E-09    2.739E-09    2.774E-09    2.809E-09
     2.845E-09    2.881E-09    2.917E-09    2.953E-09    2.990E-09    3.027E-09    3.065E-09    3.102E-09    3.141E-09    3.179E-09
     3.218E-09    3.258E-09    3.298E-09    3.338E-09    3.379E-09    3.420E-09    3.461E-09    3.503E-09    3.545E-09    3.587E-09
     3.629E-09    3.671E-09    3.713E-09    3.755E-09    3.797E-09    3.839E-09    3.880E-09    3.922E-09    3.963E-09    4.003E-09
     4.044E-09    4.083E-09    4.123E-09    4.162E-09    4.200E-09    4.237E-09    4.274E-09    4.310E-09    4.345E-09    4.379E-09
     4.412E-09    4.445E-09    4.476E-09    4.506E-09    4.536E-09    4.564E-09    4.590E-09    4.616E-09    4.640E-09    4.663E-09
     4.684E-09    4.704E-09    4.722E-09    4.739E-09    4.754E-09    4.767E-09    4.779E-09    4.789E-09    4.797E-09    4.803E-09
     4.807E-09    4.809E-09    4.810E-09    4.808E-09    4.803E-09    4.797E-09    4.789E-09    4.778E-09    4.765E-09    4.749E-09
     4.731E-09    4.710E-09    4.687E-09    4.661E-09    4.633E-09    4.602E-09    4.568E-09    4.531E-09    4.492E-09    4.449E-09
     4.404E-09    4.356E-09    4.304E-09    4.250E-09    4.192E-09    4.131E-09    4.066E-09    3.999E-09    3.929E-09    3.855E-09
     3.779E-09    3.700E-09    3.618E-09    3.534E-09    3.447E-09    3.358E-09    3.267E-09    3.173E-09    3.078E-09    2.980E-09
     2.881E-09    2.779E-09    2.676E-09    2.572E-09    2.465E-09    2.358E-09    2.249E-09    2.139E-09    2.028E-09    1.916E-09
     1.802E-09    1.689E-09    1.574E-09    1.458E-09    1.343E-09    1.226E-09    1.110E-09    9.926E-10    8.755E-10    7.583E-10
     6.412E-10    5.243E-10    4.075E-10    2.911E-10    1.751E-10    5.957E-11   -5.530E-11   -1.695E-10   -2.828E-10   -3.952E-10
    -5.067E-10   -6.170E-10   -7.262E-10   -8.340E-10   -9.405E-10   -1.045E-09   -1.149E-09   -1.251E-09   -1.351E-09   -1.449E-09
    -1.545E-09   -1.639E-09   -1.731E-09   -1.820E-09   -1.908E-09   -1.992E-09   -2.075E-09   -2.154E-09   -2.231E-09   -2.305E-09
    -2.376E-09   -2.444E-09   -2.509E-09   -2.571E-09   -2.630E-09   -2.685E-09   -2.736E-09   -2.784E-09   -2.828E-09   -2.869E-09
    -2.906E-09   -2.939E-09   -2.969E-09   -2.996E-09   -3.019E-09   -3.040E-09   -3.057E-09   -3.071E-09   -3.082E-09   -3.091E-09
    -3.097E-09   -3.100E-09   -3.100E-09   -3.098E-09   -3.094E-09   -3.087E-09   -3.078E-09   -3.066E-09   -3.053E-09   -3.037E-09
    -3.020E-09   -3.001E-09   -2.980E-09   -2.957E-09   -2.933E-09   -2.907E-09   -2.880E-09   -2.851E-09   -2.821E-09   -2.790E-09
    -2.758E-09   -2.725E-09   -2.691E-09   -2.655E-09   -2.620E-09   -2.583E-09   -2.546E-09   -2.508E-09   -2.470E-09   -2.431E-09
    -2.392E-09   -2.353E-09   -2.314E-09   -2.275E-09   -2.236E-09   -2.197E-09   -2.158E-09   -2.119E-09   -2.081E-09   -2.043E-09
    -2.006E-09   -1.969E-09   -1.933E-09   -1.898E-09   -1.863E-09   -1.830E-09   -1.797E-09   -1.766E-09   -1.736E-09   -1.707E-09
    -1.679E-09   -1.653E-09   -1.629E-09   -1.606E-09   -1.584E-09   -1.565E-09   -1.547E-09   -1.531E-09   -1.517E-09   -1.505E-09
    -1.496E-09   -1.488E-09   -1.483E-09   -1.480E-09   -1.479E-09   -1.480E-09   -1.483E-09   -1.487E-09   -1.494E-09   -1.502E-09
    -1.512E-09   -1.524E-09   -1.538E-09   -1.553E-09   -1.569E-09   -1.588E-09   -1.607E-09   -1.628E-09   -1.651E-09   -1.674E-09
    -1.699E-09   -1.725E-09   -1.753E-09   -1.781E-09   -1.811E-09   -1.841E-09   -1.873E-09   -1.905E-09   -1.938E-09   -1.972E-09
    -2.007E-09   -2.043E-09   -2.079E-09   -2.116E-09   -2.153E-09   -2.191E-09   -2.229E-09   -2.268E-09   -2.307E-09   -2.347E-09
    -2.387E-09   -2.427E-09   -2.467E-09   -2.507E-09   -2.547E-09   -2.588E-09   -2.628E-09   -2.668E-09   -2.709E-09   -2.749E-09
    -2.789E-09   -2.828E-09   -2.867E-09   -2.906E-09   -2.945E-09   -2.983E-09   -3.020E-09   -3.057E-09   -3.093E-09   -3.129E-09
    -3.164E-09   -3.198E-09   -3.231E-09   -3.264E-09   -3.295E-09   -3.326E-09   -3.356E-09   -3.384E-09   -3.412E-09   -3.438E-09
    -3.463E-09   -3.487E-09   -3.509E-09
 Asp      Conc. = 3.87E-10
   1.31094E-09  1.28509E-09  1.27123E-09  1.25491E-09  1.24736E-09  1.23213E-09  1.22119E-09  1.22146E-09  1.23774E-09  1.26044E-09
   1.28632E-09  1.31411E-09  1.34322E-09  1.37321E-09  1.40344E-09  1.43386E-09  1.46446E-09  1.49520E-09  1.52605E-09  1.55701E-09
   1.58806E-09  1.61920E-09  1.65045E-09  1.68182E-09  1.71334E-09  1.74504E-09  1.77698E-09  1.80921E-09  1.84182E-09  1.87493E-09
   1.90873E-09  1.94348E-09  1.97961E-09  2.01789E-09  2.05984E-09  2.10922E-09  2.17546E-09  2.24154E-09  2.30900E-09  2.35821E-09
   2.38829E-09  2.41329E-09  2.46142E-09  2.55128E-09  2.68331E-09  2.84329E-09  2.94644E-09  2.97707E-09  3.02161E-09  3.08248E-09
   3.15023E-09  3.20227E-09  3.21569E-09  3.17375E-09  3.09756E-09  3.03850E-09  3.02555E-09  3.05744E-09  3.06441E-09  3.04394E-09
   3.04701E-09  3.05781E-09  3.07221E-09  3.10251E-09  3.13531E-09  3.15643E-09  3.16954E-09  3.19224E-09  3.22003E-09  3.25089E-09
   3.28384E-09  3.31838E-09  3.35419E-09  3.39108E-09  3.42886E-09  3.46740E-09  3.50656E-09  3.54623E-09  3.58633E-09  3.62676E-09
   3.66745E-09  3.70832E-09  3.74930E-09  3.79033E-09  3.83135E-09  3.87228E-09  3.91308E-09  3.95368E-09  3.99403E-09  4.03406E-09
   4.07373E-09  4.11297E-09  4.15174E-09  4.18997E-09  4.22762E-09  4.26463E-09  4.30095E-09  4.33652E-09  4.37129E-09  4.40521E-09
   4.43822E-09  4.47028E-09  4.50133E-09  4.53132E-09  4.56020E-09  4.58791E-09  4.61440E-09  4.63963E-09  4.66354E-09  4.68607E-09
   4.70718E-09  4.72682E-09  4.74492E-09  4.76145E-09  4.77635E-09  4.78957E-09  4.80105E-09  4.81075E-09  4.81862E-09  4.82459E-09
   4.82863E-09  4.83068E-09  4.83069E-09  4.82860E-09  4.82438E-09  4.81795E-09  4.80928E-09  4.79831E-09  4.78500E-09  4.76928E-09
   4.75111E-09  4.73044E-09  4.70722E-09  4.68140E-09  4.65291E-09  4.62172E-09  4.58778E-09  4.55102E-09  4.51141E-09  4.46889E-09
   4.42340E-09  4.37491E-09  4.32335E-09  4.26868E-09  4.21086E-09  4.14981E-09  4.08555E-09  4.01816E-09  3.94773E-09  3.87437E-09
   3.79818E-09  3.71926E-09  3.63771E-09  3.55364E-09  3.46716E-09  3.37840E-09  3.28746E-09  3.19450E-09  3.09968E-09  3.00318E-09
   2.90526E-09  2.80631E-09  2.70694E-09  2.60836E-09  2.51333E-09  2.43039E-09  2.40022E-09  2.52508E-09  2.65313E-09  2.67978E-09
   2.59767E-09  2.45544E-09  2.30116E-09  2.15445E-09  2.00781E-09  1.83477E-09  1.60262E-09  1.30395E-09  1.01000E-09  8.41905E-10
   7.04485E-10  5.76625E-10  4.53074E-10  3.32008E-10  2.12633E-10  9.45925E-11 -2.22764E-11 -1.38030E-10 -2.52698E-10 -3.66240E-10
  -4.78607E-10 -5.89749E-10 -6.99588E-10 -8.08051E-10 -9.15047E-10 -1.02050E-09 -1.12433E-09 -1.22644E-09 -1.32673E-09 -1.42512E-09
  -1.52152E-09 -1.61582E-09 -1.70795E-09 -1.79781E-09 -1.88529E-09 -1.97031E-09 -2.05276E-09 -2.13257E-09 -2.20962E-09 -2.28382E-09
  -2.35509E-09 -2.42332E-09 -2.48841E-09 -2.55027E-09 -2.60882E-09 -2.66393E-09 -2.71553E-09 -2.76353E-09 -2.80781E-09 -2.84845E-09
  -2.88549E-09 -2.91904E-09 -2.94917E-09 -2.97598E-09 -2.99951E-09 -3.01990E-09 -3.03719E-09 -3.05147E-09 -3.06283E-09 -3.07134E-09
  -3.07711E-09 -3.08019E-09 -3.08067E-09 -3.07865E-09 -3.07419E-09 -3.06739E-09 -3.05832E-09 -3.04707E-09 -3.03371E-09 -3.01833E-09
  -3.00101E-09 -2.98185E-09 -2.96090E-09 -2.93827E-09 -2.91402E-09 -2.88824E-09 -2.86102E-09 -2.83244E-09 -2.80258E-09 -2.77151E-09
  -2.73934E-09 -2.70611E-09 -2.67197E-09 -2.63691E-09 -2.60107E-09 -2.56455E-09 -2.52739E-09 -2.48968E-09 -2.45152E-09 -2.41297E-09
  -2.37412E-09 -2.33508E-09 -2.29590E-09 -2.25666E-09 -2.21746E-09 -2.17836E-09 -2.13948E-09 -2.10086E-09 -2.06260E-09 -2.02480E-09
  -1.98750E-09 -1.95081E-09 -1.91483E-09 -1.87959E-09 -1.84523E-09 -1.81178E-09 -1.77936E-09 -1.74805E-09 -1.71790E-09 -1.68901E-09
  -1.66149E-09 -1.63538E-09 -1.61079E-09 -1.58778E-09 -1.56644E-09 -1.54687E-09 -1.52914E-09 -1.51329E-09 -1.49948E-09 -1.48774E-09
  -1.47815E-09 -1.47077E-09 -1.46553E-09 -1.46239E-09 -1.46129E-09 -1.46219E-09 -1.46504E-09 -1.46979E-09 -1.47639E-09 -1.48478E-09
  -1.49494E-09 -1.50679E-09 -1.52029E-09 -1.53541E-09 -1.55207E-09 -1.57023E-09 -1.58986E-09 -1.61089E-09 -1.63328E-09 -1.65698E-09
  -1.68193E-09 -1.70809E-09 -1.73543E-09 -1.76386E-09 -1.79336E-09 -1.82387E-09 -1.85535E-09 -1.88773E-09 -1.92099E-09 -1.95506E-09
  -1.98990E-09 -2.02544E-09 -2.06167E-09 -2.09851E-09 -2.13592E-09 -2.17384E-09 -2.21224E-09 -2.25106E-09 -2.29026E-09 -2.32978E-09
  -2.36957E-09 -2.40959E-09 -2.44978E-09 -2.49009E-09 -2.53049E-09 -2.57091E-09 -2.61132E-09 -2.65164E-09 -2.69186E-09 -2.73189E-09
  -2.77172E-09 -2.81127E-09 -2.85051E-09 -2.88939E-09 -2.92782E-09 -2.96583E-09 -3.00330E-09 -3.04022E-09 -3.07652E-09 -3.11216E-09
  -3.14710E-09 -3.18126E-09 -3.21462E-09 -3.24712E-09 -3.27872E-09 -3.30935E-09 -3.33899E-09 -3.36756E-09 -3.39503E-09 -3.42136E-09
  -3.44646E-09 -3.47033E-09 -3.49290E-09
 Glc      Conc. = 4.32E-10
   2.14851E-09  2.21784E-09  2.25734E-09  2.27200E-09  2.27019E-09  2.25354E-09  2.20800E-09  2.15767E-09  2.07795E-09  2.03227E-09
   2.04188E-09  2.09871E-09  2.20248E-09  2.38002E-09  2.64164E-09  2.89256E-09  3.06303E-09  3.13314E-09  3.11893E-09  3.08574E-09
   3.05433E-09  3.00308E-09  2.91257E-09  2.79574E-09  2.63596E-09  2.47765E-09  2.40757E-09  2.38551E-09  2.38163E-09  2.37289E-09
   2.35034E-09  2.33208E-09  2.31981E-09  2.29939E-09  2.27901E-09  2.27837E-09  2.27883E-09  2.27539E-09  2.28280E-09  2.29843E-09
   2.31827E-09  2.34059E-09  2.36474E-09  2.39023E-09  2.41679E-09  2.44423E-09  2.47239E-09  2.50120E-09  2.53058E-09  2.56047E-09
   2.59083E-09  2.62163E-09  2.65286E-09  2.68450E-09  2.71652E-09  2.74894E-09  2.78174E-09  2.81490E-09  2.84847E-09  2.88240E-09
   2.91670E-09  2.95140E-09  2.98648E-09  3.02195E-09  3.05781E-09  3.09408E-09  3.13075E-09  3.16784E-09  3.20535E-09  3.24328E-09
   3.28165E-09  3.32046E-09  3.35973E-09  3.39945E-09  3.43960E-09  3.48013E-09  3.52098E-09  3.56211E-09  3.60345E-09  3.64497E-09
   3.68660E-09  3.72830E-09  3.77001E-09  3.81168E-09  3.85325E-09  3.89469E-09  3.93593E-09  3.97693E-09  4.01763E-09  4.05797E-09
   4.09792E-09  4.13741E-09  4.17640E-09  4.21484E-09  4.25267E-09  4.28984E-09  4.32629E-09  4.36199E-09  4.39688E-09  4.43090E-09
   4.46401E-09  4.49614E-09  4.52727E-09  4.55732E-09  4.58625E-09  4.61401E-09  4.64054E-09  4.66581E-09  4.68974E-09  4.71230E-09
   4.73343E-09  4.75309E-09  4.77120E-09  4.78774E-09  4.80265E-09  4.81587E-09  4.82735E-09  4.83705E-09  4.84491E-09  4.85089E-09
   4.85492E-09  4.85696E-09  4.85695E-09  4.85486E-09  4.85061E-09  4.84418E-09  4.83549E-09  4.82450E-09  4.81117E-09  4.79544E-09
   4.77725E-09  4.75656E-09  4.73332E-09  4.70747E-09  4.67897E-09  4.64776E-09  4.61379E-09  4.57701E-09  4.53738E-09  4.49483E-09
   4.44933E-09  4.40081E-09  4.34923E-09  4.29454E-09  4.23669E-09  4.17563E-09  4.11135E-09  4.04394E-09  3.97350E-09  3.90012E-09
   3.82392E-09  3.74499E-09  3.66343E-09  3.57937E-09  3.49290E-09  3.40415E-09  3.31325E-09  3.22034E-09  3.12559E-09  3.02920E-09
   2.93145E-09  2.83276E-09  2.73380E-09  2.63590E-09  2.54216E-09  2.46210E-09  2.44134E-09  2.59365E-09  2.74944E-09  2.79207E-09
   2.71345E-09  2.56787E-09  2.40899E-09  2.25863E-09  2.10838E-09  1.92864E-09  1.68290E-09  1.36299E-09  1.04860E-09  8.74645E-10
   7.34859E-10  6.05716E-10  4.81355E-10  3.59729E-10  2.39942E-10  1.21584E-10  4.46290E-12 -1.11497E-10 -2.26338E-10 -3.40027E-10
  -4.52520E-10 -5.63774E-10 -6.73712E-10 -7.82263E-10 -8.89339E-10 -9.94869E-10 -1.09877E-09 -1.20093E-09 -1.30128E-09 -1.39973E-09
  -1.49617E-09 -1.59053E-09 -1.68270E-09 -1.77260E-09 -1.86012E-09 -1.94518E-09 -2.02767E-09 -2.10751E-09 -2.18461E-09 -2.25884E-09
  -2.33014E-09 -2.39840E-09 -2.46352E-09 -2.52541E-09 -2.58399E-09 -2.63913E-09 -2.69076E-09 -2.73878E-09 -2.78309E-09 -2.82375E-09
  -2.86082E-09 -2.89440E-09 -2.92455E-09 -2.95138E-09 -2.97494E-09 -2.99535E-09 -3.01266E-09 -3.02696E-09 -3.03835E-09 -3.04688E-09
