 LCModel (Version 6.3-1R) Copyright: S.W. Provencher.          Ref.: Magn. Reson. Med. 30:672-679 (1993).                
 onepulse 25x16_ftSpec_smooth_lcm
 26 lines in following concentration table = NCONC+1
    Conc.  %SD /Cr+PCr  Metabolite                                         
    0.000 999%   0.000 Ala                                                 
    0.000 999%   0.000 Asp                                                 
 5.58E-10  44%   1.000 Cr                                                  
    0.000 999%   0.000 GABA                                                
 5.83E-10 223%   1.045 Glc                                                 
 1.32E-09  61%   2.371 Gln                                                 
 9.59E-10  70%   1.719 Glu                                                 
 2.56E-10 999%   0.458 Glyc                                                
 1.79E-10 136%   0.321 GPC                                                 
    0.000 999%   0.000 GSH                                                 
 5.57E-10 436%   0.998 Ins                                                 
    0.000 999%   0.000 Lac                                                 
    0.000 999%   0.000 NAAG                                                
 6.39E-10  43%   1.145 NAA                                                 
    0.000 999%   0.000 PCh                                                 
    0.000 999%   0.000 PCr                                                 
    0.000 999%   0.000 PE                                                  
 1.48E-11 999% 2.6E-02 Scyllo                                              
 2.58E-09  30%   4.626 Ser                                                 
 7.12E-10 199%   1.277 Tau                                                 
 1.79E-10 136%   0.321 GPC+PCh                                             
 6.39E-10  43%   1.145 NAA+NAAG                                            
 8.12E-10  62%   1.457 Ins+Glyc                                            
 5.58E-10  44%   1.000 Cr+PCr                                              
 2.28E-09  23%   4.091 Glu+Gln                                             
   6 lines in following misc. output table
  FWHM = 0.101 ppm    S/N =   3                                            
  Data shift = 0.347 ppm                                                   
  Ph: -15 deg     -12.6 deg/ppm                                            
  alphaB,S = 1.8E-01,   2.3E+01                                            
   16 spline knots.   Ns = 5(1)                                            
  (12) 4 infls.   ( 7) 1 extrs.                                            
  363 points on ppm-axis = NY
      4.250000     4.238821     4.227641     4.216462     4.205282     4.194103     4.182923     4.171744     4.160564     4.149385
      4.138206     4.127026     4.115847     4.104667     4.093488     4.082308     4.071129     4.059949     4.048770     4.037591
      4.026411     4.015232     4.004052     3.992873     3.981693     3.970514     3.959334     3.948155     3.936975     3.925796
      3.914617     3.903437     3.892258     3.881078     3.869899     3.858719     3.847540     3.836360     3.825181     3.814002
      3.802822     3.791643     3.780463     3.769284     3.758104     3.746925     3.735745     3.724566     3.713387     3.702207
      3.691028     3.679848     3.668669     3.657489     3.646310     3.635130     3.623951     3.612772     3.601592     3.590413
      3.579233     3.568054     3.556874     3.545695     3.534515     3.523336     3.512156     3.500977     3.489798     3.478618
      3.467439     3.456259     3.445080     3.433900     3.422721     3.411541     3.400362     3.389183     3.378003     3.366824
      3.355644     3.344465     3.333285     3.322106     3.310926     3.299747     3.288568     3.277388     3.266209     3.255029
      3.243850     3.232670     3.221491     3.210311     3.199132     3.187953     3.176773     3.165594     3.154414     3.143235
      3.132055     3.120876     3.109696     3.098517     3.087337     3.076158     3.064979     3.053799     3.042620     3.031440
      3.020261     3.009081     2.997902     2.986722     2.975543     2.964364     2.953184     2.942005     2.930825     2.919646
      2.908466     2.897287     2.886107     2.874928     2.863749     2.852569     2.841390     2.830210     2.819031     2.807851
      2.796672     2.785492     2.774313     2.763134     2.751954     2.740775     2.729595     2.718416     2.707236     2.696057
      2.684877     2.673698     2.662519     2.651339     2.640160     2.628980     2.617801     2.606621     2.595442     2.584262
      2.573083     2.561903     2.550724     2.539545     2.528365     2.517186     2.506006     2.494827     2.483647     2.472468
      2.461288     2.450109     2.438930     2.427750     2.416571     2.405391     2.394212     2.383032     2.371853     2.360673
      2.349494     2.338315     2.327135     2.315956     2.304776     2.293597     2.282417     2.271238     2.260058     2.248879
      2.237700     2.226520     2.215341     2.204161     2.192982     2.181802     2.170623     2.159443     2.148264     2.137084
      2.125905     2.114726     2.103546     2.092367     2.081187     2.070008     2.058828     2.047649     2.036469     2.025290
      2.014111     2.002931     1.991752     1.980572     1.969393     1.958213     1.947034     1.935854     1.924675     1.913496
      1.902316     1.891137     1.879957     1.868778     1.857598     1.846419     1.835239     1.824060     1.812881     1.801701
      1.790522     1.779342     1.768163     1.756983     1.745804     1.734624     1.723445     1.712265     1.701086     1.689907
      1.678727     1.667548     1.656368     1.645189     1.634009     1.622830     1.611650     1.600471     1.589292     1.578112
      1.566933     1.555753     1.544574     1.533394     1.522215     1.511035     1.499856     1.488677     1.477497     1.466318
      1.455138     1.443959     1.432779     1.421600     1.410420     1.399241     1.388062     1.376882     1.365703     1.354523
      1.343344     1.332164     1.320985     1.309805     1.298626     1.287446     1.276267     1.265088     1.253908     1.242729
      1.231549     1.220370     1.209190     1.198011     1.186831     1.175652     1.164473     1.153293     1.142114     1.130934
      1.119755     1.108575     1.097396     1.086216     1.075037     1.063858     1.052678     1.041499     1.030319     1.019140
      1.007960     0.996781     0.985601     0.974422     0.963243     0.952063     0.940884     0.929704     0.918525     0.907345
      0.896166     0.884986     0.873807     0.862628     0.851448     0.840269     0.829089     0.817910     0.806730     0.795551
      0.784371     0.773192     0.762012     0.750833     0.739654     0.728474     0.717295     0.706115     0.694936     0.683756
      0.672577     0.661397     0.650218     0.639039     0.627859     0.616680     0.605500     0.594321     0.583141     0.571962
      0.560782     0.549603     0.538424     0.527244     0.516065     0.504885     0.493706     0.482526     0.471347     0.460167
      0.448988     0.437809     0.426629     0.415450     0.404270     0.393091     0.381911     0.370732     0.359552     0.348373
      0.337193     0.326014     0.314835     0.303655     0.292476     0.281296     0.270117     0.258937     0.247758     0.236578
      0.225399     0.214220     0.203040
 NY phased data points follow
   5.38280E-09  8.39635E-09  9.85097E-09  1.02635E-08  9.20583E-09  9.36503E-09  7.87319E-09  7.64463E-09  7.20762E-09  7.09748E-09
   6.91010E-09  6.82794E-09  6.61130E-09  8.14344E-09  6.88875E-09  8.28445E-09  8.48933E-09  8.01850E-09  8.14047E-09  8.24557E-09
   8.57156E-09  8.71636E-09  7.26397E-09  7.53139E-09  7.55807E-09  8.70744E-09  9.40884E-09  9.22629E-09  8.60144E-09  8.16910E-09
   8.31092E-09  8.89199E-09  1.02603E-08  1.25290E-08  1.25445E-08  1.20377E-08  1.17630E-08  1.08404E-08  9.31564E-09  9.52721E-09
   9.43473E-09  8.90833E-09  8.15393E-09  8.23742E-09  8.06979E-09  7.10810E-09  7.31110E-09  7.23980E-09  6.16105E-09  6.35858E-09
   5.63016E-09  6.37612E-09  6.51225E-09  5.89203E-09  5.89530E-09  5.20852E-09  4.03286E-09  4.88179E-09  4.57021E-09  4.13608E-09
   3.99555E-09  4.13905E-09  6.04692E-09  8.96280E-09  1.25271E-08  1.36182E-08  1.23993E-08  1.16193E-08  9.86526E-09  9.67424E-09
   8.18699E-09  8.19206E-09  6.83573E-09  6.71134E-09  5.56771E-09  5.50639E-09  4.77265E-09  4.57325E-09  5.32259E-09  8.74032E-09
   1.17946E-08  1.38524E-08  1.41218E-08  1.40057E-08  1.33325E-08  1.28193E-08  1.20163E-08  1.18175E-08  1.10799E-08  1.08072E-08
   1.02139E-08  1.03476E-08  9.04599E-09  9.10691E-09  8.67219E-09  8.04010E-09  7.98150E-09  7.19381E-09  7.72882E-09  7.56936E-09
   6.59468E-09  7.25342E-09  6.40295E-09  6.97535E-09  7.00487E-09  6.00312E-09  6.68284E-09  6.40337E-09  5.51297E-09  5.20761E-09
   4.70081E-09  4.53160E-09  4.20315E-09  4.85780E-09  5.08989E-09  5.16513E-09  4.80875E-09  5.26723E-09  5.00301E-09  6.25817E-09
   6.04562E-09  6.14977E-09  5.18096E-09  5.40626E-09  4.31421E-09  4.34833E-09  3.35545E-09  3.68684E-09  3.70757E-09  4.84514E-09
   4.09046E-09  4.32950E-09  3.54628E-09  4.41822E-09  3.57567E-09  3.43801E-09  3.41868E-09  3.77934E-09  2.86871E-09  3.65856E-09
   4.48108E-09  5.11778E-09  5.23227E-09  4.69413E-09  4.95066E-09  5.08766E-09  5.85443E-09  6.28272E-09  6.30231E-09  6.28586E-09
   5.84158E-09  6.48250E-09  5.89355E-09  5.06303E-09  5.35874E-09  5.34811E-09  5.31254E-09  5.76783E-09  5.59350E-09  5.54605E-09
   5.57408E-09  5.48466E-09  5.81138E-09  5.12190E-09  4.60772E-09  4.90324E-09  5.56553E-09  7.30443E-09  7.77408E-09  9.67766E-09
   1.26752E-08  1.73204E-08  1.81591E-08  1.64135E-08  1.37928E-08  1.20682E-08  1.09124E-08  9.34804E-09  8.11180E-09  7.56636E-09
   6.45834E-09  5.34340E-09  4.71183E-09  3.94784E-09  2.97840E-09  2.08491E-09  8.60868E-10  1.88267E-10 -1.26365E-09 -2.22392E-09
  -3.35347E-09 -4.27750E-09 -6.19473E-09 -7.31810E-09 -9.01785E-09 -1.01693E-08 -1.19668E-08 -1.35101E-08 -1.52522E-08 -1.59229E-08
  -1.64332E-08 -1.73698E-08 -1.70520E-08 -1.69682E-08 -1.60627E-08 -1.51589E-08 -1.39808E-08 -1.22883E-08 -1.15184E-08 -8.76918E-09
  -7.57615E-09 -5.06529E-09 -4.10711E-09 -2.76498E-09 -1.30641E-09 -2.30201E-10 -6.30130E-10  1.14331E-10 -1.68239E-10 -2.42689E-10
  -7.47761E-10 -1.31090E-09 -4.13655E-10 -9.99296E-10 -1.66114E-09 -7.41682E-10 -6.43362E-10 -7.47309E-10 -9.43236E-11 -6.50810E-10
  -3.55205E-10 -6.54468E-10 -9.18538E-10 -8.97645E-10 -1.05835E-09 -1.01587E-09 -1.03947E-09 -3.78185E-10 -2.66979E-10 -2.85695E-10
  -4.86958E-13 -8.84117E-10 -3.21505E-10 -7.81320E-11 -6.51875E-10 -7.93637E-10 -1.29371E-09 -4.91543E-10 -1.04217E-09  1.49859E-10
  -1.02873E-10 -4.33431E-11  1.45281E-10  6.72874E-10  3.77338E-10 -7.02161E-11  2.33779E-10 -4.06413E-10 -2.71196E-10 -9.74138E-10
  -6.42605E-10 -5.87920E-10 -1.12223E-09 -9.50513E-10 -6.80950E-10 -7.00069E-10 -5.66227E-10  1.47955E-10 -5.17694E-10  9.67530E-10
   6.74162E-10  8.16171E-10  6.08422E-10  6.97046E-10  9.96389E-10  8.98810E-10  6.68964E-10  7.41318E-10  4.51713E-10  3.83831E-10
  -4.19632E-10 -4.57937E-10 -2.02002E-10 -5.88189E-10 -2.85495E-10 -3.53121E-10 -3.09682E-11 -1.23644E-10 -6.96382E-10  1.14294E-10
  -3.43909E-10 -5.57485E-10 -5.22992E-11 -3.25924E-11 -1.45183E-10  1.16172E-10  3.02543E-10 -4.13844E-10 -3.13857E-10 -1.21224E-10
   1.28387E-10 -2.49547E-10  3.79304E-11 -8.27098E-11  6.06735E-12  1.45208E-10 -3.95925E-10  1.99766E-10 -1.30938E-10 -2.11168E-10
   5.83706E-11  1.10100E-10  3.55071E-10  1.26628E-10  9.06484E-10  9.20768E-11  4.32257E-10  2.82430E-10  7.06388E-10  8.57695E-10
  -2.36448E-11  4.00052E-10  8.25666E-10  8.87460E-10  5.31619E-10  6.79085E-10  1.14417E-10  7.98058E-10  6.08884E-10  1.12939E-09
   6.30899E-10  8.58104E-10  7.23825E-10  1.16550E-09  5.52075E-10  1.15584E-09  7.70778E-10  6.50485E-10  1.00129E-09  6.44772E-10
   1.16424E-09  9.32757E-10  9.44709E-10  1.06337E-09  1.81080E-09  1.03555E-09  1.20793E-09  8.87500E-10  1.23207E-09  1.47384E-09
   9.80300E-10  1.40469E-09  8.62647E-10  6.97920E-10  1.92383E-09  1.53834E-09  1.21977E-09  1.26793E-09  2.05262E-09  1.05167E-09
   1.48594E-09  1.34284E-09  7.91938E-10
 NY points of the fit to the data follow
   6.72255E-09  8.57230E-09  9.34153E-09  8.42778E-09  8.31418E-09  8.68910E-09  8.72419E-09  8.34129E-09  7.78067E-09  7.52227E-09
   7.40661E-09  6.99163E-09  7.01488E-09  7.20940E-09  7.57625E-09  7.74246E-09  7.68215E-09  8.07179E-09  8.73840E-09  8.80067E-09
   8.36014E-09  7.96373E-09  7.60579E-09  7.40093E-09  7.58060E-09  7.69864E-09  8.04476E-09  8.65349E-09  9.37289E-09  9.93232E-09
   1.00935E-08  1.00646E-08  1.04275E-08  1.08034E-08  1.08165E-08  1.03929E-08  1.03994E-08  1.03209E-08  1.00272E-08  9.73367E-09
   9.69446E-09  9.71235E-09  9.05395E-09  7.99610E-09  7.39152E-09  6.99619E-09  6.69947E-09  6.45197E-09  6.22479E-09  6.01822E-09
   5.81407E-09  5.64672E-09  5.54422E-09  5.45206E-09  5.33680E-09  5.33768E-09  5.38100E-09  5.46583E-09  5.84191E-09  6.40160E-09
   6.86628E-09  7.39414E-09  8.11700E-09  8.73939E-09  9.22955E-09  9.60312E-09  9.76694E-09  9.94034E-09  9.90650E-09  9.16569E-09
   8.51737E-09  8.26685E-09  7.83763E-09  7.20277E-09  6.93773E-09  6.93370E-09  7.02915E-09  7.71935E-09  8.73967E-09  9.86389E-09
   1.11588E-08  1.25881E-08  1.35845E-08  1.38153E-08  1.37033E-08  1.35068E-08  1.32113E-08  1.28026E-08  1.13126E-08  1.00525E-08
   9.31579E-09  8.80781E-09  8.43078E-09  8.11504E-09  7.86222E-09  7.65288E-09  7.46401E-09  7.29904E-09  7.15309E-09  7.02226E-09
   6.90361E-09  6.79488E-09  6.69447E-09  6.60121E-09  6.51393E-09  6.43190E-09  6.35429E-09  6.28049E-09  6.20999E-09  6.14238E-09
   6.07727E-09  6.01435E-09  5.95330E-09  5.89388E-09  5.83580E-09  5.77879E-09  5.72264E-09  5.66709E-09  5.61197E-09  5.55706E-09
   5.50220E-09  5.44720E-09  5.39191E-09  5.33616E-09  5.27981E-09  5.22271E-09  5.16472E-09  5.10571E-09  5.04555E-09  4.98411E-09
   4.92126E-09  4.85688E-09  4.79087E-09  4.72310E-09  4.65347E-09  4.58185E-09  4.50816E-09  4.43230E-09  4.35416E-09  4.27363E-09
   4.19062E-09  4.10511E-09  4.01705E-09  3.92643E-09  3.83321E-09  3.73739E-09  3.63897E-09  3.53794E-09  3.43433E-09  3.32817E-09
   3.21951E-09  3.10843E-09  2.99505E-09  2.87951E-09  2.76204E-09  2.64295E-09  2.52270E-09  2.40191E-09  2.28154E-09  2.16302E-09
   2.04865E-09  1.94224E-09  1.85071E-09  1.78757E-09  1.78404E-09  1.93139E-09  2.63619E-09  5.15336E-09  8.01391E-09  1.08560E-08
   1.41012E-08  1.70019E-08  1.79655E-08  1.67423E-08  1.47524E-08  1.34612E-08  1.25337E-08  9.45145E-09  3.52688E-09  6.43957E-10
  -3.23227E-10 -8.49366E-10 -1.21687E-09 -1.50889E-09 -1.75803E-09 -1.97950E-09 -2.18121E-09 -2.36758E-09 -2.54116E-09 -2.70350E-09
  -2.85550E-09 -2.99768E-09 -3.13028E-09 -3.25336E-09 -3.36690E-09 -3.47079E-09 -3.56496E-09 -3.64972E-09 -3.72543E-09 -3.79242E-09
  -3.85101E-09 -3.90149E-09 -3.94415E-09 -3.97927E-09 -4.00711E-09 -4.02793E-09 -4.04201E-09 -4.04958E-09 -4.05090E-09 -4.04623E-09
  -4.03580E-09 -4.01986E-09 -3.99865E-09 -3.97242E-09 -3.94141E-09 -3.90585E-09 -3.86597E-09 -3.82202E-09 -3.77423E-09 -3.72283E-09
  -3.66805E-09 -3.61013E-09 -3.54929E-09 -3.48575E-09 -3.41974E-09 -3.35144E-09 -3.28102E-09 -3.20868E-09 -3.13458E-09 -3.05891E-09
  -2.98184E-09 -2.90355E-09 -2.82422E-09 -2.74400E-09 -2.66307E-09 -2.58161E-09 -2.49977E-09 -2.41772E-09 -2.33562E-09 -2.25365E-09
  -2.17194E-09 -2.09066E-09 -2.00997E-09 -1.93002E-09 -1.85094E-09 -1.77290E-09 -1.69603E-09 -1.62048E-09 -1.54639E-09 -1.47390E-09
  -1.40312E-09 -1.33422E-09 -1.26722E-09 -1.20209E-09 -1.13879E-09 -1.07728E-09 -1.01749E-09 -9.59390E-10 -9.02930E-10 -8.48067E-10
  -7.94756E-10 -7.42947E-10 -6.92603E-10 -6.43672E-10 -5.96119E-10 -5.49896E-10 -5.04951E-10 -4.61264E-10 -4.18781E-10 -3.77457E-10
  -3.37253E-10 -2.98137E-10 -2.60059E-10 -2.22985E-10 -1.86886E-10 -1.51705E-10 -1.17426E-10 -8.40012E-11 -5.14008E-11 -1.95841E-11
   1.14722E-11  4.17918E-11  7.13989E-11  1.00316E-10  1.28562E-10  1.56161E-10  1.83131E-10  2.09493E-10  2.35268E-10  2.60471E-10
   2.85122E-10  3.09238E-10  3.32836E-10  3.55931E-10  3.78539E-10  4.00675E-10  4.22352E-10  4.43583E-10  4.64379E-10  4.84756E-10
   5.04720E-10  5.24284E-10  5.43458E-10  5.62246E-10  5.80660E-10  5.98707E-10  6.16390E-10  6.33716E-10  6.50673E-10  6.67239E-10
   6.83394E-10  6.99120E-10  7.14395E-10  7.29200E-10  7.43516E-10  7.57324E-10  7.70604E-10  7.83338E-10  7.95509E-10  8.07098E-10
   8.18086E-10  8.28457E-10  8.38194E-10  8.47279E-10  8.55696E-10  8.63430E-10  8.70463E-10  8.76779E-10  8.82365E-10  8.87204E-10
   8.91281E-10  8.94584E-10  8.97096E-10  8.98805E-10  8.99698E-10  8.99760E-10  8.98979E-10  8.97342E-10  8.94836E-10  8.91449E-10
   8.87169E-10  8.81985E-10  8.75885E-10  8.68859E-10  8.60897E-10  8.51989E-10  8.42126E-10  8.31298E-10  8.19499E-10  8.06718E-10
   7.92950E-10  7.78186E-10  7.62419E-10  7.45644E-10  7.27855E-10  7.09047E-10  6.89214E-10  6.68351E-10  6.46454E-10  6.23521E-10
   5.99549E-10  5.74534E-10  5.48472E-10
 NY background values follow
     2.084E-09    2.129E-09    2.172E-09    2.216E-09    2.258E-09    2.301E-09    2.342E-09    2.384E-09    2.425E-09    2.465E-09
     2.505E-09    2.544E-09    2.583E-09    2.622E-09    2.660E-09    2.697E-09    2.734E-09    2.771E-09    2.807E-09    2.842E-09
     2.877E-09    2.911E-09    2.945E-09    2.979E-09    3.012E-09    3.044E-09    3.076E-09    3.107E-09    3.138E-09    3.168E-09
     3.198E-09    3.228E-09    3.256E-09    3.285E-09    3.312E-09    3.340E-09    3.366E-09    3.393E-09    3.419E-09    3.444E-09
     3.469E-09    3.493E-09    3.517E-09    3.541E-09    3.564E-09    3.587E-09    3.609E-09    3.631E-09    3.652E-09    3.673E-09
     3.694E-09    3.714E-09    3.734E-09    3.754E-09    3.773E-09    3.792E-09    3.810E-09    3.829E-09    3.847E-09    3.864E-09
     3.882E-09    3.899E-09    3.915E-09    3.932E-09    3.948E-09    3.963E-09    3.979E-09    3.994E-09    4.008E-09    4.023E-09
     4.037E-09    4.050E-09    4.064E-09    4.077E-09    4.089E-09    4.101E-09    4.113E-09    4.125E-09    4.136E-09    4.146E-09
     4.157E-09    4.166E-09    4.176E-09    4.185E-09    4.194E-09    4.202E-09    4.210E-09    4.217E-09    4.224E-09    4.230E-09
     4.236E-09    4.242E-09    4.247E-09    4.251E-09    4.255E-09    4.258E-09    4.261E-09    4.263E-09    4.265E-09    4.266E-09
     4.266E-09    4.266E-09    4.265E-09    4.264E-09    4.261E-09    4.258E-09    4.255E-09    4.251E-09    4.245E-09    4.240E-09
     4.233E-09    4.226E-09    4.217E-09    4.208E-09    4.198E-09    4.187E-09    4.175E-09    4.162E-09    4.148E-09    4.132E-09
     4.115E-09    4.096E-09    4.076E-09    4.054E-09    4.030E-09    4.005E-09    3.978E-09    3.949E-09    3.918E-09    3.884E-09
     3.849E-09    3.811E-09    3.771E-09    3.728E-09    3.683E-09    3.635E-09    3.584E-09    3.531E-09    3.474E-09    3.415E-09
     3.353E-09    3.288E-09    3.219E-09    3.147E-09    3.073E-09    2.995E-09    2.913E-09    2.829E-09    2.741E-09    2.650E-09
     2.556E-09    2.458E-09    2.357E-09    2.252E-09    2.145E-09    2.033E-09    1.919E-09    1.800E-09    1.679E-09    1.554E-09
     1.425E-09    1.293E-09    1.158E-09    1.019E-09    8.759E-10    7.298E-10    5.801E-10    4.268E-10    2.700E-10    1.101E-10
    -5.247E-11   -2.173E-10   -3.840E-10   -5.521E-10   -7.211E-10   -8.905E-10   -1.060E-09   -1.229E-09   -1.397E-09   -1.564E-09
    -1.729E-09   -1.892E-09   -2.052E-09   -2.209E-09   -2.363E-09   -2.512E-09   -2.658E-09   -2.798E-09   -2.933E-09   -3.062E-09
    -3.185E-09   -3.302E-09   -3.411E-09   -3.513E-09   -3.608E-09   -3.694E-09   -3.771E-09   -3.840E-09   -3.901E-09   -3.954E-09
    -3.999E-09   -4.037E-09   -4.067E-09   -4.090E-09   -4.107E-09   -4.117E-09   -4.120E-09   -4.117E-09   -4.108E-09   -4.094E-09
    -4.074E-09   -4.048E-09   -4.018E-09   -3.983E-09   -3.943E-09   -3.899E-09   -3.850E-09   -3.798E-09   -3.742E-09   -3.682E-09
    -3.620E-09   -3.554E-09   -3.486E-09   -3.415E-09   -3.341E-09   -3.266E-09   -3.188E-09   -3.108E-09   -3.027E-09   -2.945E-09
    -2.861E-09   -2.776E-09   -2.690E-09   -2.603E-09   -2.516E-09   -2.428E-09   -2.340E-09   -2.252E-09   -2.163E-09   -2.075E-09
    -1.988E-09   -1.900E-09   -1.814E-09   -1.728E-09   -1.643E-09   -1.559E-09   -1.477E-09   -1.396E-09   -1.316E-09   -1.238E-09
    -1.162E-09   -1.088E-09   -1.016E-09   -9.455E-10   -8.770E-10   -8.104E-10   -7.456E-10   -6.825E-10   -6.211E-10   -5.613E-10
    -5.032E-10   -4.466E-10   -3.915E-10   -3.379E-10   -2.857E-10   -2.349E-10   -1.854E-10   -1.372E-10   -9.024E-11   -4.450E-11
     8.349E-14    4.353E-11    8.590E-11    1.272E-10    1.675E-10    2.069E-10    2.453E-10    2.828E-10    3.194E-10    3.552E-10
     3.903E-10    4.245E-10    4.580E-10    4.908E-10    5.228E-10    5.542E-10    5.849E-10    6.150E-10    6.444E-10    6.733E-10
     7.015E-10    7.292E-10    7.563E-10    7.829E-10    8.090E-10    8.345E-10    8.596E-10    8.842E-10    9.083E-10    9.320E-10
     9.552E-10    9.780E-10    1.000E-09    1.022E-09    1.044E-09    1.065E-09    1.086E-09    1.106E-09    1.126E-09    1.146E-09
     1.165E-09    1.183E-09    1.202E-09    1.219E-09    1.236E-09    1.253E-09    1.269E-09    1.285E-09    1.299E-09    1.314E-09
     1.327E-09    1.340E-09    1.353E-09    1.364E-09    1.375E-09    1.386E-09    1.395E-09    1.404E-09    1.412E-09    1.419E-09
     1.426E-09    1.431E-09    1.436E-09    1.440E-09    1.443E-09    1.446E-09    1.447E-09    1.448E-09    1.447E-09    1.446E-09
     1.444E-09    1.441E-09    1.437E-09    1.432E-09    1.426E-09    1.419E-09    1.411E-09    1.402E-09    1.393E-09    1.382E-09
     1.370E-09    1.357E-09    1.343E-09    1.328E-09    1.312E-09    1.295E-09    1.277E-09    1.258E-09    1.238E-09    1.216E-09
     1.194E-09    1.171E-09    1.146E-09
 Cr       Conc. = 5.58E-10
   3.31290E-09  3.75472E-09  4.01803E-09  3.50090E-09  3.17557E-09  2.99636E-09  2.88606E-09  2.81361E-09  2.76430E-09  2.73010E-09
   2.70621E-09  2.68949E-09  2.67783E-09  2.66963E-09  2.66372E-09  2.65914E-09  2.65507E-09  2.65079E-09  2.64558E-09  2.63874E-09
   2.62949E-09  2.61696E-09  2.60009E-09  2.57755E-09  2.54757E-09  2.50777E-09  2.45468E-09  2.38303E-09  2.28444E-09  2.14506E-09
   1.94982E-09  1.91460E-09  2.22571E-09  2.63796E-09  3.22800E-09  4.09122E-09  5.02060E-09  5.65691E-09  5.92109E-09  6.07443E-09
   6.41148E-09  6.75902E-09  6.38761E-09  5.56061E-09  5.15893E-09  4.92454E-09  4.77034E-09  4.66164E-09  4.58163E-09  4.52106E-09
   4.47436E-09  4.43788E-09  4.40921E-09  4.38662E-09  4.36889E-09  4.35500E-09  4.34429E-09  4.33622E-09  4.33033E-09  4.32625E-09
   4.32370E-09  4.32244E-09  4.32226E-09  4.32299E-09  4.32449E-09  4.32666E-09  4.32936E-09  4.33251E-09  4.33604E-09  4.33987E-09
   4.34394E-09  4.34820E-09  4.35260E-09  4.35709E-09  4.36162E-09  4.36618E-09  4.37072E-09  4.37520E-09  4.37961E-09  4.38393E-09
   4.38810E-09  4.39214E-09  4.39598E-09  4.39967E-09  4.40310E-09  4.40633E-09  4.40930E-09  4.41200E-09  4.41440E-09  4.41647E-09
   4.41822E-09  4.41959E-09  4.42060E-09  4.42120E-09  4.42138E-09  4.42111E-09  4.42040E-09  4.41921E-09  4.41752E-09  4.41533E-09
   4.41259E-09  4.40931E-09  4.40546E-09  4.40102E-09  4.39598E-09  4.39031E-09  4.38401E-09  4.37704E-09  4.36939E-09  4.36106E-09
   4.35201E-09  4.34224E-09  4.33169E-09  4.32035E-09  4.30815E-09  4.29497E-09  4.28078E-09  4.26547E-09  4.24897E-09  4.23119E-09
   4.21207E-09  4.19150E-09  4.16943E-09  4.14575E-09  4.12040E-09  4.09328E-09  4.06431E-09  4.03342E-09  4.00051E-09  3.96551E-09
   3.92832E-09  3.88886E-09  3.84706E-09  3.80281E-09  3.75605E-09  3.70668E-09  3.65462E-09  3.59980E-09  3.54212E-09  3.48149E-09
   3.41782E-09  3.35111E-09  3.28130E-09  3.20837E-09  3.13231E-09  3.05306E-09  2.97064E-09  2.88499E-09  2.79611E-09  2.70397E-09
   2.60857E-09  2.50988E-09  2.40789E-09  2.30261E-09  2.19402E-09  2.08214E-09  1.96698E-09  1.84858E-09  1.72701E-09  1.60235E-09
   1.47479E-09  1.34466E-09  1.21260E-09  1.07989E-09  9.49998E-10  8.34693E-10  7.99174E-10  8.52066E-10  8.88986E-10  9.40392E-10
   1.00321E-09  9.84987E-10  8.10562E-10  5.30926E-10  2.60099E-10  4.44891E-11 -2.26921E-10 -7.10297E-10 -1.19183E-09 -1.43926E-09
  -1.63733E-09 -1.81806E-09 -1.98956E-09 -2.15452E-09 -2.31391E-09 -2.46804E-09 -2.61688E-09 -2.76026E-09 -2.89788E-09 -3.02944E-09
  -3.15458E-09 -3.27294E-09 -3.38413E-09 -3.48775E-09 -3.58342E-09 -3.67075E-09 -3.74947E-09 -3.81972E-09 -3.88173E-09 -3.93573E-09
  -3.98192E-09 -4.02055E-09 -4.05184E-09 -4.07600E-09 -4.09328E-09 -4.10388E-09 -4.10805E-09 -4.10601E-09 -4.09798E-09 -4.08419E-09
  -4.06488E-09 -4.04027E-09 -4.01059E-09 -3.97607E-09 -3.93693E-09 -3.89341E-09 -3.84573E-09 -3.79412E-09 -3.73881E-09 -3.68002E-09
  -3.61798E-09 -3.55291E-09 -3.48503E-09 -3.41458E-09 -3.34176E-09 -3.26674E-09 -3.18972E-09 -3.11085E-09 -3.03033E-09 -2.94832E-09
  -2.86500E-09 -2.78054E-09 -2.69512E-09 -2.60889E-09 -2.52203E-09 -2.43471E-09 -2.34708E-09 -2.25932E-09 -2.17157E-09 -2.08402E-09
  -1.99680E-09 -1.91007E-09 -1.82400E-09 -1.73872E-09 -1.65438E-09 -1.57113E-09 -1.48912E-09 -1.40848E-09 -1.32936E-09 -1.25189E-09
  -1.17619E-09 -1.10241E-09 -1.03060E-09 -9.60703E-10 -8.92685E-10 -8.26502E-10 -7.62095E-10 -6.99427E-10 -6.38444E-10 -5.79104E-10
  -5.21364E-10 -4.65169E-10 -4.10484E-10 -3.57257E-10 -3.05451E-10 -2.55018E-10 -2.05906E-10 -1.58092E-10 -1.11524E-10 -6.61562E-11
  -2.19482E-11  2.11313E-11  6.31339E-11  1.04093E-10  1.44040E-10  1.83030E-10  2.21081E-10  2.58240E-10  2.94539E-10  3.30017E-10
   3.64700E-10  3.98610E-10  4.31773E-10  4.64210E-10  4.95943E-10  5.26994E-10  5.57382E-10  5.87130E-10  6.16256E-10  6.44778E-10
   6.72716E-10  7.00086E-10  7.26907E-10  7.53193E-10  7.78961E-10  8.04225E-10  8.28999E-10  8.53297E-10  8.77130E-10  9.00514E-10
   9.23455E-10  9.45966E-10  9.68058E-10  9.89735E-10  1.01101E-09  1.03189E-09  1.05237E-09  1.07248E-09  1.09218E-09  1.11146E-09
   1.13031E-09  1.14870E-09  1.16661E-09  1.18403E-09  1.20093E-09  1.21729E-09  1.23310E-09  1.24834E-09  1.26299E-09  1.27703E-09
   1.29044E-09  1.30322E-09  1.31533E-09  1.32676E-09  1.33750E-09  1.34754E-09  1.35685E-09  1.36541E-09  1.37322E-09  1.38027E-09
   1.38652E-09  1.39198E-09  1.39662E-09  1.40043E-09  1.40341E-09  1.40553E-09  1.40678E-09  1.40716E-09  1.40664E-09  1.40522E-09
   1.40288E-09  1.39961E-09  1.39541E-09  1.39026E-09  1.38415E-09  1.37707E-09  1.36901E-09  1.35997E-09  1.34994E-09  1.33890E-09
   1.32685E-09  1.31378E-09  1.29969E-09  1.28457E-09  1.26841E-09  1.25121E-09  1.23297E-09  1.21367E-09  1.19332E-09  1.17192E-09
   1.14945E-09  1.12592E-09  1.10132E-09
 Glc      Conc. = 5.83E-10
   1.52980E-09  1.80501E-09  2.05156E-09  2.31226E-09  2.54328E-09  2.74624E-09  2.83819E-09  2.93388E-09  2.98278E-09  2.89675E-09
   2.82732E-09  2.76882E-09  2.68838E-09  2.67547E-09  2.79980E-09  2.99077E-09  3.21874E-09  3.54839E-09  3.92648E-09  4.26315E-09
   4.53084E-09  4.69289E-09  4.78831E-09  4.93142E-09  5.00304E-09  4.86269E-09  4.69741E-09  4.59008E-09  4.54114E-09  4.54082E-09
   4.52385E-09  4.48295E-09  4.47745E-09  4.47153E-09  4.41077E-09  4.36060E-09  4.33980E-09  4.30645E-09  4.26354E-09  4.23178E-09
   4.20935E-09  4.19278E-09  4.18086E-09  4.17244E-09  4.16680E-09  4.16341E-09  4.16190E-09  4.16193E-09  4.16323E-09  4.16562E-09
   4.16893E-09  4.17300E-09  4.17776E-09  4.18307E-09  4.18892E-09  4.19514E-09  4.20171E-09  4.20862E-09  4.21579E-09  4.22316E-09
   4.23070E-09  4.23838E-09  4.24615E-09  4.25397E-09  4.26183E-09  4.26970E-09  4.27755E-09  4.28535E-09  4.29310E-09  4.30075E-09
   4.30830E-09  4.31574E-09  4.32303E-09  4.33017E-09  4.33714E-09  4.34393E-09  4.35052E-09  4.35690E-09  4.36305E-09  4.36897E-09
   4.37462E-09  4.38004E-09  4.38515E-09  4.39000E-09  4.39453E-09  4.39877E-09  4.40268E-09  4.40624E-09  4.40945E-09  4.41227E-09
   4.41472E-09  4.41674E-09  4.41835E-09  4.41952E-09  4.42022E-09  4.42044E-09  4.42019E-09  4.41942E-09  4.41812E-09  4.41630E-09
   4.41390E-09  4.41094E-09  4.40738E-09  4.40322E-09  4.39843E-09  4.39300E-09  4.38692E-09  4.38015E-09  4.37269E-09  4.36453E-09
   4.35565E-09  4.34602E-09  4.33561E-09  4.32440E-09  4.31231E-09  4.29924E-09  4.28515E-09  4.26993E-09  4.25351E-09  4.23580E-09
   4.21674E-09  4.19624E-09  4.17421E-09  4.15058E-09  4.12526E-09  4.09818E-09  4.06924E-09  4.03837E-09  4.00549E-09  3.97050E-09
   3.93332E-09  3.89387E-09  3.85207E-09  3.80782E-09  3.76106E-09  3.71168E-09  3.65961E-09  3.60477E-09  3.54707E-09  3.48643E-09
   3.42273E-09  3.35599E-09  3.28616E-09  3.21320E-09  3.13710E-09  3.05782E-09  2.97535E-09  2.88966E-09  2.80073E-09  2.70854E-09
   2.61309E-09  2.51434E-09  2.41229E-09  2.30693E-09  2.19827E-09  2.08629E-09  1.97103E-09  1.85250E-09  1.73078E-09  1.60592E-09
   1.47809E-09  1.34755E-09  1.21485E-09  1.08097E-09  9.48447E-10  8.25000E-10  7.47570E-10  8.18362E-10  8.71523E-10  9.27562E-10
   1.01645E-09  1.06001E-09  9.37230E-10  6.62619E-10  3.61507E-10  1.30175E-10 -9.16538E-11 -5.14612E-10 -1.12895E-09 -1.41557E-09
  -1.62363E-09 -1.80825E-09 -1.98170E-09 -2.14780E-09 -2.30793E-09 -2.46257E-09 -2.61180E-09 -2.75547E-09 -2.89333E-09 -3.02508E-09
  -3.15039E-09 -3.26890E-09 -3.38023E-09 -3.48396E-09 -3.57974E-09 -3.66717E-09 -3.74598E-09 -3.81632E-09 -3.87841E-09 -3.93248E-09
  -3.97875E-09 -4.01745E-09 -4.04881E-09 -4.07304E-09 -4.09038E-09 -4.10105E-09 -4.10528E-09 -4.10329E-09 -4.09532E-09 -4.08160E-09
  -4.06234E-09 -4.03779E-09 -4.00816E-09 -3.97369E-09 -3.93461E-09 -3.89114E-09 -3.84352E-09 -3.79196E-09 -3.73670E-09 -3.67796E-09
  -3.61596E-09 -3.55094E-09 -3.48312E-09 -3.41271E-09 -3.33994E-09 -3.26497E-09 -3.18799E-09 -3.10917E-09 -3.02869E-09 -2.94673E-09
