 LCModel (Version 6.3-1R) Copyright: S.W. Provencher.          Ref.: Magn. Reson. Med. 30:672-679 (1993).                
 onepulse 25x17_ftSpec_smooth_lcm
 26 lines in following concentration table = NCONC+1
    Conc.  %SD /Cr+PCr  Metabolite                                         
    0.000 999%   0.000 Ala                                                 
    0.000 999%   0.000 Asp                                                 
 2.47E-10 105%   1.000 Cr                                                  
    0.000 999%   0.000 GABA                                                
    0.000 999%   0.000 Glc                                                 
 2.74E-09  20%  11.113 Gln                                                 
    0.000 999%   0.000 Glu                                                 
 9.44E-10  40%   3.830 Glyc                                                
 1.47E-10  69%   0.598 GPC                                                 
    0.000 999%   0.000 GSH                                                 
    0.000 999%   0.000 Ins                                                 
    0.000 999%   0.000 Lac                                                 
    0.000 999%   0.000 NAAG                                                
 3.43E-10  78%   1.393 NAA                                                 
    0.000 999%   0.000 PCh                                                 
    0.000 999%   0.000 PCr                                                 
    0.000 999%   0.000 PE                                                  
    0.000 999%   0.000 Scyllo                                              
 3.20E-09  23%  12.991 Ser                                                 
 1.09E-09  33%   4.404 Tau                                                 
 1.47E-10  69%   0.598 GPC+PCh                                             
 3.43E-10  78%   1.393 NAA+NAAG                                            
 9.44E-10  40%   3.830 Ins+Glyc                                            
 2.47E-10 105%   1.000 Cr+PCr                                              
 2.74E-09  20%  11.113 Glu+Gln                                             
   6 lines in following misc. output table
  FWHM = 0.089 ppm    S/N =   3                                            
  Data shift = 0.335 ppm                                                   
  Ph: -63 deg     -31.3 deg/ppm                                            
  alphaB,S = 1.9E-01,   3.6E-01                                            
   16 spline knots.   Ns = 5(1)                                            
  ( 7) 2 infls.   ( 5) 1 extrs.                                            
  363 points on ppm-axis = NY
      4.250000     4.238821     4.227641     4.216462     4.205282     4.194103     4.182923     4.171744     4.160564     4.149385
      4.138206     4.127026     4.115847     4.104667     4.093488     4.082308     4.071129     4.059949     4.048770     4.037591
      4.026411     4.015232     4.004052     3.992873     3.981693     3.970514     3.959334     3.948155     3.936975     3.925796
      3.914617     3.903437     3.892258     3.881078     3.869899     3.858719     3.847540     3.836360     3.825181     3.814002
      3.802822     3.791643     3.780463     3.769284     3.758104     3.746925     3.735745     3.724566     3.713387     3.702207
      3.691028     3.679848     3.668669     3.657489     3.646310     3.635130     3.623951     3.612772     3.601592     3.590413
      3.579233     3.568054     3.556874     3.545695     3.534515     3.523336     3.512156     3.500977     3.489798     3.478618
      3.467439     3.456259     3.445080     3.433900     3.422721     3.411541     3.400362     3.389183     3.378003     3.366824
      3.355644     3.344465     3.333285     3.322106     3.310926     3.299747     3.288568     3.277388     3.266209     3.255029
      3.243850     3.232670     3.221491     3.210311     3.199132     3.187953     3.176773     3.165594     3.154414     3.143235
      3.132055     3.120876     3.109696     3.098517     3.087337     3.076158     3.064979     3.053799     3.042620     3.031440
      3.020261     3.009081     2.997902     2.986722     2.975543     2.964364     2.953184     2.942005     2.930825     2.919646
      2.908466     2.897287     2.886107     2.874928     2.863749     2.852569     2.841390     2.830210     2.819031     2.807851
      2.796672     2.785492     2.774313     2.763134     2.751954     2.740775     2.729595     2.718416     2.707236     2.696057
      2.684877     2.673698     2.662519     2.651339     2.640160     2.628980     2.617801     2.606621     2.595442     2.584262
      2.573083     2.561903     2.550724     2.539545     2.528365     2.517186     2.506006     2.494827     2.483647     2.472468
      2.461288     2.450109     2.438930     2.427750     2.416571     2.405391     2.394212     2.383032     2.371853     2.360673
      2.349494     2.338315     2.327135     2.315956     2.304776     2.293597     2.282417     2.271238     2.260058     2.248879
      2.237700     2.226520     2.215341     2.204161     2.192982     2.181802     2.170623     2.159443     2.148264     2.137084
      2.125905     2.114726     2.103546     2.092367     2.081187     2.070008     2.058828     2.047649     2.036469     2.025290
      2.014111     2.002931     1.991752     1.980572     1.969393     1.958213     1.947034     1.935854     1.924675     1.913496
      1.902316     1.891137     1.879957     1.868778     1.857598     1.846419     1.835239     1.824060     1.812881     1.801701
      1.790522     1.779342     1.768163     1.756983     1.745804     1.734624     1.723445     1.712265     1.701086     1.689907
      1.678727     1.667548     1.656368     1.645189     1.634009     1.622830     1.611650     1.600471     1.589292     1.578112
      1.566933     1.555753     1.544574     1.533394     1.522215     1.511035     1.499856     1.488677     1.477497     1.466318
      1.455138     1.443959     1.432779     1.421600     1.410420     1.399241     1.388062     1.376882     1.365703     1.354523
      1.343344     1.332164     1.320985     1.309805     1.298626     1.287446     1.276267     1.265088     1.253908     1.242729
      1.231549     1.220370     1.209190     1.198011     1.186831     1.175652     1.164473     1.153293     1.142114     1.130934
      1.119755     1.108575     1.097396     1.086216     1.075037     1.063858     1.052678     1.041499     1.030319     1.019140
      1.007960     0.996781     0.985601     0.974422     0.963243     0.952063     0.940884     0.929704     0.918525     0.907345
      0.896166     0.884986     0.873807     0.862628     0.851448     0.840269     0.829089     0.817910     0.806730     0.795551
      0.784371     0.773192     0.762012     0.750833     0.739654     0.728474     0.717295     0.706115     0.694936     0.683756
      0.672577     0.661397     0.650218     0.639039     0.627859     0.616680     0.605500     0.594321     0.583141     0.571962
      0.560782     0.549603     0.538424     0.527244     0.516065     0.504885     0.493706     0.482526     0.471347     0.460167
      0.448988     0.437809     0.426629     0.415450     0.404270     0.393091     0.381911     0.370732     0.359552     0.348373
      0.337193     0.326014     0.314835     0.303655     0.292476     0.281296     0.270117     0.258937     0.247758     0.236578
      0.225399     0.214220     0.203040
 NY phased data points follow
   1.48031E-08  1.60021E-08  1.69065E-08  1.60047E-08  1.44155E-08  1.29327E-08  1.22365E-08  1.06919E-08  1.09564E-08  1.05302E-08
   1.03002E-08  1.04080E-08  1.01822E-08  1.08163E-08  1.14766E-08  1.03269E-08  1.17105E-08  1.06571E-08  1.05751E-08  1.04642E-08
   1.05892E-08  1.06727E-08  1.00749E-08  8.97746E-09  1.01014E-08  1.00335E-08  1.12538E-08  1.09032E-08  1.02741E-08  9.69155E-09
   9.98958E-09  1.03183E-08  1.11244E-08  1.22650E-08  1.29715E-08  1.13011E-08  1.02625E-08  9.24598E-09  8.03326E-09  7.15707E-09
   7.64327E-09  7.08815E-09  6.56588E-09  6.14583E-09  6.40027E-09  6.07221E-09  5.65412E-09  5.94326E-09  5.41544E-09  5.09213E-09
   5.27418E-09  5.25856E-09  5.83680E-09  5.85415E-09  5.46030E-09  5.35146E-09  4.69112E-09  4.85106E-09  5.48158E-09  5.63858E-09
   5.46887E-09  6.44575E-09  7.86591E-09  1.01672E-08  1.20286E-08  1.41289E-08  1.26052E-08  1.07240E-08  9.21155E-09  7.83070E-09
   7.17719E-09  6.04122E-09  5.88325E-09  5.16247E-09  5.21854E-09  4.62255E-09  5.09159E-09  5.33714E-09  6.09019E-09  8.28231E-09
   1.14520E-08  1.29084E-08  1.35186E-08  1.27660E-08  1.17969E-08  1.05649E-08  9.55812E-09  8.85962E-09  8.38811E-09  7.71668E-09
   7.31666E-09  6.60449E-09  6.16133E-09  5.49445E-09  5.66299E-09  5.08377E-09  4.70785E-09  4.79488E-09  3.91972E-09  4.77720E-09
   4.31727E-09  3.75907E-09  4.67828E-09  3.74749E-09  4.55443E-09  3.96914E-09  3.61076E-09  4.09221E-09  3.33322E-09  2.96612E-09
   2.82060E-09  2.40205E-09  2.34582E-09  2.53034E-09  3.20947E-09  3.57229E-09  3.40694E-09  3.17040E-09  3.60350E-09  3.66053E-09
   4.87613E-09  4.38450E-09  3.93035E-09  3.12018E-09  3.46668E-09  2.39594E-09  2.57684E-09  1.45518E-09  2.19925E-09  2.48404E-09
   3.59218E-09  2.68989E-09  2.77836E-09  2.37986E-09  3.20648E-09  2.30157E-09  2.20163E-09  2.38056E-09  2.76475E-09  2.03921E-09
   3.14134E-09  3.61882E-09  4.12688E-09  4.16799E-09  4.07656E-09  4.21517E-09  4.52367E-09  5.17118E-09  5.43654E-09  5.42648E-09
   5.18158E-09  4.96008E-09  5.28022E-09  4.94325E-09  4.16746E-09  4.62005E-09  4.60221E-09  4.68748E-09  5.32967E-09  4.99589E-09
   5.02571E-09  5.01791E-09  4.94474E-09  5.36863E-09  4.50165E-09  4.35077E-09  4.78113E-09  5.67979E-09  7.35344E-09  8.40828E-09
   1.06055E-08  1.31144E-08  1.66958E-08  1.65209E-08  1.50416E-08  1.24326E-08  1.06634E-08  9.35831E-09  7.50188E-09  6.65021E-09
   6.20121E-09  5.08305E-09  4.16776E-09  3.50930E-09  3.01981E-09  1.97803E-09  1.39583E-09  3.26719E-10 -8.85518E-11 -1.29891E-09
  -2.28219E-09 -3.02363E-09 -3.89196E-09 -5.92114E-09 -6.39481E-09 -8.43445E-09 -9.38154E-09 -1.12012E-08 -1.25814E-08 -1.43298E-08
  -1.54891E-08 -1.60635E-08 -1.70330E-08 -1.71730E-08 -1.75040E-08 -1.68430E-08 -1.61556E-08 -1.51652E-08 -1.41217E-08 -1.32606E-08
  -1.07127E-08 -9.43272E-09 -6.82074E-09 -5.82791E-09 -4.21324E-09 -2.39015E-09 -1.29235E-09 -8.37991E-10 -5.64205E-11 -7.77667E-11
   1.40469E-10 -1.60920E-10 -1.01128E-09 -1.18024E-10 -1.04743E-09 -1.70505E-09 -1.02100E-09 -5.67289E-10 -9.87623E-10 -2.31691E-10
  -4.63426E-10 -2.35884E-10 -4.85937E-10 -5.69019E-10 -8.14189E-10 -8.16295E-10 -1.14788E-09 -1.18586E-09 -6.43502E-10 -1.86140E-10
  -5.29236E-10 -1.06229E-10 -6.27299E-10 -2.20256E-10  2.90539E-10 -3.58438E-10 -7.51783E-10 -1.33095E-09 -5.28168E-10 -9.98981E-10
  -4.05415E-10 -2.28649E-10 -1.86337E-10  1.57190E-11  2.79568E-10  5.75092E-10  5.64423E-11  4.50814E-10 -3.24573E-11  3.45642E-10
  -9.30811E-10 -4.77658E-10 -3.56100E-10 -8.60273E-10 -1.12315E-09 -8.94278E-10 -8.53148E-10 -1.05184E-09 -7.27311E-11 -8.04333E-10
   4.03135E-10  5.33216E-10  6.29188E-10  6.18719E-10  3.85895E-10  9.26592E-10  6.91562E-10  6.62633E-10  7.90478E-10  8.40620E-10
   5.04121E-10  7.49678E-11 -3.90765E-10  3.17777E-10 -5.27109E-10 -2.00814E-10 -4.63392E-10 -3.24396E-10  9.28674E-11 -6.38281E-10
  -3.81896E-13  4.48725E-12 -4.98760E-10 -1.65895E-10  1.12260E-10 -1.40602E-10 -4.44656E-11  5.02330E-10 -4.91175E-10 -5.83581E-10
  -9.83740E-11 -1.69214E-10 -4.81441E-10  2.94448E-11 -3.32191E-10  2.07849E-11 -1.98843E-10 -5.97133E-10 -2.56921E-10 -1.17036E-10
  -5.47924E-10 -3.13280E-10 -5.55747E-10  1.06390E-10 -6.56251E-10  4.99270E-10 -1.27364E-10 -1.18698E-10 -1.89270E-10 -1.13913E-10
   6.71044E-10 -2.69679E-10 -3.78068E-10  7.24896E-11  3.77757E-10  2.51447E-10  2.86314E-10 -4.13859E-10 -3.57471E-11 -1.87440E-10
   6.78472E-10  3.81316E-10 -2.58958E-10  1.68385E-10  3.35202E-10  1.37654E-10  2.61180E-11  2.41414E-10 -1.90147E-10  4.52545E-10
  -2.62748E-10  2.01724E-10  2.38892E-10  3.14342E-10 -3.98946E-10  8.26873E-10  3.65691E-10  3.86238E-10 -1.06079E-11 -1.03715E-11
   5.10125E-10  2.53939E-10  2.53198E-10  4.29887E-10 -4.87936E-10  6.79964E-10  6.38807E-10  5.22868E-10  1.67023E-10  9.52241E-10
   6.44519E-10  1.29321E-10  8.71463E-10
 NY points of the fit to the data follow
   1.47727E-08  1.49852E-08  1.66726E-08  1.46255E-08  1.32044E-08  1.33775E-08  1.33327E-08  1.19124E-08  1.25316E-08  1.06340E-08
   1.08051E-08  1.03443E-08  9.73664E-09  1.06084E-08  1.11371E-08  1.05507E-08  1.09567E-08  1.00987E-08  1.12708E-08  1.12533E-08
   1.01067E-08  9.63019E-09  9.48938E-09  9.00626E-09  1.01242E-08  9.40476E-09  1.02106E-08  1.02467E-08  1.08727E-08  1.12076E-08
   1.20286E-08  1.11826E-08  1.16224E-08  1.07783E-08  1.09802E-08  9.68568E-09  8.94520E-09  8.66929E-09  8.30700E-09  7.95466E-09
   7.61173E-09  7.40204E-09  7.50027E-09  6.63587E-09  6.20389E-09  5.92914E-09  5.70918E-09  5.53496E-09  5.40222E-09  5.27194E-09
   5.14160E-09  5.02638E-09  4.94133E-09  4.92334E-09  4.91831E-09  5.29755E-09  5.50864E-09  5.55708E-09  6.62130E-09  7.35570E-09
   7.94303E-09  8.81719E-09  9.41086E-09  1.00138E-08  1.03870E-08  1.04300E-08  1.05163E-08  8.56733E-09  9.35563E-09  8.56289E-09
   6.73533E-09  6.32234E-09  6.42204E-09  5.87673E-09  5.64495E-09  6.19869E-09  6.49626E-09  7.48559E-09  8.30310E-09  8.91131E-09
   9.85519E-09  1.05227E-08  1.16191E-08  1.19775E-08  1.05752E-08  1.16163E-08  1.00345E-08  9.94152E-09  8.95312E-09  7.65573E-09
   6.91397E-09  6.43467E-09  6.08236E-09  5.80983E-09  5.59392E-09  5.41005E-09  5.25040E-09  5.11356E-09  4.99163E-09  4.88163E-09
   4.78297E-09  4.69358E-09  4.61086E-09  4.53487E-09  4.46338E-09  4.39721E-09  4.33537E-09  4.27718E-09  4.22227E-09  4.17032E-09
   4.12104E-09  4.07418E-09  4.02953E-09  3.98685E-09  3.94589E-09  3.90640E-09  3.86817E-09  3.83099E-09  3.79467E-09  3.75900E-09
   3.72383E-09  3.68898E-09  3.65429E-09  3.61961E-09  3.58478E-09  3.54966E-09  3.51412E-09  3.47801E-09  3.44120E-09  3.40358E-09
   3.36500E-09  3.32535E-09  3.28452E-09  3.24239E-09  3.19885E-09  3.15379E-09  3.10712E-09  3.05874E-09  3.00855E-09  2.95646E-09
   2.90239E-09  2.84634E-09  2.78830E-09  2.72829E-09  2.66634E-09  2.60250E-09  2.53680E-09  2.46934E-09  2.40020E-09  2.32950E-09
   2.25741E-09  2.18412E-09  2.10992E-09  2.03512E-09  1.96019E-09  1.88571E-09  1.81250E-09  1.74164E-09  1.67471E-09  1.61398E-09
   1.56294E-09  1.52721E-09  1.51659E-09  1.55006E-09  1.67104E-09  2.00917E-09  3.15794E-09  5.93673E-09  7.48128E-09  8.43278E-09
   1.10840E-08  1.40690E-08  1.67420E-08  1.75326E-08  1.52832E-08  1.35684E-08  1.09286E-08  1.17300E-08  7.47475E-09  5.31824E-10
  -1.09677E-09 -1.70122E-09 -2.03798E-09 -2.27465E-09 -2.46452E-09 -2.62868E-09 -2.77670E-09 -2.91330E-09 -3.04093E-09 -3.16087E-09
  -3.27377E-09 -3.37990E-09 -3.47933E-09 -3.57194E-09 -3.65760E-09 -3.73608E-09 -3.80721E-09 -3.87116E-09 -3.92812E-09 -3.97830E-09
  -4.02187E-09 -4.05901E-09 -4.08989E-09 -4.11468E-09 -4.13355E-09 -4.14666E-09 -4.15418E-09 -4.15628E-09 -4.15311E-09 -4.14483E-09
  -4.13161E-09 -4.11362E-09 -4.09100E-09 -4.06393E-09 -4.03257E-09 -3.99707E-09 -3.95760E-09 -3.91433E-09 -3.86740E-09 -3.81698E-09
  -3.76324E-09 -3.70632E-09 -3.64639E-09 -3.58361E-09 -3.51815E-09 -3.45020E-09 -3.37994E-09 -3.30758E-09 -3.23330E-09 -3.15729E-09
  -3.07975E-09 -3.00085E-09 -2.92078E-09 -2.83973E-09 -2.75788E-09 -2.67541E-09 -2.59250E-09 -2.50933E-09 -2.42606E-09 -2.34290E-09
  -2.26000E-09 -2.17753E-09 -2.09566E-09 -2.01457E-09 -1.93441E-09 -1.85535E-09 -1.77755E-09 -1.70116E-09 -1.62635E-09 -1.55328E-09
  -1.48208E-09 -1.41293E-09 -1.34587E-09 -1.28088E-09 -1.21792E-09 -1.15696E-09 -1.09795E-09 -1.04086E-09 -9.85643E-10 -9.32269E-10
  -8.80699E-10 -8.30888E-10 -7.82808E-10 -7.36413E-10 -6.91671E-10 -6.48542E-10 -6.06978E-10 -5.66965E-10 -5.28453E-10 -4.91401E-10
  -4.55773E-10 -4.21542E-10 -3.88661E-10 -3.57097E-10 -3.26824E-10 -2.97787E-10 -2.69971E-10 -2.43329E-10 -2.17831E-10 -1.93436E-10
  -1.70114E-10 -1.47830E-10 -1.26546E-10 -1.06228E-10 -8.68433E-11 -6.83552E-11 -5.07324E-11 -3.39392E-11 -1.79431E-11 -2.71294E-12
   1.17847E-11  2.55816E-11  3.87098E-11  5.11991E-11  6.30798E-11  7.43838E-11  8.51389E-11  9.53755E-11  1.05120E-10  1.14405E-10
   1.23253E-10  1.31695E-10  1.39757E-10  1.47462E-10  1.54840E-10  1.61915E-10  1.68709E-10  1.75249E-10  1.81545E-10  1.87605E-10
   1.93433E-10  1.99038E-10  2.04424E-10  2.09598E-10  2.14564E-10  2.19330E-10  2.23899E-10  2.28278E-10  2.32472E-10  2.36486E-10
   2.40325E-10  2.43992E-10  2.47494E-10  2.50836E-10  2.54019E-10  2.57050E-10  2.59932E-10  2.62670E-10  2.65266E-10  2.67725E-10
   2.70049E-10  2.72242E-10  2.74308E-10  2.76249E-10  2.78068E-10  2.79767E-10  2.81343E-10  2.82793E-10  2.84111E-10  2.85296E-10
   2.86341E-10  2.87244E-10  2.88000E-10  2.88605E-10  2.89058E-10  2.89352E-10  2.89487E-10  2.89457E-10  2.89259E-10  2.88892E-10
   2.88351E-10  2.87634E-10  2.86737E-10  2.85658E-10  2.84394E-10  2.82943E-10  2.81301E-10  2.79466E-10  2.77437E-10  2.75211E-10
   2.72785E-10  2.70158E-10  2.67327E-10
 NY background values follow
     3.960E-09    3.963E-09    3.964E-09    3.966E-09    3.966E-09    3.967E-09    3.967E-09    3.966E-09    3.965E-09    3.963E-09
     3.961E-09    3.959E-09    3.956E-09    3.952E-09    3.949E-09    3.944E-09    3.940E-09    3.934E-09    3.929E-09    3.923E-09
     3.916E-09    3.909E-09    3.902E-09    3.894E-09    3.886E-09    3.878E-09    3.869E-09    3.859E-09    3.849E-09    3.839E-09
     3.829E-09    3.818E-09    3.806E-09    3.795E-09    3.783E-09    3.770E-09    3.758E-09    3.745E-09    3.731E-09    3.718E-09
     3.704E-09    3.690E-09    3.676E-09    3.661E-09    3.647E-09    3.632E-09    3.617E-09    3.602E-09    3.586E-09    3.571E-09
     3.556E-09    3.540E-09    3.524E-09    3.508E-09    3.493E-09    3.477E-09    3.461E-09    3.445E-09    3.429E-09    3.413E-09
     3.397E-09    3.381E-09    3.366E-09    3.350E-09    3.334E-09    3.318E-09    3.303E-09    3.287E-09    3.272E-09    3.257E-09
     3.241E-09    3.226E-09    3.211E-09    3.196E-09    3.182E-09    3.167E-09    3.153E-09    3.138E-09    3.124E-09    3.110E-09
     3.096E-09    3.083E-09    3.069E-09    3.056E-09    3.043E-09    3.030E-09    3.017E-09    3.005E-09    2.993E-09    2.980E-09
     2.969E-09    2.957E-09    2.945E-09    2.934E-09    2.923E-09    2.912E-09    2.901E-09    2.891E-09    2.880E-09    2.870E-09
     2.860E-09    2.850E-09    2.840E-09    2.831E-09    2.821E-09    2.812E-09    2.803E-09    2.794E-09    2.785E-09    2.776E-09
     2.767E-09    2.759E-09    2.750E-09    2.742E-09    2.734E-09    2.725E-09    2.716E-09    2.707E-09    2.698E-09    2.687E-09
     2.677E-09    2.665E-09    2.653E-09    2.639E-09    2.625E-09    2.609E-09    2.593E-09    2.574E-09    2.555E-09    2.533E-09
     2.511E-09    2.486E-09    2.459E-09    2.431E-09    2.400E-09    2.367E-09    2.332E-09    2.295E-09    2.255E-09    2.212E-09
     2.167E-09    2.118E-09    2.068E-09    2.014E-09    1.957E-09    1.898E-09    1.836E-09    1.770E-09    1.702E-09    1.631E-09
     1.557E-09    1.480E-09    1.400E-09    1.317E-09    1.231E-09    1.141E-09    1.049E-09    9.532E-10    8.545E-10    7.526E-10
     6.476E-10    5.393E-10    4.279E-10    3.131E-10    1.952E-10    7.398E-11   -5.051E-11   -1.783E-10   -3.093E-10   -4.433E-10
    -5.798E-10   -7.185E-10   -8.589E-10   -1.001E-09   -1.144E-09   -1.287E-09   -1.430E-09   -1.574E-09   -1.717E-09   -1.859E-09
    -1.999E-09   -2.138E-09   -2.275E-09   -2.409E-09   -2.540E-09   -2.668E-09   -2.793E-09   -2.913E-09   -3.029E-09   -3.141E-09
    -3.247E-09   -3.348E-09   -3.442E-09   -3.531E-09   -3.613E-09   -3.689E-09   -3.757E-09   -3.818E-09   -3.872E-09   -3.919E-09
    -3.960E-09   -3.994E-09   -4.023E-09   -4.045E-09   -4.061E-09   -4.071E-09   -4.076E-09   -4.075E-09   -4.069E-09   -4.058E-09
    -4.042E-09   -4.021E-09   -3.995E-09   -3.965E-09   -3.931E-09   -3.892E-09   -3.850E-09   -3.804E-09   -3.754E-09   -3.700E-09
    -3.644E-09   -3.584E-09   -3.521E-09   -3.455E-09   -3.387E-09   -3.316E-09   -3.243E-09   -3.167E-09   -3.090E-09   -3.011E-09
    -2.931E-09   -2.849E-09   -2.766E-09   -2.682E-09   -2.597E-09   -2.512E-09   -2.426E-09   -2.340E-09   -2.254E-09   -2.168E-09
    -2.082E-09   -1.997E-09   -1.912E-09   -1.828E-09   -1.745E-09   -1.664E-09   -1.583E-09   -1.504E-09   -1.427E-09   -1.351E-09
    -1.277E-09   -1.205E-09   -1.135E-09   -1.068E-09   -1.002E-09   -9.387E-10   -8.771E-10   -8.174E-10   -7.597E-10   -7.037E-10
    -6.497E-10   -5.974E-10   -5.468E-10   -4.979E-10   -4.507E-10   -4.052E-10   -3.612E-10   -3.188E-10   -2.778E-10   -2.384E-10
    -2.004E-10   -1.639E-10   -1.286E-10   -9.477E-11   -6.219E-11   -3.087E-11   -7.862E-13    2.811E-11    5.585E-11    8.247E-11
     1.080E-10    1.325E-10    1.559E-10    1.784E-10    2.000E-10    2.206E-10    2.403E-10    2.592E-10    2.773E-10    2.946E-10
     3.112E-10    3.270E-10    3.422E-10    3.567E-10    3.706E-10    3.839E-10    3.966E-10    4.088E-10    4.205E-10    4.318E-10
     4.425E-10    4.529E-10    4.629E-10    4.725E-10    4.817E-10    4.906E-10    4.993E-10    5.077E-10    5.158E-10    5.237E-10
     5.313E-10    5.387E-10    5.458E-10    5.528E-10    5.595E-10    5.660E-10    5.723E-10    5.783E-10    5.842E-10    5.899E-10
     5.954E-10    6.008E-10    6.059E-10    6.109E-10    6.157E-10    6.204E-10    6.248E-10    6.292E-10    6.333E-10    6.374E-10
     6.412E-10    6.450E-10    6.486E-10    6.520E-10    6.554E-10    6.586E-10    6.616E-10    6.646E-10    6.673E-10    6.700E-10
     6.725E-10    6.748E-10    6.770E-10    6.790E-10    6.808E-10    6.825E-10    6.840E-10    6.854E-10    6.865E-10    6.875E-10
     6.883E-10    6.889E-10    6.893E-10    6.896E-10    6.896E-10    6.894E-10    6.890E-10    6.885E-10    6.877E-10    6.867E-10
     6.855E-10    6.841E-10    6.825E-10
 Cr       Conc. = 2.47E-10
   4.79279E-09  4.45912E-09  5.11177E-09  4.67737E-09  4.42156E-09  4.29557E-09  4.21826E-09  4.16414E-09  4.12288E-09  4.08945E-09
   4.06111E-09  4.03614E-09  4.01347E-09  3.99233E-09  3.97217E-09  3.95259E-09  3.93323E-09  3.91384E-09  3.89414E-09  3.87389E-09
   3.85285E-09  3.83075E-09  3.80729E-09  3.78210E-09  3.75469E-09  3.72447E-09  3.69058E-09  3.65180E-09  3.60651E-09  3.55316E-09
   3.49930E-09  3.61018E-09  3.81779E-09  3.81044E-09  3.95850E-09  4.22652E-09  4.56442E-09  4.94195E-09  5.03472E-09  5.02704E-09
   4.96598E-09  4.99391E-09  5.28866E-09  4.58501E-09  4.30789E-09  4.15888E-09  4.06042E-09  3.98731E-09  3.92890E-09  3.87988E-09
   3.83730E-09  3.79930E-09  3.76475E-09  3.73283E-09  3.70303E-09  3.67487E-09  3.64808E-09  3.62247E-09  3.59783E-09  3.57404E-09
   3.55098E-09  3.52855E-09  3.50670E-09  3.48536E-09  3.46448E-09  3.44404E-09  3.42398E-09  3.40429E-09  3.38494E-09  3.36593E-09
   3.34722E-09  3.32882E-09  3.31071E-09  3.29289E-09  3.27534E-09  3.25807E-09  3.24108E-09  3.22435E-09  3.20788E-09  3.19170E-09
   3.17577E-09  3.16012E-09  3.14472E-09  3.12962E-09  3.11477E-09  3.10021E-09  3.08592E-09  3.07188E-09  3.05811E-09  3.04458E-09
   3.03131E-09  3.01826E-09  3.00546E-09  2.99289E-09  2.98055E-09  2.96841E-09  2.95650E-09  2.94480E-09  2.93330E-09  2.92201E-09
   2.91090E-09  2.89999E-09  2.88926E-09  2.87872E-09  2.86835E-09  2.85814E-09  2.84811E-09  2.83822E-09  2.82850E-09  2.81892E-09
   2.80949E-09  2.80020E-09  2.79102E-09  2.78192E-09  2.77280E-09  2.76354E-09  2.75406E-09  2.74426E-09  2.73402E-09  2.72325E-09
   2.71186E-09  2.69973E-09  2.68676E-09  2.67286E-09  2.65792E-09  2.64183E-09  2.62450E-09  2.60582E-09  2.58568E-09  2.56399E-09
   2.54064E-09  2.51552E-09  2.48853E-09  2.45957E-09  2.42854E-09  2.39532E-09  2.35982E-09  2.32194E-09  2.28157E-09  2.23861E-09
   2.19294E-09  2.14455E-09  2.09340E-09  2.03946E-09  1.98270E-09  1.92311E-09  1.86066E-09  1.79533E-09  1.72709E-09  1.65594E-09
   1.58184E-09  1.50479E-09  1.42477E-09  1.34177E-09  1.25579E-09  1.16682E-09  1.07487E-09  9.79945E-10  8.82099E-10  7.81373E-10
   6.77876E-10  5.71788E-10  4.63478E-10  3.53662E-10  2.44256E-10  1.41772E-10  8.17693E-11  4.53635E-11 -8.41109E-11 -1.51092E-10
  -1.94327E-10 -2.47540E-10 -3.19804E-10 -4.95067E-10 -7.12086E-10 -8.89648E-10 -1.09821E-09 -1.16749E-09 -1.61821E-09 -1.81920E-09
  -1.97728E-09 -2.12348E-09 -2.26397E-09 -2.40039E-09 -2.53312E-09 -2.66216E-09 -2.78730E-09 -2.90828E-09 -3.02477E-09 -3.13645E-09
  -3.24296E-09 -3.34396E-09 -3.43911E-09 -3.52802E-09 -3.61037E-09 -3.68580E-09 -3.75407E-09 -3.81526E-09 -3.86955E-09 -3.91709E-09
  -3.95805E-09 -3.99258E-09 -4.02084E-09 -4.04301E-09 -4.05924E-09 -4.06970E-09 -4.07455E-09 -4.07394E-09 -4.06806E-09 -4.05705E-09
  -4.04108E-09 -4.02032E-09 -3.99493E-09 -3.96507E-09 -3.93090E-09 -3.89260E-09 -3.85031E-09 -3.80421E-09 -3.75445E-09 -3.70121E-09
  -3.64462E-09 -3.58487E-09 -3.52211E-09 -3.45650E-09 -3.38820E-09 -3.31743E-09 -3.24435E-09 -3.16917E-09 -3.09208E-09 -3.01327E-09
  -2.93293E-09 -2.85124E-09 -2.76840E-09 -2.68458E-09 -2.59996E-09 -2.51475E-09 -2.42910E-09 -2.34321E-09 -2.25723E-09 -2.17136E-09
  -2.08577E-09 -2.00062E-09 -1.91609E-09 -1.83235E-09 -1.74955E-09 -1.66786E-09 -1.58745E-09 -1.50846E-09 -1.43108E-09 -1.35544E-09
  -1.28168E-09 -1.20999E-09 -1.14041E-09 -1.07290E-09 -1.00745E-09 -9.44008E-10 -8.82531E-10 -8.22989E-10 -7.65337E-10 -7.09541E-10
  -6.55564E-10 -6.03361E-10 -5.52903E-10 -5.04144E-10 -4.57055E-10 -4.11592E-10 -3.67710E-10 -3.25394E-10 -2.84593E-10 -2.45267E-10
  -2.07380E-10 -1.70906E-10 -1.35795E-10 -1.02016E-10 -6.95426E-11 -3.83192E-11 -8.33151E-12  2.04682E-11  4.81088E-11  7.46327E-11
   1.00069E-10  1.24454E-10  1.47824E-10  1.70215E-10  1.91658E-10  2.12190E-10  2.31844E-10  2.50654E-10  2.68654E-10  2.85874E-10
   3.02348E-10  3.18107E-10  3.33185E-10  3.47610E-10  3.61414E-10  3.74627E-10  3.87279E-10  3.99399E-10  4.11013E-10  4.22156E-10
   4.32848E-10  4.43122E-10  4.53003E-10  4.62514E-10  4.71686E-10  4.80541E-10  4.89104E-10  4.97401E-10  5.05441E-10  5.13232E-10
   5.20780E-10  5.28091E-10  5.35172E-10  5.42029E-10  5.48666E-10  5.55090E-10  5.61307E-10  5.67322E-10  5.73139E-10  5.78765E-10
   5.84204E-10  5.89460E-10  5.94540E-10  5.99446E-10  6.04185E-10  6.08759E-10  6.13173E-10  6.17431E-10  6.21536E-10  6.25494E-10
   6.29305E-10  6.32975E-10  6.36507E-10  6.39902E-10  6.43165E-10  6.46297E-10  6.49295E-10  6.52157E-10  6.54876E-10  6.57450E-10
   6.59875E-10  6.62147E-10  6.64261E-10  6.66215E-10  6.68006E-10  6.69628E-10  6.71080E-10  6.72357E-10  6.73457E-10  6.74377E-10
   6.75112E-10  6.75661E-10  6.76020E-10  6.76187E-10  6.76159E-10  6.75934E-10  6.75509E-10  6.74881E-10  6.74048E-10  6.73008E-10
   6.71759E-10  6.70300E-10  6.68626E-10
 Gln      Conc. = 2.74E-09
   3.00876E-09  3.25269E-09  3.49165E-09  4.24623E-09  4.72538E-09  5.23242E-09  6.10533E-09  5.98838E-09  7.29703E-09  6.19953E-09
   7.18733E-09  6.82673E-09  5.91185E-09  6.19005E-09  5.61555E-09  5.22675E-09  4.96551E-09  4.77330E-09  4.62299E-09  4.50031E-09
   4.39649E-09  4.30695E-09  4.22775E-09  4.15654E-09  4.09175E-09  4.03045E-09  3.97612E-09  3.92321E-09  3.87324E-09  3.82585E-09
   3.78000E-09  3.73535E-09  3.69165E-09  3.64862E-09  3.60611E-09  3.56391E-09  3.52186E-09  3.47982E-09  3.43762E-09  3.39504E-09
   3.35232E-09  3.30887E-09  3.26510E-09  3.22077E-09  3.17564E-09  3.12990E-09  3.08415E-09  3.03692E-09  2.98997E-09  2.94477E-09
   2.90036E-09  2.85777E-09  2.83032E-09  2.82985E-09  2.91514E-09  3.31413E-09  3.56257E-09  3.67478E-09  4.73951E-09  5.56069E-09
   6.17803E-09  7.13864E-09  7.69295E-09  8.44944E-09  8.87783E-09  9.03600E-09  9.02917E-09  7.21496E-09  7.98285E-09  7.31935E-09
   5.56230E-09  5.22471E-09  5.30968E-09  4.85109E-09  4.69503E-09  5.31214E-09  5.61752E-09  6.17691E-09  6.96414E-09  7.46442E-09
   8.06065E-09  8.33038E-09  8.91624E-09  8.94771E-09  7.83338E-09  8.65711E-09  7.78117E-09  6.70037E-09  6.69677E-09  6.05380E-09
   5.56331E-09  5.22186E-09  4.96115E-09  4.75644E-09  4.59425E-09  4.45490E-09  4.33334E-09  4.22986E-09  4.13768E-09  4.05459E-09
   3.98052E-09  3.91383E-09  3.85220E-09  3.79591E-09  3.74295E-09  3.69425E-09  3.64895E-09  3.60647E-09  3.56653E-09  3.52886E-09
   3.49323E-09  3.45945E-09  3.42733E-09  3.39669E-09  3.36731E-09  3.33895E-09  3.31143E-09  3.28457E-09  3.25818E-09  3.23209E-09
   3.20615E-09  3.18019E-09  3.15406E-09  3.12763E-09  3.10073E-09  3.07325E-09  3.04503E-09  3.01596E-09  2.98590E-09  2.95472E-09
   2.92230E-09  2.88851E-09  2.85324E-09  2.81636E-09  2.77776E-09  2.73733E-09  2.69494E-09  2.65051E-09  2.60391E-09  2.55503E-09
   2.50376E-09  2.45009E-09  2.39397E-09  2.33539E-09  2.27433E-09  2.21078E-09  2.14473E-09  2.07617E-09  2.00511E-09  1.93157E-09
   1.85556E-09  1.77713E-09  1.69632E-09  1.61320E-09  1.52788E-09  1.44050E-09  1.35124E-09  1.26038E-09  1.16829E-09  1.07552E-09
   9.82887E-10  8.91695E-10  8.04105E-10  7.23977E-10  6.59216E-10  6.28930E-10  6.94643E-10  1.16149E-09  2.21723E-09  2.05035E-09
   2.59628E-09  3.51003E-09  4.31063E-09  5.01647E-09  4.68598E-09  3.50049E-09  3.29169E-09  1.81079E-09  3.26274E-09 -6.01078E-10
  -1.53565E-09 -1.89712E-09 -2.12402E-09 -2.30324E-09 -2.46017E-09 -2.60422E-09 -2.73936E-09 -2.86741E-09 -2.98915E-09 -3.10491E-09
  -3.21474E-09 -3.31854E-09 -3.41611E-09 -3.50719E-09 -3.59152E-09 -3.66879E-09 -3.73881E-09 -3.80167E-09 -3.85758E-09 -3.90669E-09
  -3.94918E-09 -3.98523E-09 -4.01499E-09 -4.03863E-09 -4.05633E-09 -4.06823E-09 -4.07452E-09 -4.07534E-09 -4.07088E-09 -4.06128E-09
  -4.04673E-09 -4.02736E-09 -4.00336E-09 -3.97489E-09 -3.94210E-09 -3.90516E-09 -3.86424E-09 -3.81949E-09 -3.77108E-09 -3.71917E-09
  -3.66392E-09 -3.60549E-09 -3.54404E-09 -3.47973E-09 -3.41274E-09 -3.34325E-09 -3.27146E-09 -3.19755E-09 -3.12173E-09 -3.04417E-09
