 LCModel (Version 6.3-1R) Copyright: S.W. Provencher.          Ref.: Magn. Reson. Med. 30:672-679 (1993).                
 onepulse 25x12_ftSpec_smooth_lcm
 26 lines in following concentration table = NCONC+1
    Conc.  %SD /Cr+PCr  Metabolite                                         
    0.000 999%   0.000 Ala                                                 
    0.000 999%   0.000 Asp                                                 
    0.000 999%   0.000 Cr                                                  
    0.000 999%   0.000 GABA                                                
    0.000 999%   0.000 Glc                                                 
 3.14E-09  19%  13.432 Gln                                                 
    0.000 999%   0.000 Glu                                                 
 1.15E-09 123%   4.895 Glyc                                                
    0.000 999%   0.000 GPC                                                 
    0.000 999%   0.000 GSH                                                 
 4.39E-12 999% 1.9E-02 Ins                                                 
    0.000 999%   0.000 Lac                                                 
 2.19E-10 144%   0.936 NAAG                                                
 6.38E-11 622%   0.272 NAA                                                 
    0.000 999%   0.000 PCh                                                 
 2.34E-10 104%   1.000 PCr                                                 
 1.35E-09  62%   5.763 PE                                                  
 6.91E-11 370%   0.295 Scyllo                                              
 1.16E-09  56%   4.944 Ser                                                 
 6.48E-10 137%   2.770 Tau                                                 
    0.000 999%   0.000 GPC+PCh                                             
 2.83E-10  95%   1.209 NAA+NAAG                                            
 1.15E-09  39%   4.914 Ins+Glyc                                            
 2.34E-10 104%   1.000 Cr+PCr                                              
 3.14E-09  19%  13.432 Glu+Gln                                             
   6 lines in following misc. output table
  FWHM = 0.078 ppm    S/N =   3                                            
  Data shift = 0.358 ppm                                                   
  Ph: -52 deg     -41.9 deg/ppm                                            
  alphaB,S = 6.6E-01,   2.6E+01                                            
    9 spline knots.   Ns = 5(1)                                            
  ( 9) 4 infls.   ( 7) 1 extrs.                                            
  363 points on ppm-axis = NY
      4.250000     4.238821     4.227641     4.216462     4.205282     4.194103     4.182923     4.171744     4.160564     4.149385
      4.138206     4.127026     4.115847     4.104667     4.093488     4.082308     4.071129     4.059949     4.048770     4.037591
      4.026411     4.015232     4.004052     3.992873     3.981693     3.970514     3.959334     3.948155     3.936975     3.925796
      3.914617     3.903437     3.892258     3.881078     3.869899     3.858719     3.847540     3.836360     3.825181     3.814002
      3.802822     3.791643     3.780463     3.769284     3.758104     3.746925     3.735745     3.724566     3.713387     3.702207
      3.691028     3.679848     3.668669     3.657489     3.646310     3.635130     3.623951     3.612772     3.601592     3.590413
      3.579233     3.568054     3.556874     3.545695     3.534515     3.523336     3.512156     3.500977     3.489798     3.478618
      3.467439     3.456259     3.445080     3.433900     3.422721     3.411541     3.400362     3.389183     3.378003     3.366824
      3.355644     3.344465     3.333285     3.322106     3.310926     3.299747     3.288568     3.277388     3.266209     3.255029
      3.243850     3.232670     3.221491     3.210311     3.199132     3.187953     3.176773     3.165594     3.154414     3.143235
      3.132055     3.120876     3.109696     3.098517     3.087337     3.076158     3.064979     3.053799     3.042620     3.031440
      3.020261     3.009081     2.997902     2.986722     2.975543     2.964364     2.953184     2.942005     2.930825     2.919646
      2.908466     2.897287     2.886107     2.874928     2.863749     2.852569     2.841390     2.830210     2.819031     2.807851
      2.796672     2.785492     2.774313     2.763134     2.751954     2.740775     2.729595     2.718416     2.707236     2.696057
      2.684877     2.673698     2.662519     2.651339     2.640160     2.628980     2.617801     2.606621     2.595442     2.584262
      2.573083     2.561903     2.550724     2.539545     2.528365     2.517186     2.506006     2.494827     2.483647     2.472468
      2.461288     2.450109     2.438930     2.427750     2.416571     2.405391     2.394212     2.383032     2.371853     2.360673
      2.349494     2.338315     2.327135     2.315956     2.304776     2.293597     2.282417     2.271238     2.260058     2.248879
      2.237700     2.226520     2.215341     2.204161     2.192982     2.181802     2.170623     2.159443     2.148264     2.137084
      2.125905     2.114726     2.103546     2.092367     2.081187     2.070008     2.058828     2.047649     2.036469     2.025290
      2.014111     2.002931     1.991752     1.980572     1.969393     1.958213     1.947034     1.935854     1.924675     1.913496
      1.902316     1.891137     1.879957     1.868778     1.857598     1.846419     1.835239     1.824060     1.812881     1.801701
      1.790522     1.779342     1.768163     1.756983     1.745804     1.734624     1.723445     1.712265     1.701086     1.689907
      1.678727     1.667548     1.656368     1.645189     1.634009     1.622830     1.611650     1.600471     1.589292     1.578112
      1.566933     1.555753     1.544574     1.533394     1.522215     1.511035     1.499856     1.488677     1.477497     1.466318
      1.455138     1.443959     1.432779     1.421600     1.410420     1.399241     1.388062     1.376882     1.365703     1.354523
      1.343344     1.332164     1.320985     1.309805     1.298626     1.287446     1.276267     1.265088     1.253908     1.242729
      1.231549     1.220370     1.209190     1.198011     1.186831     1.175652     1.164473     1.153293     1.142114     1.130934
      1.119755     1.108575     1.097396     1.086216     1.075037     1.063858     1.052678     1.041499     1.030319     1.019140
      1.007960     0.996781     0.985601     0.974422     0.963243     0.952063     0.940884     0.929704     0.918525     0.907345
      0.896166     0.884986     0.873807     0.862628     0.851448     0.840269     0.829089     0.817910     0.806730     0.795551
      0.784371     0.773192     0.762012     0.750833     0.739654     0.728474     0.717295     0.706115     0.694936     0.683756
      0.672577     0.661397     0.650218     0.639039     0.627859     0.616680     0.605500     0.594321     0.583141     0.571962
      0.560782     0.549603     0.538424     0.527244     0.516065     0.504885     0.493706     0.482526     0.471347     0.460167
      0.448988     0.437809     0.426629     0.415450     0.404270     0.393091     0.381911     0.370732     0.359552     0.348373
      0.337193     0.326014     0.314835     0.303655     0.292476     0.281296     0.270117     0.258937     0.247758     0.236578
      0.225399     0.214220     0.203040
 NY phased data points follow
   1.18141E-08  9.03119E-09  7.08012E-09  6.31241E-09  6.77378E-09  5.25601E-09  6.93410E-09  6.30356E-09  7.08327E-09  6.42193E-09
   7.51428E-09  7.54473E-09  7.96292E-09  7.61178E-09  8.23649E-09  6.92254E-09  7.43266E-09  6.87354E-09  6.56961E-09  6.00785E-09
   6.71884E-09  5.87192E-09  6.85521E-09  8.09563E-09  8.00505E-09  6.90730E-09  6.41374E-09  6.21325E-09  6.68739E-09  8.02550E-09
   9.41090E-09  9.30239E-09  7.90436E-09  7.33860E-09  5.90036E-09  4.39101E-09  3.93042E-09  3.79783E-09  4.16802E-09  3.86007E-09
   3.66845E-09  2.99538E-09  3.85458E-09  3.33243E-09  3.30854E-09  3.05730E-09  2.71761E-09  2.79073E-09  3.49772E-09  3.75439E-09
   4.63097E-09  3.58539E-09  3.80491E-09  3.69447E-09  3.63616E-09  3.69124E-09  4.33910E-09  5.28221E-09  5.94398E-09  6.09976E-09
   7.43876E-09  1.11915E-08  1.38657E-08  1.30821E-08  1.07260E-08  8.69405E-09  7.31009E-09  6.39467E-09  5.48762E-09  5.67257E-09
   5.12700E-09  4.47914E-09  5.15975E-09  4.35525E-09  5.07075E-09  5.19998E-09  6.33002E-09  7.79534E-09  1.26510E-08  1.56174E-08
   1.54381E-08  1.19730E-08  1.03649E-08  1.02560E-08  9.82276E-09  8.25217E-09  8.07019E-09  7.47929E-09  7.63140E-09  7.33040E-09
   6.90626E-09  5.77948E-09  5.95850E-09  5.78225E-09  4.91212E-09  5.18800E-09  4.51922E-09  4.56507E-09  4.10326E-09  3.88290E-09
   3.89738E-09  4.65454E-09  4.20268E-09  4.12578E-09  3.70561E-09  4.91773E-09  4.03424E-09  3.07546E-09  2.49740E-09  2.46020E-09
   1.95892E-09  2.49242E-09  3.43552E-09  4.33729E-09  3.76164E-09  3.86172E-09  4.55139E-09  5.08449E-09  4.41172E-09  4.69272E-09
   4.73664E-09  4.89317E-09  3.73254E-09  3.84164E-09  2.99383E-09  2.81590E-09  2.55671E-09  3.77674E-09  3.92754E-09  4.05760E-09
   3.62777E-09  4.37486E-09  4.24857E-09  4.47701E-09  3.67429E-09  4.34062E-09  3.71670E-09  3.56548E-09  4.11005E-09  6.00751E-09
   6.81231E-09  6.75376E-09  5.91671E-09  6.05151E-09  6.07347E-09  7.08745E-09  6.95496E-09  7.19617E-09  6.71825E-09  6.91229E-09
   6.52495E-09  6.68704E-09  5.70985E-09  6.35628E-09  5.85099E-09  6.05042E-09  5.48614E-09  5.75387E-09  5.36197E-09  5.43129E-09
   5.32338E-09  6.03457E-09  5.40427E-09  5.67375E-09  4.85612E-09  5.02108E-09  5.68922E-09  5.97715E-09  4.64514E-09  7.32606E-09
   1.41340E-08  2.02912E-08  1.92347E-08  1.73522E-08  1.48702E-08  1.49368E-08  1.31036E-08  1.31434E-08  1.16198E-08  1.14872E-08
   1.03827E-08  1.02889E-08  8.42810E-09  7.93132E-09  7.03418E-09  6.04951E-09  3.94980E-09  3.22512E-09  1.57908E-09  2.18070E-10
  -1.28138E-09 -2.43135E-09 -5.09831E-09 -6.14321E-09 -8.22590E-09 -8.83028E-09 -1.11058E-08 -1.18347E-08 -1.27939E-08 -1.28317E-08
  -1.40160E-08 -1.32467E-08 -1.37870E-08 -1.25002E-08 -1.20406E-08 -1.10632E-08 -9.49289E-09 -8.27287E-09 -7.80648E-09 -6.12295E-09
  -5.56062E-09 -4.07206E-09 -3.87841E-09 -3.08590E-09 -2.46157E-09 -1.86783E-09 -2.82976E-09 -2.02761E-09 -2.84248E-09 -2.57128E-09
  -2.94201E-09 -2.26462E-09 -2.15550E-09 -1.41765E-09 -1.61907E-09 -1.43961E-09 -2.08555E-09 -1.13772E-09 -2.52029E-09 -1.17794E-09
  -2.11602E-09 -1.34325E-09 -1.93529E-09 -1.96357E-09 -1.83908E-09 -1.13922E-09 -1.03223E-09 -1.06796E-09 -1.97689E-09 -9.16880E-10
  -1.38539E-09 -1.27347E-09 -2.16458E-09 -1.74560E-09 -1.76423E-09 -1.67899E-09 -1.70225E-09 -1.22310E-09 -1.94377E-09 -7.33595E-10
  -1.36088E-09 -5.04647E-10 -1.21967E-09 -2.74799E-10 -1.35451E-09 -3.25381E-10 -1.01151E-09 -9.36653E-10 -1.22717E-09 -1.05269E-09
  -1.03873E-09 -1.45939E-09 -1.65190E-09 -1.82981E-09 -2.55004E-09 -1.89626E-09 -2.35658E-09 -1.94519E-09 -2.35751E-09 -1.88886E-09
  -2.31150E-09 -1.35059E-09 -1.39208E-09 -1.37258E-09 -1.19027E-09 -2.80880E-10 -4.58206E-10 -8.02172E-12 -4.47474E-10 -3.55457E-10
  -2.47903E-10 -9.10433E-11 -7.18573E-10 -8.35511E-10 -8.53115E-10 -7.91203E-10 -7.52409E-10 -8.15464E-10 -8.06322E-10 -7.82397E-10
  -1.31755E-09 -1.31042E-09 -1.41047E-09 -1.05200E-09 -1.44729E-09 -1.00139E-09 -1.61936E-09 -1.24407E-09 -1.59189E-09 -1.48812E-09
  -1.65723E-09 -1.59444E-09 -1.33074E-09 -1.88723E-09 -1.87096E-09 -1.53510E-09 -1.71278E-09 -1.68034E-09 -2.23037E-09 -2.10062E-09
  -2.04355E-09 -1.92419E-09 -2.11040E-09 -2.05765E-09 -1.87829E-09 -2.24917E-09 -2.37636E-09 -2.20733E-09 -2.53532E-09 -2.12155E-09
  -2.59091E-09 -2.05215E-09 -2.98362E-09 -2.27324E-09 -2.42719E-09 -2.66520E-09 -3.06408E-09 -2.18515E-09 -2.42063E-09 -2.94090E-09
  -2.71276E-09 -2.53431E-09 -3.13067E-09 -2.79351E-09 -3.04321E-09 -2.29472E-09 -2.87675E-09 -2.98473E-09 -2.95639E-09 -2.60263E-09
  -2.99876E-09 -2.82951E-09 -3.40265E-09 -3.06422E-09 -3.36644E-09 -3.52444E-09 -3.53498E-09 -3.03039E-09 -3.09539E-09 -3.20117E-09
  -3.38685E-09 -3.10320E-09 -3.11046E-09 -3.34670E-09 -3.62121E-09 -2.99828E-09 -2.95237E-09 -3.81592E-09 -3.65306E-09 -3.53199E-09
  -3.31609E-09 -3.50945E-09 -3.52762E-09
 NY points of the fit to the data follow
   9.95242E-09  8.82933E-09  7.92673E-09  7.79331E-09  7.73405E-09  7.49252E-09  7.02281E-09  6.45427E-09  6.12481E-09  6.16081E-09
   6.36423E-09  6.97635E-09  7.80183E-09  7.86625E-09  7.74281E-09  7.66213E-09  7.76253E-09  7.71764E-09  7.05962E-09  5.86803E-09
   5.51022E-09  5.67259E-09  5.97650E-09  6.45086E-09  7.03466E-09  7.64877E-09  8.24570E-09  8.54466E-09  8.67660E-09  8.60301E-09
   8.25035E-09  7.53316E-09  6.68628E-09  5.96589E-09  5.47619E-09  5.09075E-09  4.67051E-09  4.32037E-09  4.10881E-09  3.98747E-09
   3.86692E-09  3.60648E-09  3.19538E-09  2.95903E-09  2.95405E-09  2.99868E-09  3.05839E-09  3.12402E-09  3.20660E-09  3.30920E-09
   3.43499E-09  3.58782E-09  3.78426E-09  4.02820E-09  4.39453E-09  4.93129E-09  5.62560E-09  6.58608E-09  7.68311E-09  8.60794E-09
   9.43757E-09  1.02657E-08  1.07980E-08  1.07936E-08  1.02701E-08  9.40193E-09  8.56554E-09  7.90641E-09  6.77404E-09  5.76306E-09
   5.50501E-09  5.52190E-09  5.54508E-09  5.95068E-09  6.69986E-09  7.64035E-09  8.55976E-09  9.56260E-09  1.06612E-08  1.16028E-08
   1.21653E-08  1.21966E-08  1.16145E-08  1.10165E-08  1.04132E-08  9.25394E-09  7.96541E-09  7.06776E-09  6.27142E-09  5.73497E-09
   5.42965E-09  5.23874E-09  5.10585E-09  5.00869E-09  4.92763E-09  4.86615E-09  4.82268E-09  4.78839E-09  4.75687E-09  4.72605E-09
   4.70724E-09  4.69486E-09  4.68106E-09  4.66750E-09  4.65673E-09  4.64780E-09  4.63954E-09  4.63146E-09  4.62304E-09  4.61409E-09
   4.60440E-09  4.59377E-09  4.58202E-09  4.56900E-09  4.55456E-09  4.53858E-09  4.52095E-09  4.50157E-09  4.48033E-09  4.45716E-09
   4.43197E-09  4.40468E-09  4.37526E-09  4.34374E-09  4.31014E-09  4.27450E-09  4.23686E-09  4.19725E-09  4.15573E-09  4.11233E-09
   4.06710E-09  4.02009E-09  3.97134E-09  3.92091E-09  3.86885E-09  3.81521E-09  3.76005E-09  3.70343E-09  3.64542E-09  3.58605E-09
   3.52542E-09  3.46358E-09  3.40061E-09  3.33660E-09  3.27160E-09  3.20572E-09  3.13905E-09  3.07170E-09  3.00378E-09  2.93544E-09
   2.86682E-09  2.79809E-09  2.72948E-09  2.66125E-09  2.59370E-09  2.52726E-09  2.46244E-09  2.39996E-09  2.34078E-09  2.28630E-09
   2.23857E-09  2.20082E-09  2.17836E-09  2.18077E-09  2.22750E-09  2.36663E-09  2.76827E-09  4.03313E-09  6.10349E-09  9.58579E-09
   1.41439E-08  1.78328E-08  1.90735E-08  1.84286E-08  1.73647E-08  1.64202E-08  1.44991E-08  1.02486E-08  4.55262E-09  2.18414E-09
   1.40322E-09  1.00619E-09  7.51233E-10  5.63683E-10  4.13254E-10  2.85445E-10  1.72469E-10  6.97941E-11 -2.53740E-11 -1.14847E-10
  -1.99854E-10 -2.81227E-10 -3.59583E-10 -4.35344E-10 -5.08846E-10 -5.80339E-10 -6.49992E-10 -7.17952E-10 -7.84336E-10 -8.49220E-10
  -9.12673E-10 -9.74760E-10 -1.03551E-09 -1.09495E-09 -1.15312E-09 -1.21003E-09 -1.26569E-09 -1.32011E-09 -1.37330E-09 -1.42527E-09
  -1.47602E-09 -1.52553E-09 -1.57382E-09 -1.62088E-09 -1.66671E-09 -1.71130E-09 -1.75464E-09 -1.79672E-09 -1.83756E-09 -1.87711E-09
  -1.91539E-09 -1.95238E-09 -1.98807E-09 -2.02246E-09 -2.05555E-09 -2.08729E-09 -2.11771E-09 -2.14678E-09 -2.17449E-09 -2.20083E-09
  -2.22579E-09 -2.24935E-09 -2.27152E-09 -2.29227E-09 -2.31160E-09 -2.32948E-09 -2.34592E-09 -2.36090E-09 -2.37441E-09 -2.38642E-09
  -2.39695E-09 -2.40597E-09 -2.41346E-09 -2.41947E-09 -2.42403E-09 -2.42719E-09 -2.42900E-09 -2.42952E-09 -2.42878E-09 -2.42684E-09
  -2.42375E-09 -2.41955E-09 -2.41429E-09 -2.40802E-09 -2.40078E-09 -2.39263E-09 -2.38362E-09 -2.37378E-09 -2.36318E-09 -2.35185E-09
  -2.33985E-09 -2.32723E-09 -2.31402E-09 -2.30029E-09 -2.28607E-09 -2.27142E-09 -2.25638E-09 -2.24100E-09 -2.22533E-09 -2.20942E-09
  -2.19332E-09 -2.17707E-09 -2.16072E-09 -2.14432E-09 -2.12791E-09 -2.11155E-09 -2.09529E-09 -2.07916E-09 -2.06323E-09 -2.04753E-09
  -2.03211E-09 -2.01703E-09 -2.00233E-09 -1.98806E-09 -1.97426E-09 -1.96099E-09 -1.94829E-09 -1.93620E-09 -1.92479E-09 -1.91410E-09
  -1.90416E-09 -1.89504E-09 -1.88677E-09 -1.87942E-09 -1.87302E-09 -1.86762E-09 -1.86327E-09 -1.86003E-09 -1.85793E-09 -1.85702E-09
  -1.85735E-09 -1.85898E-09 -1.86194E-09 -1.86626E-09 -1.87191E-09 -1.87885E-09 -1.88706E-09 -1.89651E-09 -1.90715E-09 -1.91898E-09
  -1.93194E-09 -1.94601E-09 -1.96116E-09 -1.97736E-09 -1.99458E-09 -2.01278E-09 -2.03193E-09 -2.05201E-09 -2.07297E-09 -2.09480E-09
  -2.11746E-09 -2.14091E-09 -2.16514E-09 -2.19010E-09 -2.21576E-09 -2.24210E-09 -2.26907E-09 -2.29666E-09 -2.32483E-09 -2.35354E-09
  -2.38277E-09 -2.41250E-09 -2.44267E-09 -2.47326E-09 -2.50426E-09 -2.53561E-09 -2.56728E-09 -2.59926E-09 -2.63151E-09 -2.66399E-09
  -2.69668E-09 -2.72954E-09 -2.76254E-09 -2.79566E-09 -2.82886E-09 -2.86210E-09 -2.89536E-09 -2.92861E-09 -2.96182E-09 -2.99494E-09
  -3.02796E-09 -3.06084E-09 -3.09356E-09 -3.12607E-09 -3.15835E-09 -3.19036E-09 -3.22209E-09 -3.25349E-09 -3.28452E-09 -3.31519E-09
  -3.34542E-09 -3.37520E-09 -3.40450E-09
 NY background values follow
    -2.472E-10   -2.050E-10   -1.629E-10   -1.210E-10   -7.928E-11   -3.769E-11    3.753E-12    4.507E-11    8.625E-11    1.273E-10
     1.683E-10    2.091E-10    2.499E-10    2.905E-10    3.311E-10    3.716E-10    4.120E-10    4.524E-10    4.926E-10    5.329E-10
     5.731E-10    6.132E-10    6.534E-10    6.935E-10    7.336E-10    7.736E-10    8.137E-10    8.538E-10    8.939E-10    9.340E-10
     9.741E-10    1.014E-09    1.054E-09    1.095E-09    1.135E-09    1.175E-09    1.216E-09    1.256E-09    1.297E-09    1.337E-09
     1.378E-09    1.419E-09    1.460E-09    1.501E-09    1.542E-09    1.583E-09    1.625E-09    1.667E-09    1.708E-09    1.750E-09
     1.792E-09    1.834E-09    1.877E-09    1.919E-09    1.962E-09    2.005E-09    2.048E-09    2.091E-09    2.135E-09    2.179E-09
     2.223E-09    2.267E-09    2.312E-09    2.356E-09    2.401E-09    2.446E-09    2.491E-09    2.535E-09    2.580E-09    2.625E-09
     2.669E-09    2.714E-09    2.758E-09    2.802E-09    2.845E-09    2.888E-09    2.931E-09    2.973E-09    3.015E-09    3.056E-09
     3.096E-09    3.136E-09    3.175E-09    3.214E-09    3.251E-09    3.288E-09    3.324E-09    3.359E-09    3.393E-09    3.426E-09
     3.458E-09    3.489E-09    3.519E-09    3.547E-09    3.575E-09    3.601E-09    3.625E-09    3.649E-09    3.671E-09    3.691E-09
     3.710E-09    3.728E-09    3.743E-09    3.758E-09    3.770E-09    3.781E-09    3.790E-09    3.797E-09    3.802E-09    3.806E-09
     3.807E-09    3.807E-09    3.804E-09    3.799E-09    3.792E-09    3.783E-09    3.772E-09    3.759E-09    3.743E-09    3.725E-09
     3.704E-09    3.681E-09    3.655E-09    3.627E-09    3.597E-09    3.565E-09    3.530E-09    3.493E-09    3.454E-09    3.412E-09
     3.369E-09    3.324E-09    3.276E-09    3.227E-09    3.176E-09    3.124E-09    3.069E-09    3.013E-09    2.956E-09    2.896E-09
     2.836E-09    2.774E-09    2.710E-09    2.645E-09    2.579E-09    2.512E-09    2.443E-09    2.373E-09    2.302E-09    2.231E-09
     2.158E-09    2.084E-09    2.010E-09    1.934E-09    1.858E-09    1.781E-09    1.704E-09    1.626E-09    1.547E-09    1.468E-09
     1.389E-09    1.309E-09    1.229E-09    1.149E-09    1.068E-09    9.872E-10    9.063E-10    8.253E-10    7.444E-10    6.635E-10
     5.827E-10    5.020E-10    4.216E-10    3.415E-10    2.617E-10    1.822E-10    1.032E-10    2.467E-11   -5.333E-11   -1.307E-10
    -2.075E-10   -2.836E-10   -3.589E-10   -4.335E-10   -5.072E-10   -5.802E-10   -6.524E-10   -7.238E-10   -7.944E-10   -8.641E-10
    -9.329E-10   -1.001E-09   -1.068E-09   -1.134E-09   -1.200E-09   -1.264E-09   -1.327E-09   -1.390E-09   -1.452E-09   -1.512E-09
    -1.572E-09   -1.631E-09   -1.688E-09   -1.745E-09   -1.800E-09   -1.855E-09   -1.908E-09   -1.961E-09   -2.012E-09   -2.062E-09
    -2.112E-09   -2.160E-09   -2.207E-09   -2.252E-09   -2.297E-09   -2.340E-09   -2.383E-09   -2.424E-09   -2.464E-09   -2.502E-09
    -2.540E-09   -2.576E-09   -2.611E-09   -2.644E-09   -2.677E-09   -2.708E-09   -2.737E-09   -2.766E-09   -2.793E-09   -2.819E-09
    -2.843E-09   -2.866E-09   -2.888E-09   -2.908E-09   -2.927E-09   -2.944E-09   -2.960E-09   -2.974E-09   -2.988E-09   -2.999E-09
    -3.009E-09   -3.018E-09   -3.025E-09   -3.030E-09   -3.035E-09   -3.037E-09   -3.039E-09   -3.039E-09   -3.038E-09   -3.036E-09
    -3.032E-09   -3.028E-09   -3.022E-09   -3.015E-09   -3.008E-09   -2.999E-09   -2.990E-09   -2.980E-09   -2.969E-09   -2.957E-09
    -2.945E-09   -2.932E-09   -2.919E-09   -2.904E-09   -2.890E-09   -2.875E-09   -2.860E-09   -2.844E-09   -2.828E-09   -2.812E-09
    -2.796E-09   -2.779E-09   -2.762E-09   -2.746E-09   -2.729E-09   -2.712E-09   -2.696E-09   -2.679E-09   -2.663E-09   -2.647E-09
    -2.632E-09   -2.616E-09   -2.601E-09   -2.587E-09   -2.573E-09   -2.559E-09   -2.546E-09   -2.534E-09   -2.522E-09   -2.511E-09
    -2.501E-09   -2.492E-09   -2.483E-09   -2.476E-09   -2.469E-09   -2.463E-09   -2.459E-09   -2.455E-09   -2.453E-09   -2.452E-09
    -2.452E-09   -2.453E-09   -2.456E-09   -2.460E-09   -2.465E-09   -2.472E-09   -2.480E-09   -2.489E-09   -2.500E-09   -2.511E-09
    -2.524E-09   -2.538E-09   -2.553E-09   -2.569E-09   -2.586E-09   -2.604E-09   -2.622E-09   -2.642E-09   -2.663E-09   -2.685E-09
    -2.707E-09   -2.730E-09   -2.754E-09   -2.779E-09   -2.804E-09   -2.830E-09   -2.857E-09   -2.884E-09   -2.912E-09   -2.941E-09
    -2.970E-09   -2.999E-09   -3.029E-09   -3.059E-09   -3.090E-09   -3.121E-09   -3.153E-09   -3.184E-09   -3.216E-09   -3.249E-09
    -3.281E-09   -3.314E-09   -3.346E-09   -3.379E-09   -3.412E-09   -3.445E-09   -3.478E-09   -3.511E-09   -3.544E-09   -3.577E-09
    -3.610E-09   -3.642E-09   -3.675E-09   -3.707E-09   -3.739E-09   -3.771E-09   -3.802E-09   -3.833E-09   -3.864E-09   -3.894E-09
    -3.924E-09   -3.954E-09   -3.983E-09
 Gln      Conc. = 3.14E-09
   1.84947E-09  2.44653E-09  3.13163E-09  3.84191E-09  4.44080E-09  4.82557E-09  4.92727E-09  4.70577E-09  4.28191E-09  3.90073E-09
   3.18982E-09  2.48134E-09  2.10248E-09  1.55219E-09  1.29288E-09  1.18073E-09  1.12898E-09  1.10773E-09  1.10444E-09  1.11275E-09
   1.12892E-09  1.15064E-09  1.17658E-09  1.20604E-09  1.23870E-09  1.27406E-09  1.31087E-09  1.34941E-09  1.38962E-09  1.43085E-09
   1.47311E-09  1.51642E-09  1.56080E-09  1.60629E-09  1.65293E-09  1.70080E-09  1.74998E-09  1.80060E-09  1.85280E-09  1.90677E-09
   1.96276E-09  2.02109E-09  2.08231E-09  2.14697E-09  2.21574E-09  2.28951E-09  2.36921E-09  2.45597E-09  2.55223E-09  2.66091E-09
   2.78588E-09  2.93568E-09  3.12216E-09  3.36745E-09  3.72869E-09  4.27060E-09  4.97550E-09  5.94444E-09  7.03903E-09  7.97800E-09
   8.82092E-09  9.67265E-09  1.02097E-08  1.01871E-08  9.63903E-09  8.76353E-09  7.91431E-09  7.24085E-09  6.05947E-09  4.97713E-09
   4.64674E-09  4.59944E-09  4.54246E-09  4.85450E-09  5.51335E-09  6.37424E-09  7.19669E-09  8.01124E-09  8.78060E-09  9.34647E-09
   9.65773E-09  9.67149E-09  9.21859E-09  8.72137E-09  8.22677E-09  7.31695E-09  6.49211E-09  6.06160E-09  5.50913E-09  5.07687E-09
   4.82823E-09  4.66956E-09  4.56384E-09  4.49071E-09  4.43637E-09  4.39661E-09  4.36785E-09  4.34628E-09  4.33039E-09  4.31917E-09
   4.31091E-09  4.30427E-09  4.29882E-09  4.29419E-09  4.29016E-09  4.28640E-09  4.28232E-09  4.27770E-09  4.27234E-09  4.26606E-09
   4.25870E-09  4.25011E-09  4.24015E-09  4.22871E-09  4.21568E-09  4.20097E-09  4.18446E-09  4.16608E-09  4.14575E-09  4.12339E-09
   4.09892E-09  4.07227E-09  4.04342E-09  4.01239E-09  3.97923E-09  3.94396E-09  3.90663E-09  3.86728E-09  3.82596E-09  3.78270E-09
   3.73756E-09  3.69057E-09  3.64180E-09  3.59128E-09  3.53907E-09  3.48522E-09  3.42977E-09  3.37279E-09  3.31433E-09  3.25443E-09
   3.19317E-09  3.13059E-09  3.06676E-09  3.00175E-09  2.93560E-09  2.86839E-09  2.80019E-09  2.73107E-09  2.66112E-09  2.59041E-09
   2.51904E-09  2.44711E-09  2.37474E-09  2.30206E-09  2.22923E-09  2.15644E-09  2.08392E-09  2.01198E-09  1.94101E-09  1.87158E-09
   1.80446E-09  1.74086E-09  1.68267E-09  1.63320E-09  1.59881E-09  1.59391E-09  1.66205E-09  2.00277E-09  2.65848E-09  3.78384E-09
   5.39991E-09  6.90163E-09  7.58015E-09  7.42717E-09  6.97090E-09  6.55239E-09  5.90797E-09  4.48380E-09  2.30348E-09  9.53077E-10
   5.25935E-10  3.01178E-10  1.46142E-10  2.28918E-11 -8.32177E-11 -1.78943E-10 -2.67816E-10 -3.51852E-10 -4.32264E-10 -5.09825E-10
  -5.85059E-10 -6.58299E-10 -7.29804E-10 -7.99734E-10 -8.68224E-10 -9.35374E-10 -1.00123E-09 -1.06586E-09 -1.12929E-09 -1.19155E-09
  -1.25265E-09 -1.31263E-09 -1.37147E-09 -1.42918E-09 -1.48577E-09 -1.54124E-09 -1.59558E-09 -1.64878E-09 -1.70086E-09 -1.75179E-09
  -1.80157E-09 -1.85019E-09 -1.89765E-09 -1.94392E-09 -1.98902E-09 -2.03292E-09 -2.07561E-09 -2.11709E-09 -2.15734E-09 -2.19636E-09
  -2.23411E-09 -2.27061E-09 -2.30584E-09 -2.33979E-09 -2.37245E-09 -2.40378E-09 -2.43381E-09 -2.46252E-09 -2.48986E-09 -2.51586E-09
  -2.54049E-09 -2.56374E-09 -2.58560E-09 -2.60605E-09 -2.62509E-09 -2.64270E-09 -2.65887E-09 -2.67359E-09 -2.68685E-09 -2.69862E-09
  -2.70891E-09 -2.71770E-09 -2.72497E-09 -2.73075E-09 -2.73510E-09 -2.73805E-09 -2.73966E-09 -2.73998E-09 -2.73905E-09 -2.73692E-09
  -2.73364E-09 -2.72925E-09 -2.72381E-09 -2.71736E-09 -2.70995E-09 -2.70164E-09 -2.69245E-09 -2.68245E-09 -2.67169E-09 -2.66020E-09
  -2.64804E-09 -2.63526E-09 -2.62190E-09 -2.60802E-09 -2.59365E-09 -2.57885E-09 -2.56366E-09 -2.54814E-09 -2.53233E-09 -2.51628E-09
  -2.50003E-09 -2.48364E-09 -2.46715E-09 -2.45061E-09 -2.43407E-09 -2.41758E-09 -2.40118E-09 -2.38492E-09 -2.36885E-09 -2.35302E-09
  -2.33748E-09 -2.32227E-09 -2.30744E-09 -2.29304E-09 -2.27911E-09 -2.26571E-09 -2.25288E-09 -2.24068E-09 -2.22913E-09 -2.21832E-09
  -2.20825E-09 -2.19901E-09 -2.19062E-09 -2.18314E-09 -2.17662E-09 -2.17109E-09 -2.16663E-09 -2.16325E-09 -2.16103E-09 -2.16000E-09
  -2.16021E-09 -2.16171E-09 -2.16456E-09 -2.16875E-09 -2.17428E-09 -2.18110E-09 -2.18919E-09 -2.19851E-09 -2.20904E-09 -2.22074E-09
  -2.23358E-09 -2.24753E-09 -2.26255E-09 -2.27863E-09 -2.29572E-09 -2.31380E-09 -2.33283E-09 -2.35278E-09 -2.37362E-09 -2.39533E-09
  -2.41786E-09 -2.44119E-09 -2.46529E-09 -2.49013E-09 -2.51566E-09 -2.54187E-09 -2.56872E-09 -2.59618E-09 -2.62422E-09 -2.65281E-09
  -2.68191E-09 -2.71151E-09 -2.74155E-09 -2.77202E-09 -2.80288E-09 -2.83410E-09 -2.86564E-09 -2.89750E-09 -2.92961E-09 -2.96196E-09
  -2.99452E-09 -3.02724E-09 -3.06011E-09 -3.09309E-09 -3.12616E-09 -3.15927E-09 -3.19239E-09 -3.22550E-09 -3.25857E-09 -3.29155E-09
  -3.32444E-09 -3.35718E-09 -3.38975E-09 -3.42213E-09 -3.45426E-09 -3.48613E-09 -3.51772E-09 -3.54897E-09 -3.57986E-09 -3.61038E-09
  -3.64046E-09 -3.67010E-09 -3.69925E-09
 Glyc     Conc. = 1.15E-09
  -1.33090E-10 -8.05903E-11 -2.52335E-11  3.44494E-11  1.01041E-10  1.79591E-10  2.81845E-10  4.44865E-10  8.37453E-10  1.45159E-09
   2.44512E-09  3.77845E-09  4.93656E-09  5.42582E-09  5.33845E-09  5.08962E-09  4.88360E-09  4.45626E-09  3.39790E-09  1.83003E-09
   1.10606E-09  9.27133E-10  8.72032E-10  8.60704E-10  8.69375E-10  8.88690E-10  9.14275E-10  9.43814E-10  9.75990E-10  1.01001E-09
   1.04536E-09  1.08170E-09  1.11881E-09  1.15651E-09  1.19469E-09  1.23328E-09  1.27220E-09  1.31142E-09  1.35090E-09  1.39061E-09
   1.43054E-09  1.47068E-09  1.51101E-09  1.55152E-09  1.59222E-09  1.63310E-09  1.67416E-09  1.71541E-09  1.75684E-09  1.79845E-09
   1.84025E-09  1.88224E-09  1.92443E-09  1.96681E-09  2.00941E-09  2.05222E-09  2.09524E-09  2.13847E-09  2.18194E-09  2.22563E-09
   2.26957E-09  2.31375E-09  2.35814E-09  2.40270E-09  2.44739E-09  2.49215E-09  2.53695E-09  2.58173E-09  2.62646E-09  2.67108E-09
   2.71556E-09  2.75984E-09  2.80388E-09  2.84763E-09  2.89106E-09  2.93411E-09  2.97673E-09  3.01890E-09  3.06055E-09  3.10164E-09
   3.14213E-09  3.18198E-09  3.22113E-09  3.25955E-09  3.29718E-09  3.33399E-09  3.36992E-09  3.40494E-09  3.43899E-09  3.47203E-09
   3.50403E-09  3.53492E-09  3.56467E-09  3.59323E-09  3.62055E-09  3.64660E-09  3.67132E-09  3.69468E-09  3.71662E-09  3.73710E-09
   3.75607E-09  3.77350E-09  3.78933E-09  3.80353E-09  3.81603E-09  3.82681E-09  3.83582E-09  3.84300E-09  3.84832E-09  3.85173E-09
   3.85318E-09  3.85263E-09  3.85004E-09  3.84536E-09  3.83854E-09  3.82955E-09  3.81833E-09  3.80484E-09  3.78903E-09  3.77086E-09
   3.75029E-09  3.72727E-09  3.70180E-09  3.67391E-09  3.64367E-09  3.61114E-09  3.57635E-09  3.53938E-09  3.50026E-09  3.45906E-09
   3.41584E-09  3.37063E-09  3.32351E-09  3.27452E-09  3.22371E-09  3.17115E-09  3.11688E-09  3.06097E-09  3.00347E-09  2.94442E-09
   2.88390E-09  2.82194E-09  2.75862E-09  2.69400E-09  2.62811E-09  2.56103E-09  2.49281E-09  2.42352E-09  2.35321E-09  2.28196E-09
   2.20983E-09  2.13688E-09  2.06321E-09  1.98888E-09  1.91399E-09  1.83865E-09  1.76296E-09  1.68709E-09  1.61122E-09  1.53560E-09
   1.46056E-09  1.38667E-09  1.31476E-09  1.24639E-09  1.18478E-09  1.13824E-09  1.13862E-09  1.27798E-09  1.53428E-09  2.01220E-09
   2.61949E-09  3.04068E-09  3.08174E-09  2.88397E-09  2.66441E-09  2.46068E-09  2.07349E-09  1.32340E-09  4.33722E-10  1.31574E-10
  -2.58497E-11 -1.41909E-10 -2.40703E-10 -3.30487E-10 -4.14840E-10 -4.95529E-10 -5.73527E-10 -6.49417E-10 -7.23554E-10 -7.96166E-10
  -8.67420E-10 -9.37406E-10 -1.00621E-09 -1.07387E-09 -1.14043E-09 -1.20591E-09 -1.27033E-09 -1.33369E-09 -1.39601E-09 -1.45727E-09
  -1.51749E-09 -1.57667E-09 -1.63478E-09 -1.69184E-09 -1.74782E-09 -1.80274E-09 -1.85657E-09 -1.90929E-09 -1.96092E-09 -2.01144E-09
  -2.06083E-09 -2.10908E-09 -2.15619E-09 -2.20213E-09 -2.24692E-09 -2.29053E-09 -2.33293E-09 -2.37413E-09 -2.41413E-09 -2.45289E-09
  -2.49041E-09 -2.52667E-09 -2.56167E-09 -2.59541E-09 -2.62786E-09 -2.65899E-09 -2.68882E-09 -2.71733E-09 -2.74449E-09 -2.77030E-09
