 LCModel (Version 6.3-1R) Copyright: S.W. Provencher.          Ref.: Magn. Reson. Med. 30:672-679 (1993).                
 onepulse 25x15_ftSpec_smooth_lcm
 26 lines in following concentration table = NCONC+1
    Conc.  %SD /Cr+PCr  Metabolite                                         
    0.000 999%   0.000 Ala                                                 
 5.17E-11 999%   0.148 Asp                                                 
 3.49E-10  68%   1.000 Cr                                                  
    0.000 999%   0.000 GABA                                                
    0.000 999%   0.000 Glc                                                 
 3.01E-09  19%   8.615 Gln                                                 
    0.000 999%   0.000 Glu                                                 
 1.27E-09  41%   3.648 Glyc                                                
    0.000 999%   0.000 GPC                                                 
    0.000 999%   0.000 GSH                                                 
    0.000 999%   0.000 Ins                                                 
    0.000 999%   0.000 Lac                                                 
 7.01E-11 471%   0.201 NAAG                                                
 3.40E-10 123%   0.973 NAA                                                 
 2.39E-10  67%   0.686 PCh                                                 
    0.000 999%   0.000 PCr                                                 
    0.000 999%   0.000 PE                                                  
 2.74E-10 130%   0.785 Scyllo                                              
 2.14E-09  32%   6.125 Ser                                                 
 3.22E-10 345%   0.921 Tau                                                 
 2.39E-10  67%   0.686 GPC+PCh                                             
 4.10E-10  61%   1.174 NAA+NAAG                                            
 1.27E-09  41%   3.648 Ins+Glyc                                            
 3.49E-10  68%   1.000 Cr+PCr                                              
 3.01E-09  19%   8.615 Glu+Gln                                             
   6 lines in following misc. output table
  FWHM = 0.089 ppm    S/N =   3                                            
  Data shift = 0.347 ppm                                                   
  Ph: -58 deg     -32.4 deg/ppm                                            
  alphaB,S = 1.7E-01,   4.5E+01                                            
   16 spline knots.   Ns = 5(1)                                            
  ( 9) 4 infls.   ( 7) 1 extrs.                                            
  363 points on ppm-axis = NY
      4.250000     4.238821     4.227641     4.216462     4.205282     4.194103     4.182923     4.171744     4.160564     4.149385
      4.138206     4.127026     4.115847     4.104667     4.093488     4.082308     4.071129     4.059949     4.048770     4.037591
      4.026411     4.015232     4.004052     3.992873     3.981693     3.970514     3.959334     3.948155     3.936975     3.925796
      3.914617     3.903437     3.892258     3.881078     3.869899     3.858719     3.847540     3.836360     3.825181     3.814002
      3.802822     3.791643     3.780463     3.769284     3.758104     3.746925     3.735745     3.724566     3.713387     3.702207
      3.691028     3.679848     3.668669     3.657489     3.646310     3.635130     3.623951     3.612772     3.601592     3.590413
      3.579233     3.568054     3.556874     3.545695     3.534515     3.523336     3.512156     3.500977     3.489798     3.478618
      3.467439     3.456259     3.445080     3.433900     3.422721     3.411541     3.400362     3.389183     3.378003     3.366824
      3.355644     3.344465     3.333285     3.322106     3.310926     3.299747     3.288568     3.277388     3.266209     3.255029
      3.243850     3.232670     3.221491     3.210311     3.199132     3.187953     3.176773     3.165594     3.154414     3.143235
      3.132055     3.120876     3.109696     3.098517     3.087337     3.076158     3.064979     3.053799     3.042620     3.031440
      3.020261     3.009081     2.997902     2.986722     2.975543     2.964364     2.953184     2.942005     2.930825     2.919646
      2.908466     2.897287     2.886107     2.874928     2.863749     2.852569     2.841390     2.830210     2.819031     2.807851
      2.796672     2.785492     2.774313     2.763134     2.751954     2.740775     2.729595     2.718416     2.707236     2.696057
      2.684877     2.673698     2.662519     2.651339     2.640160     2.628980     2.617801     2.606621     2.595442     2.584262
      2.573083     2.561903     2.550724     2.539545     2.528365     2.517186     2.506006     2.494827     2.483647     2.472468
      2.461288     2.450109     2.438930     2.427750     2.416571     2.405391     2.394212     2.383032     2.371853     2.360673
      2.349494     2.338315     2.327135     2.315956     2.304776     2.293597     2.282417     2.271238     2.260058     2.248879
      2.237700     2.226520     2.215341     2.204161     2.192982     2.181802     2.170623     2.159443     2.148264     2.137084
      2.125905     2.114726     2.103546     2.092367     2.081187     2.070008     2.058828     2.047649     2.036469     2.025290
      2.014111     2.002931     1.991752     1.980572     1.969393     1.958213     1.947034     1.935854     1.924675     1.913496
      1.902316     1.891137     1.879957     1.868778     1.857598     1.846419     1.835239     1.824060     1.812881     1.801701
      1.790522     1.779342     1.768163     1.756983     1.745804     1.734624     1.723445     1.712265     1.701086     1.689907
      1.678727     1.667548     1.656368     1.645189     1.634009     1.622830     1.611650     1.600471     1.589292     1.578112
      1.566933     1.555753     1.544574     1.533394     1.522215     1.511035     1.499856     1.488677     1.477497     1.466318
      1.455138     1.443959     1.432779     1.421600     1.410420     1.399241     1.388062     1.376882     1.365703     1.354523
      1.343344     1.332164     1.320985     1.309805     1.298626     1.287446     1.276267     1.265088     1.253908     1.242729
      1.231549     1.220370     1.209190     1.198011     1.186831     1.175652     1.164473     1.153293     1.142114     1.130934
      1.119755     1.108575     1.097396     1.086216     1.075037     1.063858     1.052678     1.041499     1.030319     1.019140
      1.007960     0.996781     0.985601     0.974422     0.963243     0.952063     0.940884     0.929704     0.918525     0.907345
      0.896166     0.884986     0.873807     0.862628     0.851448     0.840269     0.829089     0.817910     0.806730     0.795551
      0.784371     0.773192     0.762012     0.750833     0.739654     0.728474     0.717295     0.706115     0.694936     0.683756
      0.672577     0.661397     0.650218     0.639039     0.627859     0.616680     0.605500     0.594321     0.583141     0.571962
      0.560782     0.549603     0.538424     0.527244     0.516065     0.504885     0.493706     0.482526     0.471347     0.460167
      0.448988     0.437809     0.426629     0.415450     0.404270     0.393091     0.381911     0.370732     0.359552     0.348373
      0.337193     0.326014     0.314835     0.303655     0.292476     0.281296     0.270117     0.258937     0.247758     0.236578
      0.225399     0.214220     0.203040
 NY phased data points follow
   1.28726E-08  1.14988E-08  8.76314E-09  6.59649E-09  5.84235E-09  5.46756E-09  4.73666E-09  5.75660E-09  5.50248E-09  6.07056E-09
   6.00971E-09  6.51495E-09  6.93139E-09  6.59894E-09  6.59821E-09  7.52966E-09  5.68989E-09  6.35860E-09  5.90342E-09  6.02263E-09
   5.55338E-09  5.14615E-09  5.08933E-09  6.24565E-09  6.61516E-09  7.27071E-09  6.00688E-09  5.62009E-09  5.10985E-09  5.82692E-09
   6.63110E-09  7.68849E-09  8.01541E-09  6.92621E-09  4.93379E-09  4.11595E-09  2.89346E-09  1.92652E-09  2.00502E-09  2.84234E-09
   2.15918E-09  2.07070E-09  1.90787E-09  2.45882E-09  1.72397E-09  1.88414E-09  2.47873E-09  1.71924E-09  2.10476E-09  2.58388E-09
   2.69485E-09  3.97774E-09  2.67905E-09  2.99251E-09  2.96084E-09  2.54449E-09  3.21181E-09  4.72941E-09  4.09585E-09  5.43591E-09
   5.46242E-09  7.60238E-09  1.04650E-08  1.26080E-08  1.19030E-08  8.99278E-09  6.41252E-09  4.84569E-09  3.91245E-09  3.83449E-09
   3.33307E-09  3.53067E-09  2.71973E-09  3.53927E-09  3.05051E-09  4.27056E-09  4.04740E-09  5.96936E-09  8.07720E-09  1.22276E-08
   1.30305E-08  1.22528E-08  9.65255E-09  8.54462E-09  7.18393E-09  6.60074E-09  5.27859E-09  5.28028E-09  4.21669E-09  4.39856E-09
   3.97004E-09  4.17396E-09  2.34993E-09  3.44442E-09  2.29094E-09  2.55440E-09  2.19875E-09  2.44442E-09  2.65189E-09  2.26335E-09
   1.89170E-09  2.42166E-09  1.83124E-09  2.92361E-09  2.15001E-09  1.86020E-09  2.64286E-09  2.02837E-09  1.09339E-09  1.10087E-09
   1.06994E-09  1.13108E-09  1.41236E-09  2.43408E-09  2.34278E-09  2.40207E-09  2.44726E-09  3.03234E-09  3.01217E-09  3.68531E-09
   3.18608E-09  3.41515E-09  2.38850E-09  2.44431E-09  1.49976E-09  1.78201E-09  1.20640E-09  2.04772E-09  2.14366E-09  3.15539E-09
   2.25497E-09  2.84039E-09  1.94975E-09  3.16174E-09  1.90860E-09  2.51578E-09  2.34413E-09  2.92733E-09  1.93695E-09  3.54891E-09
   4.24619E-09  5.24313E-09  4.49609E-09  4.12246E-09  4.24681E-09  4.66998E-09  5.24857E-09  5.79513E-09  5.41732E-09  5.58571E-09
   4.90978E-09  5.96028E-09  4.73149E-09  4.31246E-09  4.50835E-09  4.61019E-09  4.40169E-09  4.91161E-09  4.70815E-09  4.86803E-09
   4.76064E-09  4.94132E-09  5.07397E-09  4.66768E-09  4.18374E-09  4.64055E-09  5.14262E-09  7.04711E-09  7.03910E-09  8.57092E-09
   1.18445E-08  1.74198E-08  1.87321E-08  1.65258E-08  1.36629E-08  1.20873E-08  1.11205E-08  1.00217E-08  8.81463E-09  8.25104E-09
   7.48728E-09  6.44322E-09  6.02787E-09  5.25019E-09  4.43408E-09  3.76409E-09  2.57260E-09  1.97042E-09  6.15058E-10 -1.41981E-10
  -1.39939E-09 -2.07877E-09 -3.68942E-09 -5.15974E-09 -6.40978E-09 -7.64087E-09 -9.15791E-09 -1.09563E-08 -1.26997E-08 -1.33394E-08
  -1.40135E-08 -1.53528E-08 -1.54042E-08 -1.54282E-08 -1.51621E-08 -1.45328E-08 -1.40510E-08 -1.21717E-08 -1.20427E-08 -9.88312E-09
  -8.83820E-09 -6.90326E-09 -5.47299E-09 -4.53762E-09 -3.37971E-09 -1.67857E-09 -2.06673E-09 -1.42760E-09 -1.13209E-09 -1.40847E-09
  -1.66572E-09 -2.16744E-09 -1.43235E-09 -1.15295E-09 -1.88591E-09 -1.42261E-09 -1.25322E-09 -1.38482E-09 -5.30293E-10 -1.02365E-09
  -8.01937E-10 -7.89953E-10 -1.15221E-09 -1.11097E-09 -1.37462E-09 -1.22149E-09 -1.24314E-09 -9.68050E-10 -7.86502E-10 -7.82832E-10
   2.62859E-11 -6.82416E-10 -9.90849E-10 -5.19325E-10 -8.41949E-10 -5.29931E-10 -1.37188E-09 -8.84233E-10 -1.54072E-09 -8.42562E-10
  -4.09942E-10 -7.06479E-10 -3.60602E-10 -1.74389E-11  5.78582E-10 -2.19495E-10  3.81664E-10 -1.04815E-10 -2.69765E-10 -3.43043E-10
  -7.34305E-10 -3.82075E-10 -1.15383E-09 -1.24401E-09 -1.20558E-09 -1.18276E-09 -1.33477E-09 -9.35855E-10 -1.47517E-09 -1.10287E-09
  -3.57693E-10 -5.51096E-10 -1.45957E-10 -3.13464E-10  2.76776E-11  4.17396E-10  5.89012E-10  5.72516E-10  5.76559E-10  6.73122E-10
   7.08583E-10 -6.62386E-11  9.53837E-11 -3.96086E-10 -2.71553E-10 -4.66311E-10 -5.50994E-11  6.35592E-12 -4.75961E-10 -5.09839E-10
  -5.47735E-11 -1.04805E-09 -5.74811E-10 -6.95167E-10 -6.48765E-10 -9.10689E-10 -2.96136E-10 -4.64923E-10 -3.26541E-10 -1.17939E-09
  -5.97823E-10 -5.47627E-10 -9.88750E-10 -5.67306E-10 -1.18973E-09 -6.20516E-10 -7.44000E-10 -1.05755E-09 -6.01553E-10 -1.45067E-09
  -1.12458E-09 -1.20829E-09 -1.18722E-09 -1.35959E-09 -1.08379E-09 -8.94058E-10 -1.31315E-09 -1.14990E-09 -1.45058E-09 -7.71058E-10
  -1.06403E-09 -1.49079E-09 -1.48130E-09 -9.97721E-10 -1.08186E-09 -1.09413E-09 -1.28712E-09 -1.57865E-09 -1.12143E-09 -1.47498E-09
  -1.50376E-09 -1.26733E-09 -1.22824E-09 -1.58657E-09 -1.19415E-09 -1.72260E-09 -5.25805E-10 -1.57413E-09 -1.15559E-09 -1.50469E-09
  -1.40850E-09 -1.47830E-09 -1.60616E-09 -1.96616E-09 -1.62903E-09 -1.20671E-09 -1.47329E-09 -1.28457E-09 -1.64926E-09 -1.31183E-09
  -1.28941E-09 -1.45265E-09 -8.46729E-10 -1.72843E-09 -2.18787E-09 -1.41809E-09 -1.21685E-09 -1.92990E-09 -1.81849E-09 -1.25862E-09
  -1.84419E-09 -1.30736E-09 -1.92115E-09
 NY points of the fit to the data follow
   1.08319E-08  9.77454E-09  8.59850E-09  8.02037E-09  7.85174E-09  7.36742E-09  6.56128E-09  5.83610E-09  5.56235E-09  5.74108E-09
   5.99236E-09  6.26115E-09  6.82042E-09  6.92053E-09  6.76207E-09  6.47726E-09  6.22493E-09  6.10485E-09  5.73612E-09  5.00413E-09
   4.76314E-09  5.12990E-09  5.42390E-09  5.65345E-09  6.12793E-09  6.67255E-09  7.17821E-09  7.32100E-09  6.99953E-09  6.66351E-09
   6.29315E-09  5.98489E-09  5.75934E-09  5.26132E-09  4.39992E-09  3.57129E-09  3.44329E-09  3.33048E-09  3.16903E-09  3.00292E-09
   2.78196E-09  2.38173E-09  1.83465E-09  1.54247E-09  1.53420E-09  1.59412E-09  1.67395E-09  1.75769E-09  1.85386E-09  1.95842E-09
   2.08891E-09  2.25112E-09  2.45760E-09  2.70577E-09  3.07033E-09  3.66320E-09  4.34686E-09  5.12910E-09  6.15548E-09  7.11873E-09
   7.82895E-09  8.41123E-09  8.79415E-09  8.77458E-09  8.30392E-09  7.47113E-09  6.56557E-09  5.83693E-09  4.84941E-09  3.82195E-09
   3.45422E-09  3.42953E-09  3.48576E-09  3.80257E-09  4.35790E-09  5.21736E-09  6.15350E-09  7.22890E-09  8.32362E-09  9.29739E-09
   1.00383E-08  1.03634E-08  1.00503E-08  9.42751E-09  8.75263E-09  7.73127E-09  6.49519E-09  5.40884E-09  4.26331E-09  3.61857E-09
   3.29448E-09  3.09926E-09  2.97080E-09  2.88288E-09  2.81777E-09  2.77063E-09  2.73840E-09  2.71636E-09  2.70102E-09  2.69107E-09
   2.68820E-09  2.68991E-09  2.69389E-09  2.70035E-09  2.70971E-09  2.72154E-09  2.73514E-09  2.75023E-09  2.76657E-09  2.78401E-09
   2.80241E-09  2.82164E-09  2.84161E-09  2.86215E-09  2.88307E-09  2.90419E-09  2.92533E-09  2.94634E-09  2.96705E-09  2.98731E-09
   3.00697E-09  3.02588E-09  3.04390E-09  3.06090E-09  3.07674E-09  3.09128E-09  3.10440E-09  3.11595E-09  3.12583E-09  3.13390E-09
   3.14003E-09  3.14411E-09  3.14601E-09  3.14561E-09  3.14280E-09  3.13745E-09  3.12946E-09  3.11871E-09  3.10510E-09  3.08851E-09
   3.06884E-09  3.04605E-09  3.02010E-09  2.99099E-09  2.95868E-09  2.92318E-09  2.88448E-09  2.84259E-09  2.79753E-09  2.74935E-09
   2.69810E-09  2.64387E-09  2.58680E-09  2.52705E-09  2.46488E-09  2.40063E-09  2.33479E-09  2.26804E-09  2.20139E-09  2.13632E-09
   2.07514E-09  2.02159E-09  1.98207E-09  1.96858E-09  2.00667E-09  2.16307E-09  2.68922E-09  4.51762E-09  7.26383E-09  1.03404E-08
   1.35773E-08  1.63151E-08  1.76185E-08  1.73156E-08  1.61237E-08  1.46093E-08  1.23661E-08  8.54058E-09  3.70715E-09  1.02725E-09
   1.25098E-10 -3.58811E-10 -6.94306E-10 -9.60157E-10 -1.18722E-09 -1.38989E-09 -1.57564E-09 -1.74862E-09 -1.91124E-09 -2.06493E-09
  -2.21050E-09 -2.34841E-09 -2.47886E-09 -2.60186E-09 -2.71737E-09 -2.82522E-09 -2.92530E-09 -3.01783E-09 -3.10306E-09 -3.18121E-09
  -3.25250E-09 -3.31711E-09 -3.37522E-09 -3.42702E-09 -3.47265E-09 -3.51228E-09 -3.54607E-09 -3.57416E-09 -3.59670E-09 -3.61383E-09
  -3.62569E-09 -3.63243E-09 -3.63417E-09 -3.63107E-09 -3.62325E-09 -3.61084E-09 -3.59399E-09 -3.57282E-09 -3.54746E-09 -3.51805E-09
  -3.48471E-09 -3.44758E-09 -3.40679E-09 -3.36246E-09 -3.31476E-09 -3.26387E-09 -3.21000E-09 -3.15335E-09 -3.09412E-09 -3.03252E-09
  -2.96874E-09 -2.90299E-09 -2.83548E-09 -2.76639E-09 -2.69593E-09 -2.62431E-09 -2.55173E-09 -2.47838E-09 -2.40446E-09 -2.33019E-09
  -2.25576E-09 -2.18136E-09 -2.10720E-09 -2.03350E-09 -1.96042E-09 -1.88819E-09 -1.81700E-09 -1.74706E-09 -1.67856E-09 -1.61172E-09
  -1.54670E-09 -1.48375E-09 -1.42294E-09 -1.36427E-09 -1.30772E-09 -1.25327E-09 -1.20089E-09 -1.15057E-09 -1.10227E-09 -1.05599E-09
  -1.01171E-09 -9.69382E-10 -9.29008E-10 -8.90555E-10 -8.54011E-10 -8.19347E-10 -7.86530E-10 -7.55568E-10 -7.26423E-10 -6.99067E-10
  -6.73480E-10 -6.49654E-10 -6.27550E-10 -6.07155E-10 -5.88456E-10 -5.71408E-10 -5.56016E-10 -5.42242E-10 -5.30072E-10 -5.19474E-10
  -5.10423E-10 -5.02878E-10 -4.96791E-10 -4.92120E-10 -4.88828E-10 -4.86865E-10 -4.86196E-10 -4.86772E-10 -4.88552E-10 -4.91496E-10
  -4.95559E-10 -5.00699E-10 -5.06872E-10 -5.14037E-10 -5.22153E-10 -5.31173E-10 -5.41057E-10 -5.51762E-10 -5.63249E-10 -5.75465E-10
  -5.88380E-10 -6.01942E-10 -6.16111E-10 -6.30850E-10 -6.46109E-10 -6.61848E-10 -6.78026E-10 -6.94596E-10 -7.11536E-10 -7.28826E-10
  -7.46445E-10 -7.64377E-10 -7.82601E-10 -8.01097E-10 -8.19848E-10 -8.38835E-10 -8.58038E-10 -8.77438E-10 -8.97017E-10 -9.16754E-10
  -9.36634E-10 -9.56633E-10 -9.76734E-10 -9.96920E-10 -1.01717E-09 -1.03746E-09 -1.05779E-09 -1.07811E-09 -1.09843E-09 -1.11872E-09
  -1.13895E-09 -1.15912E-09 -1.17920E-09 -1.19917E-09 -1.21902E-09 -1.23873E-09 -1.25829E-09 -1.27772E-09 -1.29702E-09 -1.31620E-09
  -1.33527E-09 -1.35423E-09 -1.37308E-09 -1.39185E-09 -1.41053E-09 -1.42913E-09 -1.44766E-09 -1.46612E-09 -1.48453E-09 -1.50288E-09
  -1.52119E-09 -1.53946E-09 -1.55770E-09 -1.57591E-09 -1.59411E-09 -1.61230E-09 -1.63049E-09 -1.64868E-09 -1.66688E-09 -1.68510E-09
  -1.70335E-09 -1.72163E-09 -1.73994E-09
 NY background values follow
    -1.608E-09   -1.570E-09   -1.531E-09   -1.492E-09   -1.453E-09   -1.413E-09   -1.374E-09   -1.335E-09   -1.296E-09   -1.257E-09
    -1.218E-09   -1.179E-09   -1.140E-09   -1.101E-09   -1.062E-09   -1.023E-09   -9.839E-10   -9.451E-10   -9.065E-10   -8.679E-10
    -8.295E-10   -7.912E-10   -7.531E-10   -7.151E-10   -6.772E-10   -6.396E-10   -6.021E-10   -5.648E-10   -5.277E-10   -4.909E-10
    -4.542E-10   -4.178E-10   -3.816E-10   -3.456E-10   -3.098E-10   -2.742E-10   -2.388E-10   -2.036E-10   -1.687E-10   -1.339E-10
    -9.936E-11   -6.500E-11   -3.084E-11    3.114E-12    3.687E-11    7.043E-11    1.038E-10    1.369E-10    1.699E-10    2.027E-10
     2.353E-10    2.677E-10    2.999E-10    3.319E-10    3.637E-10    3.953E-10    4.268E-10    4.581E-10    4.892E-10    5.201E-10
     5.508E-10    5.814E-10    6.119E-10    6.422E-10    6.724E-10    7.024E-10    7.323E-10    7.621E-10    7.918E-10    8.214E-10
     8.509E-10    8.803E-10    9.096E-10    9.388E-10    9.679E-10    9.970E-10    1.026E-09    1.055E-09    1.084E-09    1.113E-09
     1.142E-09    1.171E-09    1.199E-09    1.228E-09    1.257E-09    1.286E-09    1.315E-09    1.343E-09    1.372E-09    1.401E-09
     1.430E-09    1.458E-09    1.487E-09    1.516E-09    1.544E-09    1.573E-09    1.602E-09    1.630E-09    1.659E-09    1.688E-09
     1.716E-09    1.745E-09    1.773E-09    1.802E-09    1.830E-09    1.858E-09    1.887E-09    1.915E-09    1.943E-09    1.971E-09
     2.000E-09    2.028E-09    2.056E-09    2.084E-09    2.112E-09    2.139E-09    2.166E-09    2.192E-09    2.218E-09    2.243E-09
     2.266E-09    2.289E-09    2.311E-09    2.331E-09    2.350E-09    2.367E-09    2.383E-09    2.397E-09    2.409E-09    2.419E-09
     2.427E-09    2.432E-09    2.436E-09    2.436E-09    2.435E-09    2.430E-09    2.423E-09    2.412E-09    2.399E-09    2.383E-09
     2.363E-09    2.339E-09    2.313E-09    2.283E-09    2.249E-09    2.212E-09    2.171E-09    2.127E-09    2.079E-09    2.027E-09
     1.971E-09    1.912E-09    1.848E-09    1.781E-09    1.710E-09    1.635E-09    1.555E-09    1.472E-09    1.384E-09    1.292E-09
     1.196E-09    1.096E-09    9.913E-10    8.822E-10    7.687E-10    6.507E-10    5.282E-10    4.010E-10    2.694E-10    1.335E-10
    -6.287E-12   -1.494E-10   -2.956E-10   -4.443E-10   -5.953E-10   -7.479E-10   -9.019E-10   -1.057E-09   -1.212E-09   -1.368E-09
    -1.523E-09   -1.677E-09   -1.831E-09   -1.983E-09   -2.132E-09   -2.280E-09   -2.424E-09   -2.566E-09   -2.703E-09   -2.837E-09
    -2.966E-09   -3.090E-09   -3.209E-09   -3.323E-09   -3.430E-09   -3.530E-09   -3.624E-09   -3.711E-09   -3.791E-09   -3.865E-09
    -3.933E-09   -3.994E-09   -4.049E-09   -4.097E-09   -4.140E-09   -4.178E-09   -4.209E-09   -4.235E-09   -4.256E-09   -4.271E-09
    -4.281E-09   -4.287E-09   -4.287E-09   -4.282E-09   -4.273E-09   -4.260E-09   -4.242E-09   -4.219E-09   -4.193E-09   -4.163E-09
    -4.128E-09   -4.090E-09   -4.049E-09   -4.004E-09   -3.955E-09   -3.904E-09   -3.849E-09   -3.792E-09   -3.732E-09   -3.670E-09
    -3.605E-09   -3.539E-09   -3.471E-09   -3.401E-09   -3.330E-09   -3.258E-09   -3.185E-09   -3.111E-09   -3.037E-09   -2.962E-09
    -2.887E-09   -2.812E-09   -2.738E-09   -2.663E-09   -2.590E-09   -2.517E-09   -2.446E-09   -2.375E-09   -2.306E-09   -2.239E-09
    -2.174E-09   -2.111E-09   -2.049E-09   -1.990E-09   -1.933E-09   -1.879E-09   -1.826E-09   -1.775E-09   -1.727E-09   -1.680E-09
    -1.635E-09   -1.593E-09   -1.552E-09   -1.513E-09   -1.476E-09   -1.441E-09   -1.408E-09   -1.377E-09   -1.348E-09   -1.320E-09
    -1.294E-09   -1.270E-09   -1.248E-09   -1.227E-09   -1.208E-09   -1.191E-09   -1.175E-09   -1.161E-09   -1.148E-09   -1.138E-09
    -1.128E-09   -1.120E-09   -1.114E-09   -1.109E-09   -1.106E-09   -1.103E-09   -1.102E-09   -1.103E-09   -1.104E-09   -1.107E-09
    -1.111E-09   -1.116E-09   -1.121E-09   -1.128E-09   -1.136E-09   -1.145E-09   -1.155E-09   -1.165E-09   -1.176E-09   -1.188E-09
    -1.201E-09   -1.214E-09   -1.228E-09   -1.243E-09   -1.258E-09   -1.273E-09   -1.289E-09   -1.305E-09   -1.322E-09   -1.339E-09
    -1.356E-09   -1.374E-09   -1.392E-09   -1.410E-09   -1.429E-09   -1.447E-09   -1.466E-09   -1.486E-09   -1.505E-09   -1.524E-09
    -1.544E-09   -1.564E-09   -1.584E-09   -1.603E-09   -1.623E-09   -1.644E-09   -1.664E-09   -1.684E-09   -1.704E-09   -1.724E-09
    -1.744E-09   -1.764E-09   -1.783E-09   -1.803E-09   -1.823E-09   -1.842E-09   -1.861E-09   -1.881E-09   -1.900E-09   -1.918E-09
    -1.937E-09   -1.956E-09   -1.974E-09   -1.993E-09   -2.011E-09   -2.030E-09   -2.048E-09   -2.066E-09   -2.084E-09   -2.102E-09
    -2.120E-09   -2.138E-09   -2.156E-09   -2.174E-09   -2.192E-09   -2.210E-09   -2.228E-09   -2.246E-09   -2.264E-09   -2.282E-09
    -2.299E-09   -2.317E-09   -2.335E-09
 Asp      Conc. = 5.17E-11
  -1.54721E-09 -1.51699E-09 -1.48557E-09 -1.45495E-09 -1.42228E-09 -1.39083E-09 -1.35876E-09 -1.32483E-09 -1.28814E-09 -1.25038E-09
  -1.21212E-09 -1.17359E-09 -1.13488E-09 -1.09605E-09 -1.05724E-09 -1.01845E-09 -9.79701E-10 -9.41007E-10 -9.02382E-10 -8.63838E-10
  -8.25390E-10 -7.87046E-10 -7.48827E-10 -7.10732E-10 -6.72769E-10 -6.34959E-10 -5.97296E-10 -5.59785E-10 -5.22432E-10 -4.85234E-10
  -4.48171E-10 -4.11214E-10 -3.74323E-10 -3.37427E-10 -3.00395E-10 -2.62937E-10 -2.24377E-10 -1.85591E-10 -1.46018E-10 -1.07096E-10
  -6.94737E-11 -3.32940E-11  2.55184E-12  3.95758E-11  7.95281E-11  1.23315E-10  1.66489E-10  2.07988E-10  2.50683E-10  2.89391E-10
   3.25713E-10  3.59875E-10  3.90935E-10  4.15267E-10  4.33216E-10  4.49675E-10  4.70933E-10  5.00309E-10  5.27057E-10  5.50180E-10
   5.77701E-10  6.05392E-10  6.32411E-10  6.61889E-10  6.91898E-10  7.19738E-10  7.45811E-10  7.73341E-10  8.01526E-10  8.30024E-10
   8.58683E-10  8.87422E-10  9.16200E-10  9.44991E-10  9.73779E-10  1.00256E-09  1.03132E-09  1.06006E-09  1.08879E-09  1.11750E-09
   1.14621E-09  1.17490E-09  1.20358E-09  1.23227E-09  1.26096E-09  1.28966E-09  1.31835E-09  1.34705E-09  1.37575E-09  1.40444E-09
   1.43313E-09  1.46180E-09  1.49047E-09  1.51913E-09  1.54777E-09  1.57639E-09  1.60499E-09  1.63358E-09  1.66214E-09  1.69068E-09
   1.71919E-09  1.74768E-09  1.77614E-09  1.80456E-09  1.83296E-09  1.86132E-09  1.88965E-09  1.91793E-09  1.94618E-09  1.97439E-09
   2.00256E-09  2.03068E-09  2.05876E-09  2.08671E-09  2.11443E-09  2.14179E-09  2.16868E-09  2.19498E-09  2.22057E-09  2.24534E-09
   2.26915E-09  2.29191E-09  2.31348E-09  2.33376E-09  2.35262E-09  2.36994E-09  2.38561E-09  2.39951E-09  2.41153E-09  2.42153E-09
   2.42941E-09  2.43505E-09  2.43832E-09  2.43911E-09  2.43731E-09  2.43280E-09  2.42545E-09  2.41515E-09  2.40178E-09  2.38523E-09
   2.36537E-09  2.34214E-09  2.31551E-09  2.28541E-09  2.25181E-09  2.21465E-09  2.17390E-09  2.12950E-09  2.08141E-09  2.02958E-09
   1.97398E-09  1.91454E-09  1.85122E-09  1.78399E-09  1.71280E-09  1.63760E-09  1.55835E-09  1.47501E-09  1.38754E-09  1.29590E-09
   1.20006E-09  1.10001E-09  9.95747E-10  8.87314E-10  7.74889E-10  6.59041E-10  5.42465E-10  4.32126E-10  3.20430E-10  2.06277E-10
   8.87381E-11 -3.78762E-11 -1.78843E-10 -3.31966E-10 -4.90752E-10 -6.52948E-10 -8.23503E-10 -1.00695E-09 -1.19269E-09 -1.35653E-09
  -1.51485E-09 -1.67091E-09 -1.82519E-09 -1.97758E-09 -2.12779E-09 -2.27550E-09 -2.42031E-09 -2.56186E-09 -2.69971E-09 -2.83349E-09
  -2.96277E-09 -3.08715E-09 -3.20623E-09 -3.31957E-09 -3.42677E-09 -3.52743E-09 -3.62123E-09 -3.70823E-09 -3.78856E-09 -3.86236E-09
  -3.92974E-09 -3.99083E-09 -4.04576E-09 -4.09467E-09 -4.13766E-09 -4.17488E-09 -4.20644E-09 -4.23248E-09 -4.25312E-09 -4.26848E-09
  -4.27871E-09 -4.28391E-09 -4.28422E-09 -4.27978E-09 -4.27069E-09 -4.25709E-09 -4.23911E-09 -4.21687E-09 -4.19050E-09 -4.16012E-09
  -4.12587E-09 -4.08786E-09 -4.04624E-09 -4.00111E-09 -3.95265E-09 -3.90102E-09 -3.84645E-09 -3.78912E-09 -3.72924E-09 -3.66700E-09
  -3.60262E-09 -3.53628E-09 -3.46820E-09 -3.39856E-09 -3.32756E-09 -3.25542E-09 -3.18233E-09 -3.10849E-09 -3.03409E-09 -2.95935E-09
  -2.88446E-09 -2.80962E-09 -2.73503E-09 -2.66090E-09 -2.58741E-09 -2.51477E-09 -2.44318E-09 -2.37284E-09 -2.30396E-09 -2.23674E-09
  -2.17135E-09 -2.10803E-09 -2.04687E-09 -1.98784E-09 -1.93094E-09 -1.87615E-09 -1.82343E-09 -1.77278E-09 -1.72416E-09 -1.67755E-09
  -1.63295E-09 -1.59030E-09 -1.54962E-09 -1.51085E-09 -1.47400E-09 -1.43903E-09 -1.40591E-09 -1.37465E-09 -1.34521E-09 -1.31756E-09
  -1.29169E-09 -1.26757E-09 -1.24518E-09 -1.22450E-09 -1.20552E-09 -1.18820E-09 -1.17253E-09 -1.15847E-09 -1.14603E-09 -1.13516E-09
  -1.12584E-09 -1.11802E-09 -1.11166E-09 -1.10672E-09 -1.10316E-09 -1.10094E-09 -1.10000E-09 -1.10031E-09 -1.10183E-09 -1.10451E-09
  -1.10831E-09 -1.11319E-09 -1.11910E-09 -1.12601E-09 -1.13386E-09 -1.14263E-09 -1.15225E-09 -1.16270E-09 -1.17393E-09 -1.18588E-09
  -1.19854E-09 -1.21185E-09 -1.22576E-09 -1.24024E-09 -1.25524E-09 -1.27073E-09 -1.28665E-09 -1.30296E-09 -1.31964E-09 -1.33667E-09
  -1.35404E-09 -1.37171E-09 -1.38968E-09 -1.40792E-09 -1.42641E-09 -1.44514E-09 -1.46408E-09 -1.48322E-09 -1.50254E-09 -1.52202E-09
  -1.54164E-09 -1.56137E-09 -1.58121E-09 -1.60114E-09 -1.62112E-09 -1.64116E-09 -1.66121E-09 -1.68128E-09 -1.70133E-09 -1.72135E-09
  -1.74132E-09 -1.76122E-09 -1.78103E-09 -1.80073E-09 -1.82031E-09 -1.83974E-09 -1.85903E-09 -1.87819E-09 -1.89722E-09 -1.91612E-09
  -1.93491E-09 -1.95359E-09 -1.97217E-09 -1.99066E-09 -2.00906E-09 -2.02737E-09 -2.04562E-09 -2.06380E-09 -2.08192E-09 -2.09998E-09
  -2.11800E-09 -2.13598E-09 -2.15393E-09 -2.17185E-09 -2.18976E-09 -2.20765E-09 -2.22554E-09 -2.24343E-09 -2.26133E-09 -2.27925E-09
  -2.29719E-09 -2.31517E-09 -2.33317E-09
 Cr       Conc. = 3.49E-10
  -3.29366E-10 -5.17359E-10 -8.64400E-10 -1.22505E-09 -1.29435E-09 -1.29643E-09 -1.27837E-09 -1.25177E-09 -1.22078E-09 -1.18722E-09
  -1.15206E-09 -1.11581E-09 -1.07880E-09 -1.04122E-09 -1.00322E-09 -9.64866E-10 -9.26228E-10 -8.87335E-10 -8.48192E-10 -8.08786E-10
  -7.69081E-10 -7.29008E-10 -6.88468E-10 -6.47279E-10 -6.05166E-10 -5.61701E-10 -5.16110E-10 -4.66994E-10 -4.11482E-10 -3.42511E-10
  -2.36603E-10  2.61126E-11  4.24033E-10  8.66080E-10  1.33412E-09  1.75429E-09  2.00151E-09  2.03540E-09  1.94175E-09  1.80681E-09
   1.59422E-09  1.18589E-09  6.10931E-10  2.72944E-10  2.03238E-10  1.92264E-10  2.01446E-10  2.19680E-10  2.42663E-10  2.68367E-10
   2.95729E-10  3.24151E-10  3.53246E-10  3.82782E-10  4.12583E-10  4.42566E-10  4.72638E-10  5.02738E-10  5.32834E-10  5.62899E-10
   5.92914E-10  6.22866E-10  6.52747E-10  6.82550E-10  7.12271E-10  7.41909E-10  7.71463E-10  8.00936E-10  8.30328E-10  8.59642E-10
   8.88883E-10  9.18051E-10  9.47154E-10  9.76193E-10  1.00518E-09  1.03410E-09  1.06299E-09  1.09183E-09  1.12063E-09  1.14940E-09
   1.17815E-09  1.20688E-09  1.23560E-09  1.26431E-09  1.29301E-09  1.32172E-09  1.35043E-09  1.37913E-09  1.40783E-09  1.43653E-09
   1.46521E-09  1.49389E-09  1.52255E-09  1.55120E-09  1.57983E-09  1.60845E-09  1.63704E-09  1.66562E-09  1.69418E-09  1.72271E-09
   1.75121E-09  1.77969E-09  1.80814E-09  1.83656E-09  1.86494E-09  1.89330E-09  1.92161E-09  1.94989E-09  1.97813E-09  2.00633E-09
   2.03449E-09  2.06261E-09  2.09067E-09  2.11862E-09  2.14633E-09  2.17368E-09  2.20057E-09  2.22686E-09  2.25245E-09  2.27720E-09
   2.30102E-09  2.32377E-09  2.34534E-09  2.36561E-09  2.38447E-09  2.40179E-09  2.41746E-09  2.43136E-09  2.44338E-09  2.45338E-09
   2.46127E-09  2.46691E-09  2.47019E-09  2.47099E-09  2.46920E-09  2.46470E-09  2.45737E-09  2.44709E-09  2.43374E-09  2.41721E-09
   2.39738E-09  2.37419E-09  2.34760E-09  2.31755E-09  2.28400E-09  2.24691E-09  2.20623E-09  2.16192E-09  2.11393E-09  2.06222E-09
   2.00676E-09  1.94748E-09  1.88438E-09  1.81739E-09  1.74649E-09  1.67165E-09  1.59285E-09  1.51007E-09  1.42333E-09  1.33263E-09
   1.23807E-09  1.13977E-09  1.03807E-09  9.33594E-10  8.27928E-10  7.25889E-10  6.50111E-10  6.37589E-10  6.40253E-10  6.50218E-10
   6.55903E-10  6.16311E-10  4.98362E-10  3.17995E-10  1.14262E-10 -1.05142E-10 -3.76934E-10 -7.25815E-10 -1.06931E-09 -1.27512E-09
  -1.45019E-09 -1.61508E-09 -1.77476E-09 -1.93077E-09 -2.08355E-09 -2.23317E-09 -2.37946E-09 -2.52216E-09 -2.66095E-09 -2.79549E-09
  -2.92541E-09 -3.05033E-09 -3.16987E-09 -3.28360E-09 -3.39115E-09 -3.49211E-09 -3.58618E-09 -3.67342E-09 -3.75397E-09 -3.82795E-09
  -3.89551E-09 -3.95676E-09 -4.01183E-09 -4.06086E-09 -4.10398E-09 -4.14130E-09 -4.17297E-09 -4.19910E-09 -4.21983E-09 -4.23528E-09
  -4.24558E-09 -4.25086E-09 -4.25124E-09 -4.24685E-09 -4.23782E-09 -4.22428E-09 -4.20635E-09 -4.18416E-09 -4.15784E-09 -4.12751E-09
  -4.09331E-09 -4.05534E-09 -4.01376E-09 -3.96867E-09 -3.92024E-09 -3.86866E-09 -3.81411E-09 -3.75682E-09 -3.69697E-09 -3.63476E-09
