 LCModel (Version 6.3-1R) Copyright: S.W. Provencher.          Ref.: Magn. Reson. Med. 30:672-679 (1993).                
 onepulse 25x10_ftSpec_smooth_lcm
 26 lines in following concentration table = NCONC+1
    Conc.  %SD   /Cr    Metabolite                                         
 1.88E-10 141%   0.000 Ala                                                 
 2.67E-09  25%   0.000 Asp                                                 
    0.000 999%   0.000 Cr                                                  
 1.15E-09  39%   0.000 GABA                                                
 2.42E-09  28%   0.000 Glc                                                 
 4.64E-10 124%   0.000 Gln                                                 
    0.000 999%   0.000 Glu                                                 
    0.000 999%   0.000 Glyc                                                
 7.11E-11 255%   0.000 GPC                                                 
 5.06E-10  79%   0.000 GSH                                                 
 1.00E-09  42%   0.000 Ins                                                 
    0.000 999%   0.000 Lac                                                 
 9.69E-10  20%   0.000 NAAG                                                
    0.000 999%   0.000 NAA                                                 
    0.000 999%   0.000 PCh                                                 
    0.000 999%   0.000 PCr                                                 
 2.06E-09  52%   0.000 PE                                                  
 9.98E-11 181%   0.000 Scyllo                                              
    0.000 999%   0.000 Ser                                                 
    0.000 999%   0.000 Tau                                                 
 7.11E-11 255%   0.000 GPC+PCh                                             
 9.69E-10  20%   0.000 NAA+NAAG                                            
 1.00E-09  42%   0.000 Ins+Glyc                                            
    0.000 999%   0.000 Cr+PCr                                              
 4.64E-10 124%   0.000 Glu+Gln                                             
   6 lines in following misc. output table
  FWHM = 0.123 ppm    S/N =   4                                            
  Data shift = 0.470 ppm                                                   
  Ph:  22 deg     -42.3 deg/ppm                                            
  alphaB,S = 5.7E-01,   4.7E+00                                            
   10 spline knots.   Ns = 5(1)                                            
  ( 9) 8 infls.   (11) 7 extrs.                                            
  363 points on ppm-axis = NY
      4.250000     4.238821     4.227641     4.216462     4.205282     4.194103     4.182923     4.171744     4.160564     4.149385
      4.138206     4.127026     4.115847     4.104667     4.093488     4.082308     4.071129     4.059949     4.048770     4.037591
      4.026411     4.015232     4.004052     3.992873     3.981693     3.970514     3.959334     3.948155     3.936975     3.925796
      3.914617     3.903437     3.892258     3.881078     3.869899     3.858719     3.847540     3.836360     3.825181     3.814002
      3.802822     3.791643     3.780463     3.769284     3.758104     3.746925     3.735745     3.724566     3.713387     3.702207
      3.691028     3.679848     3.668669     3.657489     3.646310     3.635130     3.623951     3.612772     3.601592     3.590413
      3.579233     3.568054     3.556874     3.545695     3.534515     3.523336     3.512156     3.500977     3.489798     3.478618
      3.467439     3.456259     3.445080     3.433900     3.422721     3.411541     3.400362     3.389183     3.378003     3.366824
      3.355644     3.344465     3.333285     3.322106     3.310926     3.299747     3.288568     3.277388     3.266209     3.255029
      3.243850     3.232670     3.221491     3.210311     3.199132     3.187953     3.176773     3.165594     3.154414     3.143235
      3.132055     3.120876     3.109696     3.098517     3.087337     3.076158     3.064979     3.053799     3.042620     3.031440
      3.020261     3.009081     2.997902     2.986722     2.975543     2.964364     2.953184     2.942005     2.930825     2.919646
      2.908466     2.897287     2.886107     2.874928     2.863749     2.852569     2.841390     2.830210     2.819031     2.807851
      2.796672     2.785492     2.774313     2.763134     2.751954     2.740775     2.729595     2.718416     2.707236     2.696057
      2.684877     2.673698     2.662519     2.651339     2.640160     2.628980     2.617801     2.606621     2.595442     2.584262
      2.573083     2.561903     2.550724     2.539545     2.528365     2.517186     2.506006     2.494827     2.483647     2.472468
      2.461288     2.450109     2.438930     2.427750     2.416571     2.405391     2.394212     2.383032     2.371853     2.360673
      2.349494     2.338315     2.327135     2.315956     2.304776     2.293597     2.282417     2.271238     2.260058     2.248879
      2.237700     2.226520     2.215341     2.204161     2.192982     2.181802     2.170623     2.159443     2.148264     2.137084
      2.125905     2.114726     2.103546     2.092367     2.081187     2.070008     2.058828     2.047649     2.036469     2.025290
      2.014111     2.002931     1.991752     1.980572     1.969393     1.958213     1.947034     1.935854     1.924675     1.913496
      1.902316     1.891137     1.879957     1.868778     1.857598     1.846419     1.835239     1.824060     1.812881     1.801701
      1.790522     1.779342     1.768163     1.756983     1.745804     1.734624     1.723445     1.712265     1.701086     1.689907
      1.678727     1.667548     1.656368     1.645189     1.634009     1.622830     1.611650     1.600471     1.589292     1.578112
      1.566933     1.555753     1.544574     1.533394     1.522215     1.511035     1.499856     1.488677     1.477497     1.466318
      1.455138     1.443959     1.432779     1.421600     1.410420     1.399241     1.388062     1.376882     1.365703     1.354523
      1.343344     1.332164     1.320985     1.309805     1.298626     1.287446     1.276267     1.265088     1.253908     1.242729
      1.231549     1.220370     1.209190     1.198011     1.186831     1.175652     1.164473     1.153293     1.142114     1.130934
      1.119755     1.108575     1.097396     1.086216     1.075037     1.063858     1.052678     1.041499     1.030319     1.019140
      1.007960     0.996781     0.985601     0.974422     0.963243     0.952063     0.940884     0.929704     0.918525     0.907345
      0.896166     0.884986     0.873807     0.862628     0.851448     0.840269     0.829089     0.817910     0.806730     0.795551
      0.784371     0.773192     0.762012     0.750833     0.739654     0.728474     0.717295     0.706115     0.694936     0.683756
      0.672577     0.661397     0.650218     0.639039     0.627859     0.616680     0.605500     0.594321     0.583141     0.571962
      0.560782     0.549603     0.538424     0.527244     0.516065     0.504885     0.493706     0.482526     0.471347     0.460167
      0.448988     0.437809     0.426629     0.415450     0.404270     0.393091     0.381911     0.370732     0.359552     0.348373
      0.337193     0.326014     0.314835     0.303655     0.292476     0.281296     0.270117     0.258937     0.247758     0.236578
      0.225399     0.214220     0.203040
 NY phased data points follow
   9.77572E-09  1.23981E-08  1.13599E-08  1.29213E-08  1.17657E-08  1.34347E-08  1.12313E-08  1.29050E-08  1.14050E-08  1.25285E-08
   1.05541E-08  1.22194E-08  9.49610E-09  1.22394E-08  1.11029E-08  1.29670E-08  1.08844E-08  1.19513E-08  9.54827E-09  1.13090E-08
   1.03218E-08  1.43909E-08  1.35270E-08  1.52830E-08  1.37835E-08  1.42706E-08  1.20043E-08  1.25046E-08  1.08934E-08  1.18126E-08
   1.02113E-08  1.10275E-08  9.71542E-09  1.09318E-08  8.99895E-09  1.02866E-08  7.99971E-09  8.85797E-09  7.10430E-09  8.83014E-09
   7.20976E-09  9.02928E-09  6.27172E-09  8.28175E-09  5.86916E-09  7.17907E-09  4.11560E-09  6.11476E-09  4.52441E-09  6.19292E-09
   3.72760E-09  6.05690E-09  7.50619E-09  1.21681E-08  1.13319E-08  1.29274E-08  1.07456E-08  1.14451E-08  9.06225E-09  9.86769E-09
   8.56384E-09  8.67749E-09  6.99018E-09  7.32023E-09  4.93976E-09  6.07617E-09  3.06895E-09  3.78488E-09  3.35917E-09  9.50076E-09
   1.21531E-08  1.47812E-08  1.22533E-08  1.37211E-08  1.26414E-08  1.37446E-08  1.15842E-08  1.31393E-08  1.19119E-08  1.37972E-08
   1.15456E-08  1.31789E-08  1.05882E-08  1.31403E-08  1.06133E-08  1.20605E-08  1.02389E-08  1.10411E-08  9.35518E-09  1.01851E-08
   8.22175E-09  1.00185E-08  8.63458E-09  9.90834E-09  7.70984E-09  9.56067E-09  8.76915E-09  9.53088E-09  7.85299E-09  8.52238E-09
   6.23805E-09  6.77021E-09  5.18115E-09  7.05080E-09  5.71877E-09  6.61525E-09  5.56368E-09  7.81202E-09  6.08961E-09  7.49756E-09
   6.11896E-09  8.09030E-09  6.47638E-09  7.79610E-09  6.05982E-09  6.82669E-09  4.27214E-09  5.57743E-09  4.38835E-09  5.81551E-09
   4.24128E-09  5.48794E-09  4.01837E-09  5.72193E-09  4.77593E-09  5.33808E-09  3.84699E-09  4.19358E-09  2.72563E-09  4.06237E-09
   4.56897E-09  6.26333E-09  5.36567E-09  5.84743E-09  4.80593E-09  6.66298E-09  6.44335E-09  7.42888E-09  6.55904E-09  7.86615E-09
   6.95961E-09  7.74312E-09  7.10907E-09  7.48352E-09  7.01039E-09  7.93684E-09  6.99221E-09  7.40038E-09  6.42807E-09  6.82919E-09
   5.81760E-09  6.90899E-09  6.34509E-09  6.79917E-09  5.66573E-09  5.22432E-09  4.99756E-09  5.08566E-09  2.24322E-09 -2.78427E-10
   4.59341E-10  7.74021E-09  1.28056E-08  1.53252E-08  1.59171E-08  1.69708E-08  1.70392E-08  1.78188E-08  1.83866E-08  1.89913E-08
   1.89440E-08  2.02003E-08  1.97343E-08  1.99276E-08  2.02112E-08  2.03323E-08  1.94525E-08  1.87273E-08  1.83192E-08  1.68998E-08
   1.57109E-08  1.46115E-08  1.25246E-08  1.05825E-08  8.48320E-09  6.84767E-09  4.91441E-09  2.80829E-09  1.11087E-09 -2.35557E-10
  -2.22274E-09 -2.86075E-09 -3.92407E-09 -4.61374E-09 -4.58587E-09 -5.14402E-09 -4.85274E-09 -3.67263E-09 -3.69186E-09 -3.15003E-09
  -2.44354E-09 -1.83218E-09 -1.57110E-09 -1.72677E-09 -1.16366E-09 -6.42811E-10 -7.66761E-10 -9.42807E-10 -6.63148E-10 -1.11555E-09
  -7.15328E-10 -1.25685E-09 -6.28554E-10 -9.32096E-10 -5.33488E-10 -1.79271E-10 -1.14879E-10 -1.52041E-10 -7.84823E-10 -9.99871E-10
  -3.54198E-10 -7.92909E-10  2.05340E-11 -9.94681E-10 -4.69916E-10 -1.04597E-09 -1.39110E-10  5.24555E-11 -5.05574E-11 -5.74328E-10
  -4.20070E-10 -5.32879E-10 -4.30566E-10 -1.11304E-09 -7.21887E-10 -9.26135E-10 -9.07735E-10 -9.45484E-10 -9.28612E-10 -9.76520E-10
  -3.94535E-10 -7.94147E-10 -2.80458E-10 -6.38026E-10  5.36840E-11 -6.36265E-10  3.43303E-10 -1.03229E-09  3.00021E-10 -5.83836E-10
   4.05309E-10 -9.52792E-10  1.61639E-10 -6.81193E-10 -1.62777E-10 -1.01593E-09 -7.88654E-10 -1.38330E-09 -1.16912E-09 -1.95072E-09
  -1.60520E-09 -1.95875E-09 -1.38404E-09 -2.18418E-09 -1.40939E-09 -2.19957E-09 -7.50087E-10 -1.14364E-09 -9.16321E-11 -1.20819E-09
   1.79483E-10 -2.59788E-10  5.99153E-10 -4.09488E-10  6.46004E-10 -3.37919E-10  3.86173E-10 -5.66563E-10  6.73394E-10 -2.39216E-10
   7.34895E-10 -2.80607E-10  4.46839E-10 -5.28895E-11  1.46969E-10  2.09532E-10  4.23477E-10 -7.12011E-10  6.96534E-10 -5.40614E-11
   1.17809E-10 -3.45442E-10  2.99931E-10 -2.80115E-10  2.86395E-10 -3.76811E-10  5.91509E-10 -5.93087E-10  2.63662E-11 -5.38945E-10
   1.05775E-10 -4.08072E-10  1.48016E-10 -7.77803E-10  1.79193E-10 -4.74498E-10 -9.14842E-11 -4.04201E-10 -1.14103E-10 -5.75778E-10
  -2.80081E-10 -5.73802E-10 -3.75329E-11 -1.05546E-09  1.52241E-10 -5.56422E-10 -1.46864E-10 -1.13258E-09 -3.06064E-10 -6.79361E-10
  -1.58803E-10 -8.56558E-10 -1.37764E-10 -1.20925E-09 -1.51943E-10 -8.36556E-10 -7.25346E-11 -9.17503E-10 -6.52728E-10 -1.04954E-09
  -5.45747E-10 -7.59121E-10 -3.11393E-10 -1.00679E-09 -2.57528E-10 -1.12889E-09 -6.60832E-10 -1.40884E-09 -4.75593E-10 -9.11124E-10
  -4.78709E-10 -1.32019E-09 -8.13846E-10 -1.07592E-09 -3.72427E-10 -1.77200E-09 -9.63133E-11 -1.50759E-09 -8.13932E-10 -1.72367E-09
  -6.46229E-10 -1.55376E-09 -9.47303E-10 -1.79938E-09 -4.45751E-10 -9.83146E-10 -9.38859E-10 -1.44596E-09 -6.50349E-10 -1.73348E-09
  -7.95669E-10 -1.95543E-09 -8.52513E-10
 NY points of the fit to the data follow
   1.32336E-08  1.27115E-08  1.17369E-08  1.16548E-08  1.21923E-08  1.20690E-08  1.11782E-08  1.22766E-08  1.22477E-08  1.14181E-08
   9.73300E-09  9.89897E-09  9.93673E-09  1.13049E-08  1.27008E-08  1.19251E-08  1.13516E-08  1.23337E-08  1.27165E-08  1.18950E-08
   1.16618E-08  1.26627E-08  1.28585E-08  1.43744E-08  1.33408E-08  1.26175E-08  1.18274E-08  1.17354E-08  1.16568E-08  1.17323E-08
   1.14787E-08  1.13991E-08  1.11201E-08  1.12973E-08  9.27790E-09  8.98335E-09  8.49269E-09  8.11866E-09  7.58207E-09  8.02822E-09
   7.48816E-09  7.06378E-09  7.84748E-09  7.75204E-09  7.70069E-09  8.10846E-09  8.94237E-09  7.80044E-09  7.28993E-09  8.53236E-09
   8.18741E-09  7.94459E-09  8.49575E-09  8.98008E-09  9.27000E-09  8.95047E-09  9.43611E-09  8.15930E-09  7.98075E-09  8.51597E-09
   8.29853E-09  7.96838E-09  8.20120E-09  7.77378E-09  8.34199E-09  8.86173E-09  8.74095E-09  8.50914E-09  8.79044E-09  8.87796E-09
   9.58319E-09  1.00161E-08  1.01481E-08  9.55930E-09  1.03440E-08  1.31123E-08  1.34397E-08  1.22136E-08  1.27517E-08  1.29383E-08
   1.29722E-08  1.24105E-08  1.19672E-08  1.24266E-08  1.19436E-08  1.25270E-08  1.22271E-08  9.24345E-09  8.35614E-09  8.29003E-09
   8.16181E-09  7.71009E-09  7.63586E-09  8.04801E-09  7.34233E-09  7.07658E-09  7.40266E-09  6.96573E-09  6.79438E-09  6.85609E-09
   6.90579E-09  6.60630E-09  6.63016E-09  6.89240E-09  6.75511E-09  6.69969E-09  6.72567E-09  6.75410E-09  6.71599E-09  6.72862E-09
   6.81281E-09  6.41698E-09  6.42070E-09  6.58124E-09  6.28016E-09  6.17912E-09  6.13708E-09  6.11486E-09  6.10133E-09  6.09217E-09
   6.08522E-09  6.07941E-09  6.07407E-09  6.06875E-09  6.06309E-09  6.05689E-09  6.05001E-09  6.04225E-09  6.03350E-09  6.02371E-09
   6.01276E-09  6.00060E-09  5.98718E-09  5.97244E-09  5.95635E-09  5.93885E-09  5.91993E-09  5.89955E-09  5.87769E-09  5.85434E-09
   5.82950E-09  5.80315E-09  5.77533E-09  5.74603E-09  5.71528E-09  5.68311E-09  5.64960E-09  5.61481E-09  5.57886E-09  5.54189E-09
   5.50407E-09  5.46567E-09  5.42699E-09  5.38850E-09  5.35080E-09  5.31474E-09  5.28158E-09  5.25317E-09  5.23235E-09  5.22355E-09
   5.23416E-09  5.27737E-09  5.37925E-09  5.59873E-09  6.09863E-09  7.49762E-09  1.33406E-08  2.02618E-08  1.95777E-08  1.84345E-08
   1.94218E-08  1.99883E-08  1.97542E-08  2.00399E-08  2.05843E-08  2.04437E-08  2.19586E-08  2.12582E-08  1.25451E-08  6.50652E-09
   4.80763E-09  4.10425E-09  3.70277E-09  3.42800E-09  3.21733E-09  3.04326E-09  2.89190E-09  2.75558E-09  2.62978E-09  2.51164E-09
   2.39930E-09  2.29156E-09  2.18753E-09  2.08667E-09  1.98852E-09  1.89279E-09  1.79929E-09  1.70788E-09  1.61845E-09  1.53096E-09
   1.44536E-09  1.36165E-09  1.27983E-09  1.19993E-09  1.12197E-09  1.04598E-09  9.72037E-10  9.00143E-10  8.30370E-10  7.62657E-10
   6.96968E-10  6.33258E-10  5.71488E-10  5.11618E-10  4.53614E-10  3.97431E-10  3.43048E-10  2.90429E-10  2.39535E-10  1.90333E-10
   1.42810E-10  9.69186E-11  5.26326E-11  9.92767E-12 -3.12323E-11 -7.08704E-11 -1.09005E-10 -1.45688E-10 -1.80941E-10 -2.14771E-10
  -2.47217E-10 -2.78314E-10 -3.08075E-10 -3.36542E-10 -3.63730E-10 -3.89676E-10 -4.14402E-10 -4.37924E-10 -4.60280E-10 -4.81491E-10
  -5.01584E-10 -5.20583E-10 -5.38518E-10 -5.55415E-10 -5.71295E-10 -5.86185E-10 -6.00120E-10 -6.13127E-10 -6.25204E-10 -6.36392E-10
  -6.46727E-10 -6.56234E-10 -6.64926E-10 -6.72823E-10 -6.79985E-10 -6.86395E-10 -6.92104E-10 -6.97125E-10 -7.01496E-10 -7.05241E-10
  -7.08369E-10 -7.10911E-10 -7.12891E-10 -7.14329E-10 -7.15247E-10 -7.15668E-10 -7.15614E-10 -7.15107E-10 -7.14168E-10 -7.12820E-10
  -7.11086E-10 -7.08986E-10 -7.06544E-10 -7.03780E-10 -7.00717E-10 -6.97376E-10 -6.93781E-10 -6.89952E-10 -6.85912E-10 -6.81683E-10
  -6.77285E-10 -6.72744E-10 -6.68077E-10 -6.63308E-10 -6.58461E-10 -6.53556E-10 -6.48613E-10 -6.43656E-10 -6.38709E-10 -6.33790E-10
  -6.28922E-10 -6.24127E-10 -6.19426E-10 -6.14844E-10 -6.10398E-10 -6.06115E-10 -6.02012E-10 -5.98113E-10 -5.94439E-10 -5.91014E-10
  -5.87860E-10 -5.84992E-10 -5.82439E-10 -5.80220E-10 -5.78356E-10 -5.76872E-10 -5.75787E-10 -5.75121E-10 -5.74901E-10 -5.75143E-10
  -5.75872E-10 -5.77109E-10 -5.78850E-10 -5.81082E-10 -5.83793E-10 -5.86972E-10 -5.90603E-10 -5.94675E-10 -5.99176E-10 -6.04092E-10
  -6.09413E-10 -6.15120E-10 -6.21206E-10 -6.27656E-10 -6.34459E-10 -6.41600E-10 -6.49067E-10 -6.56847E-10 -6.64928E-10 -6.73295E-10
  -6.81941E-10 -6.90848E-10 -7.00001E-10 -7.09397E-10 -7.19013E-10 -7.28840E-10 -7.38869E-10 -7.49083E-10 -7.59469E-10 -7.70016E-10
  -7.80711E-10 -7.91542E-10 -8.02495E-10 -8.13557E-10 -8.24715E-10 -8.35958E-10 -8.47276E-10 -8.58649E-10 -8.70070E-10 -8.81521E-10
  -8.92997E-10 -9.04479E-10 -9.15959E-10 -9.27419E-10 -9.38847E-10 -9.50238E-10 -9.61575E-10 -9.72836E-10 -9.84024E-10 -9.95117E-10
  -1.00610E-09 -1.01697E-09 -1.02771E-09
 NY background values follow
    -2.644E-09   -2.567E-09   -2.489E-09   -2.412E-09   -2.335E-09   -2.257E-09   -2.180E-09   -2.102E-09   -2.024E-09   -1.947E-09
    -1.869E-09   -1.791E-09   -1.714E-09   -1.636E-09   -1.558E-09   -1.481E-09   -1.403E-09   -1.325E-09   -1.248E-09   -1.170E-09
    -1.092E-09   -1.015E-09   -9.374E-10   -8.600E-10   -7.827E-10   -7.054E-10   -6.282E-10   -5.510E-10   -4.740E-10   -3.970E-10
    -3.201E-10   -2.434E-10   -1.667E-10   -9.014E-11   -1.371E-11    6.260E-11    1.388E-10    2.148E-10    2.907E-10    3.664E-10
     4.421E-10    5.175E-10    5.928E-10    6.679E-10    7.428E-10    8.175E-10    8.921E-10    9.664E-10    1.041E-09    1.115E-09
     1.188E-09    1.262E-09    1.335E-09    1.408E-09    1.481E-09    1.553E-09    1.626E-09    1.698E-09    1.769E-09    1.841E-09
     1.911E-09    1.982E-09    2.052E-09    2.122E-09    2.191E-09    2.260E-09    2.328E-09    2.396E-09    2.463E-09    2.530E-09
     2.596E-09    2.662E-09    2.727E-09    2.791E-09    2.855E-09    2.918E-09    2.981E-09    3.042E-09    3.104E-09    3.164E-09
     3.223E-09    3.282E-09    3.340E-09    3.398E-09    3.454E-09    3.510E-09    3.565E-09    3.618E-09    3.671E-09    3.724E-09
     3.775E-09    3.825E-09    3.874E-09    3.922E-09    3.970E-09    4.016E-09    4.061E-09    4.105E-09    4.148E-09    4.190E-09
     4.231E-09    4.271E-09    4.309E-09    4.346E-09    4.383E-09    4.417E-09    4.451E-09    4.484E-09    4.515E-09    4.545E-09
     4.573E-09    4.600E-09    4.626E-09    4.650E-09    4.673E-09    4.695E-09    4.715E-09    4.733E-09    4.751E-09    4.766E-09
     4.780E-09    4.793E-09    4.803E-09    4.813E-09    4.820E-09    4.826E-09    4.830E-09    4.833E-09    4.834E-09    4.833E-09
     4.830E-09    4.826E-09    4.819E-09    4.811E-09    4.801E-09    4.789E-09    4.775E-09    4.760E-09    4.742E-09    4.722E-09
     4.701E-09    4.677E-09    4.651E-09    4.623E-09    4.594E-09    4.562E-09    4.528E-09    4.491E-09    4.453E-09    4.412E-09
     4.370E-09    4.324E-09    4.277E-09    4.228E-09    4.176E-09    4.121E-09    4.065E-09    4.006E-09    3.945E-09    3.882E-09
     3.817E-09    3.750E-09    3.681E-09    3.610E-09    3.537E-09    3.463E-09    3.388E-09    3.311E-09    3.232E-09    3.152E-09
     3.071E-09    2.989E-09    2.906E-09    2.822E-09    2.737E-09    2.651E-09    2.565E-09    2.477E-09    2.390E-09    2.301E-09
     2.213E-09    2.124E-09    2.035E-09    1.946E-09    1.856E-09    1.767E-09    1.678E-09    1.589E-09    1.500E-09    1.411E-09
     1.323E-09    1.236E-09    1.149E-09    1.063E-09    9.775E-10    8.929E-10    8.092E-10    7.266E-10    6.450E-10    5.646E-10
     4.854E-10    4.076E-10    3.312E-10    2.563E-10    1.829E-10    1.112E-10    4.133E-11   -2.679E-11   -9.301E-11   -1.574E-10
    -2.199E-10   -2.806E-10   -3.395E-10   -3.966E-10   -4.520E-10   -5.057E-10   -5.577E-10   -6.080E-10   -6.566E-10   -7.037E-10
    -7.492E-10   -7.931E-10   -8.354E-10   -8.762E-10   -9.156E-10   -9.534E-10   -9.899E-10   -1.025E-09   -1.058E-09   -1.091E-09
    -1.122E-09   -1.151E-09   -1.180E-09   -1.207E-09   -1.232E-09   -1.257E-09   -1.280E-09   -1.302E-09   -1.323E-09   -1.343E-09
    -1.362E-09   -1.380E-09   -1.397E-09   -1.412E-09   -1.427E-09   -1.441E-09   -1.454E-09   -1.466E-09   -1.477E-09   -1.487E-09
    -1.496E-09   -1.504E-09   -1.512E-09   -1.519E-09   -1.525E-09   -1.531E-09   -1.535E-09   -1.539E-09   -1.543E-09   -1.546E-09
    -1.548E-09   -1.549E-09   -1.550E-09   -1.551E-09   -1.551E-09   -1.551E-09   -1.550E-09   -1.548E-09   -1.547E-09   -1.544E-09
    -1.542E-09   -1.539E-09   -1.536E-09   -1.532E-09   -1.528E-09   -1.524E-09   -1.520E-09   -1.515E-09   -1.510E-09   -1.505E-09
    -1.500E-09   -1.495E-09   -1.490E-09   -1.484E-09   -1.478E-09   -1.473E-09   -1.467E-09   -1.462E-09   -1.456E-09   -1.450E-09
    -1.445E-09   -1.439E-09   -1.434E-09   -1.429E-09   -1.424E-09   -1.419E-09   -1.414E-09   -1.409E-09   -1.405E-09   -1.401E-09
    -1.397E-09   -1.394E-09   -1.390E-09   -1.388E-09   -1.385E-09   -1.383E-09   -1.381E-09   -1.380E-09   -1.379E-09   -1.379E-09
    -1.379E-09   -1.380E-09   -1.381E-09   -1.382E-09   -1.385E-09   -1.387E-09   -1.390E-09   -1.394E-09   -1.398E-09   -1.402E-09
    -1.407E-09   -1.412E-09   -1.418E-09   -1.423E-09   -1.430E-09   -1.436E-09   -1.443E-09   -1.450E-09   -1.458E-09   -1.466E-09
    -1.474E-09   -1.482E-09   -1.491E-09   -1.500E-09   -1.509E-09   -1.518E-09   -1.528E-09   -1.537E-09   -1.547E-09   -1.557E-09
    -1.567E-09   -1.578E-09   -1.588E-09   -1.599E-09   -1.609E-09   -1.620E-09   -1.631E-09   -1.642E-09   -1.653E-09   -1.664E-09
    -1.675E-09   -1.686E-09   -1.696E-09   -1.707E-09   -1.718E-09   -1.729E-09   -1.740E-09   -1.751E-09   -1.762E-09   -1.772E-09
    -1.783E-09   -1.793E-09   -1.803E-09
 Ala      Conc. = 1.88E-10
  -2.49743E-09 -2.44868E-09 -2.36431E-09 -2.25969E-09 -2.18330E-09 -2.13328E-09 -2.02756E-09 -1.94392E-09 -1.93667E-09 -1.83160E-09
  -1.73874E-09 -1.72065E-09 -1.64541E-09 -1.56665E-09 -1.50618E-09 -1.43853E-09 -1.36728E-09 -1.29409E-09 -1.21978E-09 -1.14472E-09
  -1.06919E-09 -9.93313E-10 -9.17196E-10 -8.40918E-10 -7.64544E-10 -6.88093E-10 -6.11610E-10 -5.35111E-10 -4.58630E-10 -3.82169E-10
  -3.05736E-10 -2.29386E-10 -1.53089E-10 -7.68750E-11 -7.46372E-13  7.52751E-11  1.51190E-10  2.27004E-10  3.02680E-10  3.78207E-10
   4.53624E-10  5.28899E-10  6.04002E-10  6.78941E-10  7.53725E-10  8.28324E-10  9.02757E-10  9.76996E-10  1.05104E-09  1.12486E-09
   1.19851E-09  1.27194E-09  1.34516E-09  1.41813E-09  1.49086E-09  1.56333E-09  1.63550E-09  1.70738E-09  1.77893E-09  1.85014E-09
   1.92099E-09  1.99146E-09  2.06154E-09  2.13119E-09  2.20041E-09  2.26918E-09  2.33748E-09  2.40528E-09  2.47258E-09  2.53935E-09
   2.60558E-09  2.67124E-09  2.73632E-09  2.80081E-09  2.86468E-09  2.92792E-09  2.99051E-09  3.05244E-09  3.11369E-09  3.17425E-09
   3.23410E-09  3.29323E-09  3.35164E-09  3.40931E-09  3.46624E-09  3.52243E-09  3.57788E-09  3.63262E-09  3.68665E-09  3.74003E-09
   3.79283E-09  3.84515E-09  3.89718E-09  3.94921E-09  4.00175E-09  4.05579E-09  4.11330E-09  4.17898E-09  4.26681E-09  4.43515E-09
   4.72800E-09  4.55584E-09  4.68872E-09  5.06125E-09  5.01081E-09  5.02362E-09  5.10739E-09  5.18310E-09  5.18707E-09  5.23703E-09
   5.35375E-09  4.98726E-09  5.01748E-09  5.20204E-09  4.92302E-09  4.84228E-09  4.81863E-09  4.81345E-09  4.81572E-09  4.82122E-09
   4.82799E-09  4.83498E-09  4.84159E-09  4.84746E-09  4.85231E-09  4.85597E-09  4.85832E-09  4.85924E-09  4.85867E-09  4.85654E-09
   4.85278E-09  4.84736E-09  4.84023E-09  4.83134E-09  4.82068E-09  4.80820E-09  4.79387E-09  4.77767E-09  4.75957E-09  4.73953E-09
   4.71754E-09  4.69356E-09  4.66758E-09  4.63957E-09  4.60950E-09  4.57736E-09  4.54311E-09  4.50674E-09  4.46823E-09  4.42756E-09
   4.38469E-09  4.33963E-09  4.29234E-09  4.24282E-09  4.19104E-09  4.13700E-09  4.08072E-09  4.02226E-09  3.96176E-09  3.89935E-09
   3.83525E-09  3.76971E-09  3.70323E-09  3.63673E-09  3.57266E-09  3.51943E-09  3.52361E-09  3.65275E-09  3.47368E-09  3.39640E-09
   3.33878E-09  3.27138E-09  3.17506E-09  3.10152E-09  3.03153E-09  2.94197E-09  2.86394E-09  2.84839E-09  2.50569E-09  2.35616E-09
   2.24877E-09  2.15151E-09  2.05782E-09  1.96572E-09  1.87448E-09  1.78382E-09  1.69360E-09  1.60378E-09  1.51440E-09  1.42549E-09
   1.33708E-09  1.24927E-09  1.16208E-09  1.07564E-09  9.89973E-10  9.05177E-10  8.21321E-10  7.38502E-10  6.56769E-10  5.76229E-10
   4.96952E-10  4.19016E-10  3.42508E-10  2.67500E-10  1.94079E-10  1.22320E-10  5.23290E-11 -1.58593E-11 -8.21442E-11 -1.46565E-10
  -2.09136E-10 -2.69888E-10 -3.28842E-10 -3.86029E-10 -4.41468E-10 -4.95193E-10 -5.47218E-10 -5.97571E-10 -6.46285E-10 -6.93382E-10
  -7.38875E-10 -7.82803E-10 -8.25189E-10 -8.66053E-10 -9.05424E-10 -9.43327E-10 -9.79772E-10 -1.01481E-09 -1.04847E-09 -1.08074E-09
  -1.11166E-09 -1.14127E-09 -1.16958E-09 -1.19663E-09 -1.22243E-09 -1.24701E-09 -1.27041E-09 -1.29262E-09 -1.31370E-09 -1.33365E-09
  -1.35252E-09 -1.37030E-09 -1.38705E-09 -1.40278E-09 -1.41751E-09 -1.43127E-09 -1.44410E-09 -1.45601E-09 -1.46701E-09 -1.47714E-09
  -1.48643E-09 -1.49491E-09 -1.50259E-09 -1.50949E-09 -1.51566E-09 -1.52110E-09 -1.52585E-09 -1.52992E-09 -1.53336E-09 -1.53618E-09
  -1.53840E-09 -1.54004E-09 -1.54113E-09 -1.54169E-09 -1.54174E-09 -1.54130E-09 -1.54040E-09 -1.53905E-09 -1.53729E-09 -1.53512E-09
  -1.53257E-09 -1.52967E-09 -1.52643E-09 -1.52288E-09 -1.51904E-09 -1.51493E-09 -1.51057E-09 -1.50598E-09 -1.50119E-09 -1.49622E-09
  -1.49109E-09 -1.48582E-09 -1.48043E-09 -1.47495E-09 -1.46939E-09 -1.46378E-09 -1.45814E-09 -1.45250E-09 -1.44686E-09 -1.44127E-09
  -1.43572E-09 -1.43026E-09 -1.42490E-09 -1.41966E-09 -1.41456E-09 -1.40963E-09 -1.40488E-09 -1.40034E-09 -1.39603E-09 -1.39198E-09
  -1.38820E-09 -1.38471E-09 -1.38154E-09 -1.37871E-09 -1.37624E-09 -1.37415E-09 -1.37246E-09 -1.37120E-09 -1.37039E-09 -1.37004E-09
  -1.37019E-09 -1.37084E-09 -1.37200E-09 -1.37366E-09 -1.37580E-09 -1.37840E-09 -1.38147E-09 -1.38498E-09 -1.38892E-09 -1.39328E-09
  -1.39804E-09 -1.40320E-09 -1.40873E-09 -1.41464E-09 -1.42090E-09 -1.42750E-09 -1.43442E-09 -1.44167E-09 -1.44921E-09 -1.45705E-09
  -1.46516E-09 -1.47354E-09 -1.48217E-09 -1.49104E-09 -1.50013E-09 -1.50944E-09 -1.51895E-09 -1.52865E-09 -1.53852E-09 -1.54855E-09
  -1.55873E-09 -1.56905E-09 -1.57950E-09 -1.59005E-09 -1.60070E-09 -1.61144E-09 -1.62225E-09 -1.63312E-09 -1.64404E-09 -1.65499E-09
  -1.66597E-09 -1.67695E-09 -1.68793E-09 -1.69889E-09 -1.70982E-09 -1.72072E-09 -1.73156E-09 -1.74233E-09 -1.75302E-09 -1.76362E-09
  -1.77411E-09 -1.78449E-09 -1.79473E-09
 Asp      Conc. = 2.67E-09
   1.99068E-10  5.09808E-10 -1.35937E-10  2.57370E-11 -5.08367E-10 -4.78844E-10 -6.46260E-10 -8.56078E-10 -1.25376E-09 -1.38841E-09
  -1.42854E-09 -1.42517E-09 -1.39809E-09 -1.36260E-09 -1.30637E-09 -1.24545E-09 -1.18237E-09 -1.11660E-09 -1.04847E-09 -9.78296E-10
  -9.06389E-10 -8.32932E-10 -7.58032E-10 -6.81754E-10 -6.04104E-10 -5.24984E-10 -4.44258E-10 -3.61672E-10 -2.76862E-10 -1.89260E-10
  -9.80161E-11 -1.87128E-12  1.01335E-10  2.15276E-10  3.47114E-10  5.13081E-10  7.59697E-10  1.19254E-09  1.17455E-09  1.58497E-09
   1.42892E-09  1.55158E-09  1.75721E-09  2.36492E-09  2.99949E-09  3.85761E-09  4.64212E-09  4.11171E-09  3.85202E-09  5.24913E-09
   4.70850E-09  4.72770E-09  5.38576E-09  5.71814E-09  5.45047E-09  5.38578E-09  5.44559E-09  3.90453E-09  3.72359E-09  4.59273E-09
   3.81664E-09  3.41220E-09  3.54026E-09  3.24432E-09  3.07446E-09  3.20381E-09  3.50398E-09  3.28379E-09  3.18806E-09  3.15252E-09
   3.14699E-09  3.15876E-09  3.18152E-09  3.21170E-09  3.24712E-09  3.28631E-09  3.32829E-09  3.37231E-09  3.41787E-09  3.46451E-09
   3.51194E-09  3.55988E-09  3.60814E-09  3.65654E-09  3.70492E-09  3.75317E-09  3.80119E-09  3.84887E-09  3.89615E-09  3.94293E-09
   3.98917E-09  4.03481E-09  4.07979E-09  4.12405E-09  4.16756E-09  4.21029E-09  4.25218E-09  4.29319E-09  4.33330E-09  4.37247E-09
   4.41066E-09  4.44787E-09  4.48404E-09  4.51915E-09  4.55319E-09  4.58610E-09  4.61787E-09  4.64848E-09  4.67788E-09  4.70605E-09
   4.73298E-09  4.75863E-09  4.78297E-09  4.80598E-09  4.82764E-09  4.84791E-09  4.86678E-09  4.88421E-09  4.90019E-09  4.91469E-09
   4.92768E-09  4.93915E-09  4.94907E-09  4.95741E-09  4.96415E-09  4.96927E-09  4.97275E-09  4.97457E-09  4.97469E-09  4.97311E-09
   4.96979E-09  4.96471E-09  4.95787E-09  4.94922E-09  4.93875E-09  4.92645E-09  4.91228E-09  4.89624E-09  4.87830E-09  4.85845E-09
   4.83667E-09  4.81293E-09  4.78723E-09  4.75955E-09  4.72989E-09  4.69821E-09  4.66454E-09  4.62884E-09  4.59114E-09  4.55143E-09
   4.50972E-09  4.46605E-09  4.42045E-09  4.37296E-09  4.32368E-09  4.27271E-09  4.22024E-09  4.16660E-09  4.11226E-09  4.05792E-09
   4.00462E-09  3.95406E-09  3.90924E-09  3.87597E-09  3.86726E-09  3.91810E-09  4.15467E-09  5.28724E-09  7.95601E-09  6.49955E-09
   6.47408E-09  6.72003E-09  6.82930E-09  6.57167E-09  6.64119E-09  6.75871E-09  6.61594E-09  6.70466E-09  7.45145E-09  3.85912E-09
   2.94075E-09  2.59182E-09  2.38582E-09  2.23244E-09  2.10337E-09  1.98738E-09  1.87919E-09  1.77604E-09  1.67644E-09  1.57948E-09
   1.48459E-09  1.39145E-09  1.29983E-09  1.20964E-09  1.12077E-09  1.03321E-09  9.46941E-10  8.61999E-10  7.78386E-10  6.96170E-10
   6.15387E-10  5.36092E-10  4.58351E-10  3.82220E-10  3.07769E-10  2.35064E-10  1.64198E-10  9.51985E-11  2.81610E-11 -3.69609E-11
  -1.00190E-10 -1.61559E-10 -2.21093E-10 -2.78826E-10 -3.34780E-10 -3.88993E-10 -4.41482E-10 -4.92275E-10 -5.41409E-10 -5.88906E-10
  -6.34782E-10 -6.79077E-10 -7.21813E-10 -7.63014E-10 -8.02710E-10 -8.40923E-10 -8.77670E-10 -9.13000E-10 -9.46933E-10 -9.79473E-10
