 LCModel (Version 6.3-1R) Copyright: S.W. Provencher.          Ref.: Magn. Reson. Med. 30:672-679 (1993).                
 onepulse 25x29_ftSpec_smooth_lcm
 26 lines in following concentration table = NCONC+1
    Conc.  %SD /Cr+PCr  Metabolite                                         
 2.19E-10 137%   1.081 Ala                                                 
 1.11E-09  68%   5.464 Asp                                                 
 2.02E-10 205%   1.000 Cr                                                  
 5.68E-10 116%   2.804 GABA                                                
    0.000 999%   0.000 Glc                                                 
 1.10E-09  68%   5.428 Gln                                                 
    0.000 999%   0.000 Glu                                                 
    0.000 999%   0.000 Glyc                                                
    0.000 999%   0.000 GPC                                                 
 6.45E-10 104%   3.185 GSH                                                 
 1.75E-09  24%   8.645 Ins                                                 
    0.000 999%   0.000 Lac                                                 
 4.41E-10  80%   2.177 NAAG                                                
 8.50E-11 613%   0.420 NAA                                                 
    0.000 999%   0.000 PCh                                                 
    0.000 999%   0.000 PCr                                                 
 1.44E-09  59%   7.109 PE                                                  
 2.04E-10 138%   1.006 Scyllo                                              
 8.96E-10 103%   4.427 Ser                                                 
 4.32E-10 221%   2.134 Tau                                                 
    0.000 999%   0.000 GPC+PCh                                             
 5.26E-10  63%   2.597 NAA+NAAG                                            
 1.75E-09  24%   8.645 Ins+Glyc                                            
 2.02E-10 205%   1.000 Cr+PCr                                              
 1.10E-09  68%   5.428 Glu+Gln                                             
   6 lines in following misc. output table
  FWHM = 0.123 ppm    S/N =   3                                            
  Data shift = 0.414 ppm                                                   
  Ph:   9 deg     -22.4 deg/ppm                                            
  alphaB,S = 3.7E-01,   1.3E+01                                            
   10 spline knots.   Ns = 5(1)                                            
  (12) 6 infls.   (11) 3 extrs.                                            
  363 points on ppm-axis = NY
      4.250000     4.238821     4.227641     4.216462     4.205282     4.194103     4.182923     4.171744     4.160564     4.149385
      4.138206     4.127026     4.115847     4.104667     4.093488     4.082308     4.071129     4.059949     4.048770     4.037591
      4.026411     4.015232     4.004052     3.992873     3.981693     3.970514     3.959334     3.948155     3.936975     3.925796
      3.914617     3.903437     3.892258     3.881078     3.869899     3.858719     3.847540     3.836360     3.825181     3.814002
      3.802822     3.791643     3.780463     3.769284     3.758104     3.746925     3.735745     3.724566     3.713387     3.702207
      3.691028     3.679848     3.668669     3.657489     3.646310     3.635130     3.623951     3.612772     3.601592     3.590413
      3.579233     3.568054     3.556874     3.545695     3.534515     3.523336     3.512156     3.500977     3.489798     3.478618
      3.467439     3.456259     3.445080     3.433900     3.422721     3.411541     3.400362     3.389183     3.378003     3.366824
      3.355644     3.344465     3.333285     3.322106     3.310926     3.299747     3.288568     3.277388     3.266209     3.255029
      3.243850     3.232670     3.221491     3.210311     3.199132     3.187953     3.176773     3.165594     3.154414     3.143235
      3.132055     3.120876     3.109696     3.098517     3.087337     3.076158     3.064979     3.053799     3.042620     3.031440
      3.020261     3.009081     2.997902     2.986722     2.975543     2.964364     2.953184     2.942005     2.930825     2.919646
      2.908466     2.897287     2.886107     2.874928     2.863749     2.852569     2.841390     2.830210     2.819031     2.807851
      2.796672     2.785492     2.774313     2.763134     2.751954     2.740775     2.729595     2.718416     2.707236     2.696057
      2.684877     2.673698     2.662519     2.651339     2.640160     2.628980     2.617801     2.606621     2.595442     2.584262
      2.573083     2.561903     2.550724     2.539545     2.528365     2.517186     2.506006     2.494827     2.483647     2.472468
      2.461288     2.450109     2.438930     2.427750     2.416571     2.405391     2.394212     2.383032     2.371853     2.360673
      2.349494     2.338315     2.327135     2.315956     2.304776     2.293597     2.282417     2.271238     2.260058     2.248879
      2.237700     2.226520     2.215341     2.204161     2.192982     2.181802     2.170623     2.159443     2.148264     2.137084
      2.125905     2.114726     2.103546     2.092367     2.081187     2.070008     2.058828     2.047649     2.036469     2.025290
      2.014111     2.002931     1.991752     1.980572     1.969393     1.958213     1.947034     1.935854     1.924675     1.913496
      1.902316     1.891137     1.879957     1.868778     1.857598     1.846419     1.835239     1.824060     1.812881     1.801701
      1.790522     1.779342     1.768163     1.756983     1.745804     1.734624     1.723445     1.712265     1.701086     1.689907
      1.678727     1.667548     1.656368     1.645189     1.634009     1.622830     1.611650     1.600471     1.589292     1.578112
      1.566933     1.555753     1.544574     1.533394     1.522215     1.511035     1.499856     1.488677     1.477497     1.466318
      1.455138     1.443959     1.432779     1.421600     1.410420     1.399241     1.388062     1.376882     1.365703     1.354523
      1.343344     1.332164     1.320985     1.309805     1.298626     1.287446     1.276267     1.265088     1.253908     1.242729
      1.231549     1.220370     1.209190     1.198011     1.186831     1.175652     1.164473     1.153293     1.142114     1.130934
      1.119755     1.108575     1.097396     1.086216     1.075037     1.063858     1.052678     1.041499     1.030319     1.019140
      1.007960     0.996781     0.985601     0.974422     0.963243     0.952063     0.940884     0.929704     0.918525     0.907345
      0.896166     0.884986     0.873807     0.862628     0.851448     0.840269     0.829089     0.817910     0.806730     0.795551
      0.784371     0.773192     0.762012     0.750833     0.739654     0.728474     0.717295     0.706115     0.694936     0.683756
      0.672577     0.661397     0.650218     0.639039     0.627859     0.616680     0.605500     0.594321     0.583141     0.571962
      0.560782     0.549603     0.538424     0.527244     0.516065     0.504885     0.493706     0.482526     0.471347     0.460167
      0.448988     0.437809     0.426629     0.415450     0.404270     0.393091     0.381911     0.370732     0.359552     0.348373
      0.337193     0.326014     0.314835     0.303655     0.292476     0.281296     0.270117     0.258937     0.247758     0.236578
      0.225399     0.214220     0.203040
 NY phased data points follow
   1.11592E-08  9.59072E-09  1.08971E-08  8.75629E-09  1.04208E-08  9.02159E-09  1.06177E-08  9.54332E-09  1.12754E-08  1.00904E-08
   1.15234E-08  9.23646E-09  1.09525E-08  9.09539E-09  1.06180E-08  8.76618E-09  9.84028E-09  8.37013E-09  9.57550E-09  8.66321E-09
   1.04760E-08  8.42681E-09  9.41473E-09  7.99464E-09  9.40649E-09  8.40940E-09  1.06036E-08  1.00483E-08  1.11825E-08  9.38791E-09
   9.76790E-09  8.52434E-09  8.97300E-09  7.76588E-09  8.67607E-09  7.42587E-09  7.93342E-09  7.03885E-09  7.92977E-09  6.91888E-09
   7.84784E-09  6.09481E-09  7.08402E-09  5.85809E-09  6.70772E-09  6.02424E-09  6.99804E-09  5.79820E-09  6.69268E-09  5.27876E-09
   5.70935E-09  4.97524E-09  5.89779E-09  5.16440E-09  6.27111E-09  5.31745E-09  6.57541E-09  6.55090E-09  9.03700E-09  8.33679E-09
   8.65887E-09  7.47331E-09  7.66514E-09  6.43612E-09  6.87944E-09  5.72315E-09  6.14684E-09  4.90644E-09  5.58192E-09  4.54155E-09
   5.03384E-09  3.85994E-09  4.81346E-09  6.37072E-09  9.03394E-09  1.02632E-08  1.17271E-08  1.03958E-08  1.01811E-08  9.62801E-09
   9.54287E-09  8.96840E-09  9.02843E-09  8.51975E-09  8.61965E-09  8.24748E-09  8.28782E-09  7.39860E-09  7.73830E-09  7.02116E-09
   7.21061E-09  6.27979E-09  6.89064E-09  6.17063E-09  6.05644E-09  6.00097E-09  6.48036E-09  6.28997E-09  6.51524E-09  6.29703E-09
   6.28237E-09  6.31825E-09  6.41844E-09  5.17401E-09  5.48679E-09  4.73870E-09  4.56054E-09  4.61807E-09  4.99800E-09  4.78469E-09
   5.00774E-09  4.72884E-09  4.70954E-09  4.69584E-09  4.82226E-09  4.72988E-09  4.80961E-09  4.30161E-09  3.95506E-09  3.27406E-09
   3.19643E-09  2.83870E-09  2.79312E-09  2.75655E-09  2.77581E-09  2.51611E-09  2.14202E-09  2.23418E-09  1.98026E-09  2.48507E-09
   2.46169E-09  1.52572E-09  1.68776E-09  1.80829E-09  2.38464E-09  3.03236E-09  3.77741E-09  3.69934E-09  3.56609E-09  3.68117E-09
   4.41694E-09  5.22012E-09  5.43110E-09  5.55378E-09  5.70604E-09  5.76425E-09  5.62311E-09  6.17148E-09  5.57492E-09  6.03695E-09
   5.76236E-09  6.62471E-09  5.86218E-09  6.42891E-09  6.27766E-09  6.43921E-09  6.59911E-09  6.87391E-09  6.88955E-09  6.94496E-09
   6.16366E-09  7.23686E-09  7.05366E-09  7.03367E-09  7.79862E-09  1.08725E-08  1.42164E-08  1.62023E-08  1.62906E-08  1.62974E-08
   1.60550E-08  1.59780E-08  1.60154E-08  1.56143E-08  1.50536E-08  1.52398E-08  1.45826E-08  1.45583E-08  1.40052E-08  1.37195E-08
   1.32002E-08  1.26482E-08  1.17509E-08  1.08018E-08  9.71623E-09  8.96824E-09  6.87985E-09  6.00941E-09  4.18833E-09  2.17032E-09
   3.38282E-10 -1.16511E-09 -4.07081E-09 -5.45642E-09 -7.51610E-09 -8.64136E-09 -9.94697E-09 -1.08466E-08 -1.15380E-08 -1.13224E-08
  -1.10760E-08 -1.06224E-08 -9.67580E-09 -7.91236E-09 -7.28155E-09 -5.34952E-09 -4.63811E-09 -3.46797E-09 -2.77253E-09 -1.62101E-09
  -1.46345E-09 -7.03072E-10 -1.01449E-09 -4.38949E-10 -1.05550E-09 -6.31811E-10 -8.74928E-10 -7.31655E-10 -9.42499E-10 -2.29895E-10
  -8.72352E-10  1.02307E-10 -7.17030E-10 -1.00685E-09 -1.27184E-09 -1.19622E-09 -1.31051E-09 -1.43762E-10 -5.60414E-10 -5.66696E-11
  -4.86196E-10 -4.86659E-10 -1.45581E-09 -7.21134E-10 -1.37886E-09 -4.52681E-10 -3.66125E-10  5.30583E-11 -4.25630E-10 -1.26874E-10
  -1.16871E-09 -5.33942E-10 -1.16716E-09 -3.10866E-10 -5.84072E-10 -6.60743E-11 -2.74418E-10  1.23637E-10 -1.93333E-10 -4.94879E-12
  -1.93350E-10  9.42095E-11 -6.88775E-10  9.51044E-11 -6.71661E-10 -2.22443E-10 -7.39749E-10 -1.19899E-11 -8.82173E-10 -1.61746E-10
  -1.01541E-09 -5.13307E-10 -8.96171E-10 -1.78856E-10 -1.01439E-09  2.32345E-11 -6.72584E-10 -2.24096E-10 -4.28767E-10 -5.93825E-11
  -1.52681E-10  1.38114E-10 -3.54793E-10  3.61685E-10 -3.82146E-10  1.85633E-10 -4.62840E-10  4.55318E-10 -3.56404E-10 -2.26633E-10
  -6.01202E-10  6.40499E-11 -6.14307E-10 -2.81445E-10 -7.20860E-10 -2.98203E-10 -8.72477E-10 -6.53432E-10 -9.13384E-10 -4.96734E-10
  -1.02546E-09 -5.36848E-10 -8.85651E-10 -6.20889E-10 -1.16865E-09 -4.69333E-10 -1.06607E-09 -7.16765E-10 -8.05848E-10 -3.55477E-10
  -1.20544E-09 -5.78577E-11 -7.23387E-10 -3.63756E-10 -9.21757E-10 -2.60807E-10 -7.35782E-10 -1.88646E-10 -9.77906E-10 -2.41408E-10
  -1.06422E-09 -8.09956E-10 -5.43042E-10 -4.86037E-10 -1.03474E-09 -2.16665E-10 -8.56309E-10 -4.93861E-12 -1.32819E-09  1.39697E-10
  -1.13797E-09 -1.86081E-10 -1.15183E-09 -2.96630E-10 -1.03826E-09 -4.46381E-10 -8.63023E-10 -5.12018E-10 -9.89832E-10 -5.67791E-10
  -1.23506E-09 -4.53352E-10 -9.29177E-10 -5.36503E-10 -1.22500E-09 -6.43910E-10 -1.21478E-09 -7.30327E-10 -1.16576E-09 -7.09845E-10
  -1.19633E-09 -8.40055E-10 -1.20929E-09 -5.63255E-10 -1.46757E-09 -8.39222E-10 -1.00410E-09 -5.24876E-10 -1.39571E-09 -4.97105E-10
  -1.26496E-09 -4.89677E-10 -1.11087E-09 -6.26876E-10 -1.61738E-09 -9.05070E-10 -1.59003E-09 -1.01376E-09 -1.26696E-09 -4.92290E-10
  -1.43617E-09 -8.65720E-10 -1.14240E-09
 NY points of the fit to the data follow
   1.18638E-08  1.09681E-08  9.92839E-09  9.07047E-09  9.50079E-09  9.73456E-09  9.30631E-09  9.64317E-09  1.12017E-08  1.14104E-08
   1.04138E-08  9.94989E-09  9.76607E-09  1.00373E-08  1.00829E-08  9.28822E-09  9.14479E-09  9.87864E-09  1.00673E-08  8.58698E-09
   7.84008E-09  8.68943E-09  9.16289E-09  9.35147E-09  9.56227E-09  1.00927E-08  1.04471E-08  1.03173E-08  9.78864E-09  9.19894E-09
   9.15551E-09  9.01472E-09  8.74484E-09  8.54154E-09  8.30836E-09  7.88359E-09  7.51334E-09  7.38590E-09  7.28350E-09  7.06430E-09
   6.86897E-09  6.89137E-09  6.75124E-09  6.25377E-09  6.22386E-09  6.17320E-09  5.91622E-09  5.35028E-09  5.41786E-09  5.53187E-09
   5.78783E-09  6.07233E-09  6.18615E-09  6.38770E-09  6.83335E-09  6.83133E-09  6.75309E-09  7.34740E-09  7.71934E-09  7.37604E-09
   7.31320E-09  7.30214E-09  7.30274E-09  7.25335E-09  7.09316E-09  6.93839E-09  6.85606E-09  6.65517E-09  6.27215E-09  6.31577E-09
   6.69733E-09  6.97542E-09  7.17661E-09  7.27981E-09  7.81296E-09  8.57706E-09  9.50056E-09  1.00962E-08  1.01557E-08  1.00507E-08
   9.92270E-09  9.58900E-09  9.17352E-09  9.02794E-09  8.95117E-09  8.57874E-09  7.85981E-09  6.77615E-09  6.13047E-09  5.85436E-09
   5.62111E-09  5.46679E-09  5.44779E-09  5.33369E-09  5.11282E-09  5.09292E-09  5.03846E-09  4.88903E-09  4.87087E-09  4.92301E-09
   5.10785E-09  5.07547E-09  5.03719E-09  5.24120E-09  5.33171E-09  5.32291E-09  5.29818E-09  5.29309E-09  5.31138E-09  5.30181E-09
   5.17742E-09  4.96299E-09  5.00763E-09  4.97535E-09  4.74974E-09  4.67270E-09  4.64103E-09  4.62600E-09  4.61868E-09  4.61541E-09
   4.61432E-09  4.61440E-09  4.61498E-09  4.61562E-09  4.61599E-09  4.61585E-09  4.61500E-09  4.61327E-09  4.61054E-09  4.60667E-09
   4.60156E-09  4.59510E-09  4.58722E-09  4.57782E-09  4.56683E-09  4.55416E-09  4.53975E-09  4.52352E-09  4.50541E-09  4.48536E-09
   4.46331E-09  4.43919E-09  4.41297E-09  4.38459E-09  4.35400E-09  4.32116E-09  4.28605E-09  4.24865E-09  4.20895E-09  4.16696E-09
   4.12270E-09  4.07625E-09  4.02772E-09  3.97725E-09  3.92514E-09  3.87176E-09  3.81777E-09  3.76421E-09  3.71279E-09  3.66615E-09
   3.62870E-09  3.60840E-09  3.62092E-09  3.70108E-09  3.94156E-09  4.66828E-09  7.66729E-09  1.56864E-08  1.79865E-08  1.72576E-08
   1.65465E-08  1.63555E-08  1.62265E-08  1.59281E-08  1.57410E-08  1.62740E-08  1.66010E-08  1.36311E-08  6.07937E-09  3.99208E-09
   3.17251E-09  2.71182E-09  2.39677E-09  2.15465E-09  1.95426E-09  1.78012E-09  1.62368E-09  1.47986E-09  1.34550E-09  1.21853E-09
   1.09753E-09  9.81577E-10  8.69960E-10  7.62241E-10  6.58055E-10  5.57187E-10  4.59472E-10  3.64820E-10  2.73154E-10  1.84461E-10
   9.87367E-11  1.59981E-11 -6.37151E-11 -1.40361E-10 -2.13877E-10 -2.84200E-10 -3.51237E-10 -4.14939E-10 -4.75234E-10 -5.32221E-10
  -5.85980E-10 -6.36608E-10 -6.84187E-10 -7.28809E-10 -7.70551E-10 -8.09501E-10 -8.45731E-10 -8.79322E-10 -9.10358E-10 -9.38914E-10
  -9.65054E-10 -9.88866E-10 -1.01042E-09 -1.02979E-09 -1.04705E-09 -1.06228E-09 -1.07552E-09 -1.08689E-09 -1.09644E-09 -1.10422E-09
  -1.11033E-09 -1.11483E-09 -1.11779E-09 -1.11928E-09 -1.11937E-09 -1.11814E-09 -1.11565E-09 -1.11196E-09 -1.10716E-09 -1.10131E-09
  -1.09447E-09 -1.08672E-09 -1.07813E-09 -1.06876E-09 -1.05869E-09 -1.04798E-09 -1.03670E-09 -1.02493E-09 -1.01272E-09 -1.00014E-09
  -9.87275E-10 -9.74188E-10 -9.60940E-10 -9.47592E-10 -9.34242E-10 -9.20922E-10 -9.07725E-10 -8.94707E-10 -8.81944E-10 -8.69507E-10
  -8.57416E-10 -8.45681E-10 -8.34302E-10 -8.23274E-10 -8.12594E-10 -8.02264E-10 -7.92278E-10 -7.82638E-10 -7.73337E-10 -7.64376E-10
  -7.55756E-10 -7.47468E-10 -7.39518E-10 -7.31895E-10 -7.24600E-10 -7.17636E-10 -7.10995E-10 -7.04677E-10 -6.98677E-10 -6.93000E-10
  -6.87634E-10 -6.82588E-10 -6.77846E-10 -6.73414E-10 -6.69295E-10 -6.65480E-10 -6.61963E-10 -6.58748E-10 -6.55834E-10 -6.53218E-10
  -6.50894E-10 -6.48858E-10 -6.47110E-10 -6.45656E-10 -6.44480E-10 -6.43593E-10 -6.42981E-10 -6.42646E-10 -6.42586E-10 -6.42802E-10
  -6.43292E-10 -6.44039E-10 -6.45063E-10 -6.46344E-10 -6.47885E-10 -6.49692E-10 -6.51754E-10 -6.54064E-10 -6.56636E-10 -6.59448E-10
  -6.62513E-10 -6.65830E-10 -6.69379E-10 -6.73162E-10 -6.77173E-10 -6.81408E-10 -6.85861E-10 -6.90524E-10 -6.95395E-10 -7.00464E-10
  -7.05731E-10 -7.11185E-10 -7.16822E-10 -7.22637E-10 -7.28625E-10 -7.34779E-10 -7.41092E-10 -7.47561E-10 -7.54179E-10 -7.60939E-10
  -7.67840E-10 -7.74872E-10 -7.82027E-10 -7.89308E-10 -7.96701E-10 -8.04202E-10 -8.11810E-10 -8.19515E-10 -8.27311E-10 -8.35193E-10
  -8.43157E-10 -8.51196E-10 -8.59305E-10 -8.67477E-10 -8.75705E-10 -8.83986E-10 -8.92316E-10 -9.00684E-10 -9.09089E-10 -9.17520E-10
  -9.25978E-10 -9.34452E-10 -9.42940E-10 -9.51433E-10 -9.59924E-10 -9.68415E-10 -9.76895E-10 -9.85354E-10 -9.93795E-10 -1.00221E-09
  -1.01059E-09 -1.01892E-09 -1.02722E-09
 NY background values follow
    -7.330E-10   -6.894E-10   -6.459E-10   -6.022E-10   -5.586E-10   -5.149E-10   -4.712E-10   -4.274E-10   -3.837E-10   -3.399E-10
    -2.962E-10   -2.524E-10   -2.087E-10   -1.649E-10   -1.212E-10   -7.746E-11   -3.378E-11    9.883E-12    5.350E-11    9.709E-11
     1.406E-10    1.841E-10    2.276E-10    2.709E-10    3.142E-10    3.575E-10    4.006E-10    4.437E-10    4.867E-10    5.296E-10
     5.725E-10    6.152E-10    6.578E-10    7.003E-10    7.427E-10    7.850E-10    8.271E-10    8.692E-10    9.111E-10    9.528E-10
     9.944E-10    1.036E-09    1.077E-09    1.118E-09    1.159E-09    1.200E-09    1.241E-09    1.281E-09    1.322E-09    1.362E-09
     1.402E-09    1.441E-09    1.481E-09    1.520E-09    1.559E-09    1.598E-09    1.637E-09    1.675E-09    1.713E-09    1.751E-09
     1.789E-09    1.827E-09    1.864E-09    1.901E-09    1.938E-09    1.975E-09    2.012E-09    2.048E-09    2.084E-09    2.120E-09
     2.156E-09    2.191E-09    2.226E-09    2.261E-09    2.296E-09    2.330E-09    2.365E-09    2.399E-09    2.432E-09    2.466E-09
     2.499E-09    2.533E-09    2.565E-09    2.598E-09    2.631E-09    2.663E-09    2.695E-09    2.726E-09    2.758E-09    2.789E-09
     2.820E-09    2.851E-09    2.881E-09    2.912E-09    2.942E-09    2.971E-09    3.001E-09    3.030E-09    3.059E-09    3.088E-09
     3.116E-09    3.145E-09    3.173E-09    3.201E-09    3.228E-09    3.255E-09    3.282E-09    3.309E-09    3.335E-09    3.360E-09
     3.385E-09    3.410E-09    3.433E-09    3.456E-09    3.478E-09    3.500E-09    3.520E-09    3.540E-09    3.558E-09    3.576E-09
     3.592E-09    3.608E-09    3.622E-09    3.635E-09    3.646E-09    3.656E-09    3.665E-09    3.672E-09    3.678E-09    3.682E-09
     3.684E-09    3.685E-09    3.684E-09    3.681E-09    3.676E-09    3.670E-09    3.661E-09    3.651E-09    3.638E-09    3.623E-09
     3.606E-09    3.587E-09    3.565E-09    3.541E-09    3.515E-09    3.486E-09    3.455E-09    3.421E-09    3.385E-09    3.346E-09
     3.304E-09    3.259E-09    3.212E-09    3.161E-09    3.108E-09    3.052E-09    2.992E-09    2.930E-09    2.865E-09    2.797E-09
     2.726E-09    2.653E-09    2.578E-09    2.500E-09    2.421E-09    2.339E-09    2.255E-09    2.170E-09    2.083E-09    1.994E-09
     1.904E-09    1.813E-09    1.720E-09    1.627E-09    1.533E-09    1.437E-09    1.341E-09    1.245E-09    1.148E-09    1.050E-09
     9.529E-10    8.553E-10    7.577E-10    6.602E-10    5.630E-10    4.662E-10    3.698E-10    2.741E-10    1.791E-10    8.501E-11
    -8.136E-12   -1.002E-10   -1.910E-10   -2.805E-10   -3.686E-10   -4.550E-10   -5.398E-10   -6.228E-10   -7.038E-10   -7.828E-10
    -8.596E-10   -9.341E-10   -1.006E-09   -1.076E-09   -1.143E-09   -1.207E-09   -1.268E-09   -1.326E-09   -1.382E-09   -1.434E-09
    -1.483E-09   -1.529E-09   -1.573E-09   -1.613E-09   -1.651E-09   -1.687E-09   -1.720E-09   -1.750E-09   -1.778E-09   -1.803E-09
    -1.827E-09   -1.848E-09   -1.866E-09   -1.883E-09   -1.898E-09   -1.911E-09   -1.922E-09   -1.931E-09   -1.938E-09   -1.944E-09
    -1.948E-09   -1.950E-09   -1.951E-09   -1.951E-09   -1.949E-09   -1.946E-09   -1.942E-09   -1.936E-09   -1.930E-09   -1.922E-09
    -1.914E-09   -1.904E-09   -1.894E-09   -1.883E-09   -1.872E-09   -1.860E-09   -1.847E-09   -1.834E-09   -1.820E-09   -1.806E-09
    -1.792E-09   -1.778E-09   -1.763E-09   -1.748E-09   -1.734E-09   -1.719E-09   -1.705E-09   -1.691E-09   -1.677E-09   -1.663E-09
    -1.650E-09   -1.637E-09   -1.625E-09   -1.613E-09   -1.601E-09   -1.590E-09   -1.579E-09   -1.568E-09   -1.558E-09   -1.548E-09
    -1.538E-09   -1.529E-09   -1.520E-09   -1.511E-09   -1.503E-09   -1.495E-09   -1.488E-09   -1.481E-09   -1.474E-09   -1.467E-09
    -1.461E-09   -1.455E-09   -1.449E-09   -1.444E-09   -1.439E-09   -1.434E-09   -1.430E-09   -1.426E-09   -1.422E-09   -1.419E-09
    -1.416E-09   -1.413E-09   -1.411E-09   -1.408E-09   -1.406E-09   -1.405E-09   -1.403E-09   -1.402E-09   -1.401E-09   -1.401E-09
    -1.401E-09   -1.401E-09   -1.401E-09   -1.402E-09   -1.402E-09   -1.404E-09   -1.405E-09   -1.407E-09   -1.408E-09   -1.411E-09
    -1.413E-09   -1.416E-09   -1.418E-09   -1.422E-09   -1.425E-09   -1.429E-09   -1.432E-09   -1.436E-09   -1.441E-09   -1.445E-09
    -1.450E-09   -1.454E-09   -1.459E-09   -1.465E-09   -1.470E-09   -1.475E-09   -1.481E-09   -1.487E-09   -1.493E-09   -1.499E-09
    -1.505E-09   -1.512E-09   -1.518E-09   -1.525E-09   -1.532E-09   -1.539E-09   -1.546E-09   -1.553E-09   -1.560E-09   -1.567E-09
    -1.575E-09   -1.582E-09   -1.590E-09   -1.597E-09   -1.605E-09   -1.612E-09   -1.620E-09   -1.628E-09   -1.636E-09   -1.644E-09
    -1.652E-09   -1.659E-09   -1.667E-09   -1.675E-09   -1.683E-09   -1.691E-09   -1.699E-09   -1.707E-09   -1.715E-09   -1.723E-09
    -1.730E-09   -1.738E-09   -1.746E-09
 Ala      Conc. = 2.19E-10
  -5.72394E-10 -5.22540E-10 -4.78548E-10 -4.28159E-10 -3.86189E-10 -3.43609E-10 -2.95350E-10 -2.79050E-10 -2.62378E-10 -2.03591E-10
  -1.79889E-10 -1.72659E-10 -1.31329E-10 -9.62721E-11 -6.79494E-11 -3.34380E-11  4.19055E-12  4.35445E-11  8.39356E-11  1.25009E-10
   1.66537E-10  2.08381E-10  2.50450E-10  2.92672E-10  3.34990E-10  3.77376E-10  4.19793E-10  4.62223E-10  5.04638E-10  5.47030E-10
   5.89387E-10  6.31679E-10  6.73912E-10  7.16068E-10  7.58141E-10  8.00118E-10  8.41994E-10  8.83769E-10  9.25421E-10  9.66942E-10
   1.00835E-09  1.04962E-09  1.09074E-09  1.13172E-09  1.17254E-09  1.21320E-09  1.25370E-09  1.29403E-09  1.33418E-09  1.37414E-09
   1.41393E-09  1.45352E-09  1.49291E-09  1.53211E-09  1.57109E-09  1.60987E-09  1.64845E-09  1.68683E-09  1.72499E-09  1.76295E-09
   1.80070E-09  1.83824E-09  1.87556E-09  1.91268E-09  1.94958E-09  1.98628E-09  2.02276E-09  2.05902E-09  2.09507E-09  2.13091E-09
   2.16653E-09  2.20194E-09  2.23714E-09  2.27212E-09  2.30689E-09  2.34145E-09  2.37580E-09  2.40994E-09  2.44388E-09  2.47762E-09
   2.51117E-09  2.54452E-09  2.57770E-09  2.61070E-09  2.64356E-09  2.67628E-09  2.70888E-09  2.74142E-09  2.77393E-09  2.80648E-09
   2.83916E-09  2.87212E-09  2.90558E-09  2.93987E-09  2.97558E-09  3.01374E-09  3.05643E-09  3.10839E-09  3.18301E-09  3.33334E-09
   3.62299E-09  3.65720E-09  3.67731E-09  3.93623E-09  4.07151E-09  4.09995E-09  4.10722E-09  4.12978E-09  4.17292E-09  4.18558E-09
   4.08122E-09  3.88508E-09  3.94649E-09  3.92968E-09  3.71842E-09  3.65467E-09  3.63535E-09  3.63189E-09  3.63546E-09  3.64245E-09
   3.65108E-09  3.66036E-09  3.66968E-09  3.67864E-09  3.68695E-09  3.69440E-09  3.70082E-09  3.70608E-09  3.71006E-09  3.71266E-09
   3.71379E-09  3.71336E-09  3.71131E-09  3.70754E-09  3.70201E-09  3.69464E-09  3.68537E-09  3.67413E-09  3.66086E-09  3.64551E-09
   3.62800E-09  3.60829E-09  3.58632E-09  3.56204E-09  3.53537E-09  3.50627E-09  3.47468E-09  3.44054E-09  3.40380E-09  3.36442E-09
   3.32232E-09  3.27746E-09  3.22979E-09  3.17926E-09  3.12582E-09  3.06942E-09  3.01006E-09  2.94782E-09  2.88285E-09  2.81534E-09
   2.74551E-09  2.67365E-09  2.60025E-09  2.52623E-09  2.45381E-09  2.39049E-09  2.37639E-09  2.49207E-09  2.46564E-09  2.36139E-09
   2.25568E-09  2.16177E-09  2.06849E-09  1.96997E-09  1.87267E-09  1.79254E-09  1.70888E-09  1.54744E-09  1.26495E-09  1.11812E-09
   1.00287E-09  8.96379E-10  7.93470E-10  6.92479E-10  5.92741E-10  4.94026E-10  3.96221E-10  2.99312E-10  2.03363E-10  1.08430E-10
   1.45877E-11 -7.80537E-11 -1.69416E-10 -2.59364E-10 -3.47819E-10 -4.34654E-10 -5.19764E-10 -6.03021E-10 -6.84331E-10 -7.63561E-10
  -8.40599E-10 -9.15330E-10 -9.87633E-10 -1.05740E-09 -1.12450E-09 -1.18882E-09 -1.25024E-09 -1.30866E-09 -1.36397E-09 -1.41625E-09
  -1.46556E-09 -1.51196E-09 -1.55553E-09 -1.59632E-09 -1.63442E-09 -1.66988E-09 -1.70278E-09 -1.73318E-09 -1.76115E-09 -1.78676E-09
  -1.81006E-09 -1.83115E-09 -1.85007E-09 -1.86691E-09 -1.88171E-09 -1.89456E-09 -1.90551E-09 -1.91465E-09 -1.92205E-09 -1.92774E-09
  -1.93181E-09 -1.93433E-09 -1.93537E-09 -1.93499E-09 -1.93325E-09 -1.93025E-09 -1.92602E-09 -1.92065E-09 -1.91419E-09 -1.90673E-09
  -1.89832E-09 -1.88903E-09 -1.87893E-09 -1.86808E-09 -1.85657E-09 -1.84444E-09 -1.83178E-09 -1.81865E-09 -1.80510E-09 -1.79121E-09
  -1.77706E-09 -1.76271E-09 -1.74822E-09 -1.73366E-09 -1.71911E-09 -1.70461E-09 -1.69025E-09 -1.67609E-09 -1.66221E-09 -1.64867E-09
  -1.63549E-09 -1.62268E-09 -1.61024E-09 -1.59817E-09 -1.58647E-09 -1.57512E-09 -1.56414E-09 -1.55351E-09 -1.54324E-09 -1.53331E-09
  -1.52374E-09 -1.51452E-09 -1.50564E-09 -1.49711E-09 -1.48891E-09 -1.48105E-09 -1.47353E-09 -1.46633E-09 -1.45947E-09 -1.45294E-09
  -1.44673E-09 -1.44084E-09 -1.43527E-09 -1.43002E-09 -1.42509E-09 -1.42047E-09 -1.41616E-09 -1.41216E-09 -1.40846E-09 -1.40507E-09
  -1.40198E-09 -1.39918E-09 -1.39668E-09 -1.39447E-09 -1.39256E-09 -1.39093E-09 -1.38959E-09 -1.38853E-09 -1.38775E-09 -1.38725E-09
  -1.38703E-09 -1.38708E-09 -1.38740E-09 -1.38799E-09 -1.38884E-09 -1.38996E-09 -1.39135E-09 -1.39298E-09 -1.39488E-09 -1.39702E-09
  -1.39943E-09 -1.40208E-09 -1.40498E-09 -1.40811E-09 -1.41147E-09 -1.41506E-09 -1.41887E-09 -1.42289E-09 -1.42713E-09 -1.43157E-09
  -1.43620E-09 -1.44103E-09 -1.44605E-09 -1.45124E-09 -1.45661E-09 -1.46215E-09 -1.46785E-09 -1.47371E-09 -1.47972E-09 -1.48587E-09
  -1.49217E-09 -1.49860E-09 -1.50515E-09 -1.51184E-09 -1.51863E-09 -1.52554E-09 -1.53256E-09 -1.53967E-09 -1.54688E-09 -1.55417E-09
  -1.56155E-09 -1.56901E-09 -1.57653E-09 -1.58412E-09 -1.59177E-09 -1.59947E-09 -1.60722E-09 -1.61501E-09 -1.62284E-09 -1.63070E-09
  -1.63858E-09 -1.64648E-09 -1.65440E-09 -1.66232E-09 -1.67024E-09 -1.67816E-09 -1.68607E-09 -1.69395E-09 -1.70182E-09 -1.70967E-09
  -1.71748E-09 -1.72525E-09 -1.73297E-09
 Asp      Conc. = 1.11E-09
   4.33352E-10  2.82830E-10  2.40465E-10  1.20147E-10  1.00150E-10  3.30055E-11 -7.62786E-11 -1.68224E-10 -1.88225E-10 -1.80985E-10
  -1.61078E-10 -1.34256E-10 -1.02471E-10 -6.54551E-11 -2.72725E-11  1.17918E-11  5.17895E-11  9.26083E-11  1.34114E-10  1.76228E-10
   2.18881E-10  2.62042E-10  3.05706E-10  3.49883E-10  3.94606E-10  4.39957E-10  4.86037E-10  5.33016E-10  5.81125E-10  6.30725E-10
   6.82363E-10  7.36883E-10  7.95783E-10  8.61827E-10  9.41050E-10  1.04977E-09  1.22425E-09  1.31954E-09  1.44330E-09  1.46836E-09
   1.47909E-09  1.53886E-09  1.73773E-09  2.02530E-09  2.43155E-09  2.81606E-09  2.79179E-09  2.63099E-09  2.87001E-09  2.96505E-09
   3.03933E-09  3.18843E-09  3.27466E-09  3.18997E-09  3.02441E-09  2.78403E-09  2.55149E-09  2.63162E-09  2.68094E-09  2.45837E-09
   2.39620E-09  2.37505E-09  2.28642E-09  2.29128E-09  2.36502E-09  2.39746E-09  2.34279E-09  2.32551E-09  2.32638E-09  2.33678E-09
   2.35292E-09  2.37280E-09  2.39528E-09  2.41962E-09  2.44533E-09  2.47208E-09  2.49960E-09  2.52771E-09  2.55628E-09  2.58519E-09
   2.61434E-09  2.64367E-09  2.67312E-09  2.70264E-09  2.73220E-09  2.76175E-09  2.79127E-09  2.82074E-09  2.85013E-09  2.87943E-09
   2.90861E-09  2.93767E-09  2.96660E-09  2.99537E-09  3.02399E-09  3.05244E-09  3.08073E-09  3.10882E-09  3.13673E-09  3.16445E-09
   3.19196E-09  3.21928E-09  3.24638E-09  3.27327E-09  3.29995E-09  3.32637E-09  3.35248E-09  3.37823E-09  3.40356E-09  3.42842E-09
   3.45274E-09  3.47647E-09  3.49956E-09  3.52194E-09  3.54358E-09  3.56440E-09  3.58435E-09  3.60338E-09  3.62143E-09  3.63845E-09
   3.65438E-09  3.66917E-09  3.68276E-09  3.69510E-09  3.70613E-09  3.71580E-09  3.72405E-09  3.73083E-09  3.73607E-09  3.73974E-09
   3.74177E-09  3.74210E-09  3.74070E-09  3.73748E-09  3.73242E-09  3.72544E-09  3.71650E-09  3.70554E-09  3.69251E-09  3.67736E-09
   3.66002E-09  3.64045E-09  3.61859E-09  3.59439E-09  3.56780E-09  3.53876E-09  3.50724E-09  3.47316E-09  3.43649E-09  3.39719E-09
   3.35520E-09  3.31049E-09  3.26302E-09  3.21277E-09  3.15971E-09  3.10386E-09  3.04526E-09  2.98409E-09  2.92068E-09  2.85545E-09
   2.78905E-09  2.72254E-09  2.65797E-09  2.59970E-09  2.55929E-09  2.57726E-09  2.87694E-09  3.77325E-09  3.97006E-09  3.80276E-09
   3.63854E-09  3.53599E-09  3.43930E-09  3.32115E-09  3.21670E-09  3.19887E-09  3.15204E-09  2.69802E-09  1.69923E-09  1.36444E-09
   1.17987E-09  1.03826E-09  9.14252E-10  7.99205E-10  6.89443E-10  5.83226E-10  4.79598E-10  3.78042E-10  2.78299E-10  1.80211E-10
   8.37048E-11 -1.12152E-11 -1.04548E-10 -1.96218E-10 -2.86190E-10 -3.74371E-10 -4.60685E-10 -5.45024E-10 -6.27313E-10 -7.07432E-10
  -7.85281E-10 -8.60757E-10 -9.33745E-10 -1.00414E-09 -1.07183E-09 -1.13670E-09 -1.19862E-09 -1.25751E-09 -1.31327E-09 -1.36597E-09
  -1.41567E-09 -1.46245E-09 -1.50636E-09 -1.54749E-09 -1.58590E-09 -1.62166E-09 -1.65484E-09 -1.68551E-09 -1.71374E-09 -1.73960E-09
  -1.76314E-09 -1.78445E-09 -1.80359E-09 -1.82063E-09 -1.83564E-09 -1.84869E-09 -1.85982E-09 -1.86914E-09 -1.87670E-09 -1.88256E-09
