 LCModel (Version 6.3-1R) Copyright: S.W. Provencher.          Ref.: Magn. Reson. Med. 30:672-679 (1993).                
 onepulse 25x23_ftSpec_smooth_lcm
 26 lines in following concentration table = NCONC+1
    Conc.  %SD /Cr+PCr  Metabolite                                         
    0.000 999%   0.000 Ala                                                 
 6.44E-11 999%   0.137 Asp                                                 
 4.69E-10  70%   1.000 Cr                                                  
    0.000 999%   0.000 GABA                                                
    0.000 999%   0.000 Glc                                                 
 2.53E-09  48%   5.401 Gln                                                 
 4.62E-10 214%   0.987 Glu                                                 
 1.51E-09  48%   3.228 Glyc                                                
    0.000 999%   0.000 GPC                                                 
    0.000 999%   0.000 GSH                                                 
    0.000 999%   0.000 Ins                                                 
    0.000 999%   0.000 Lac                                                 
    0.000 999%   0.000 NAAG                                                
 6.25E-10  57%   1.333 NAA                                                 
 2.07E-10  95%   0.441 PCh                                                 
    0.000 999%   0.000 PCr                                                 
    0.000 999%   0.000 PE                                                  
 2.07E-10 227%   0.442 Scyllo                                              
 3.14E-09  32%   6.705 Ser                                                 
 6.45E-10 218%   1.376 Tau                                                 
 2.07E-10  95%   0.441 GPC+PCh                                             
 6.25E-10  57%   1.333 NAA+NAAG                                            
 1.51E-09  48%   3.228 Ins+Glyc                                            
 4.69E-10  70%   1.000 Cr+PCr                                              
 2.99E-09  26%   6.388 Glu+Gln                                             
   6 lines in following misc. output table
  FWHM = 0.089 ppm    S/N =   3                                            
  Data shift = 0.347 ppm                                                   
  Ph: -53 deg     -24.9 deg/ppm                                            
  alphaB,S = 1.8E-01,   4.3E+01                                            
   16 spline knots.   Ns = 5(1)                                            
  (12) 2 infls.   ( 9) 1 extrs.                                            
  363 points on ppm-axis = NY
      4.250000     4.238821     4.227641     4.216462     4.205282     4.194103     4.182923     4.171744     4.160564     4.149385
      4.138206     4.127026     4.115847     4.104667     4.093488     4.082308     4.071129     4.059949     4.048770     4.037591
      4.026411     4.015232     4.004052     3.992873     3.981693     3.970514     3.959334     3.948155     3.936975     3.925796
      3.914617     3.903437     3.892258     3.881078     3.869899     3.858719     3.847540     3.836360     3.825181     3.814002
      3.802822     3.791643     3.780463     3.769284     3.758104     3.746925     3.735745     3.724566     3.713387     3.702207
      3.691028     3.679848     3.668669     3.657489     3.646310     3.635130     3.623951     3.612772     3.601592     3.590413
      3.579233     3.568054     3.556874     3.545695     3.534515     3.523336     3.512156     3.500977     3.489798     3.478618
      3.467439     3.456259     3.445080     3.433900     3.422721     3.411541     3.400362     3.389183     3.378003     3.366824
      3.355644     3.344465     3.333285     3.322106     3.310926     3.299747     3.288568     3.277388     3.266209     3.255029
      3.243850     3.232670     3.221491     3.210311     3.199132     3.187953     3.176773     3.165594     3.154414     3.143235
      3.132055     3.120876     3.109696     3.098517     3.087337     3.076158     3.064979     3.053799     3.042620     3.031440
      3.020261     3.009081     2.997902     2.986722     2.975543     2.964364     2.953184     2.942005     2.930825     2.919646
      2.908466     2.897287     2.886107     2.874928     2.863749     2.852569     2.841390     2.830210     2.819031     2.807851
      2.796672     2.785492     2.774313     2.763134     2.751954     2.740775     2.729595     2.718416     2.707236     2.696057
      2.684877     2.673698     2.662519     2.651339     2.640160     2.628980     2.617801     2.606621     2.595442     2.584262
      2.573083     2.561903     2.550724     2.539545     2.528365     2.517186     2.506006     2.494827     2.483647     2.472468
      2.461288     2.450109     2.438930     2.427750     2.416571     2.405391     2.394212     2.383032     2.371853     2.360673
      2.349494     2.338315     2.327135     2.315956     2.304776     2.293597     2.282417     2.271238     2.260058     2.248879
      2.237700     2.226520     2.215341     2.204161     2.192982     2.181802     2.170623     2.159443     2.148264     2.137084
      2.125905     2.114726     2.103546     2.092367     2.081187     2.070008     2.058828     2.047649     2.036469     2.025290
      2.014111     2.002931     1.991752     1.980572     1.969393     1.958213     1.947034     1.935854     1.924675     1.913496
      1.902316     1.891137     1.879957     1.868778     1.857598     1.846419     1.835239     1.824060     1.812881     1.801701
      1.790522     1.779342     1.768163     1.756983     1.745804     1.734624     1.723445     1.712265     1.701086     1.689907
      1.678727     1.667548     1.656368     1.645189     1.634009     1.622830     1.611650     1.600471     1.589292     1.578112
      1.566933     1.555753     1.544574     1.533394     1.522215     1.511035     1.499856     1.488677     1.477497     1.466318
      1.455138     1.443959     1.432779     1.421600     1.410420     1.399241     1.388062     1.376882     1.365703     1.354523
      1.343344     1.332164     1.320985     1.309805     1.298626     1.287446     1.276267     1.265088     1.253908     1.242729
      1.231549     1.220370     1.209190     1.198011     1.186831     1.175652     1.164473     1.153293     1.142114     1.130934
      1.119755     1.108575     1.097396     1.086216     1.075037     1.063858     1.052678     1.041499     1.030319     1.019140
      1.007960     0.996781     0.985601     0.974422     0.963243     0.952063     0.940884     0.929704     0.918525     0.907345
      0.896166     0.884986     0.873807     0.862628     0.851448     0.840269     0.829089     0.817910     0.806730     0.795551
      0.784371     0.773192     0.762012     0.750833     0.739654     0.728474     0.717295     0.706115     0.694936     0.683756
      0.672577     0.661397     0.650218     0.639039     0.627859     0.616680     0.605500     0.594321     0.583141     0.571962
      0.560782     0.549603     0.538424     0.527244     0.516065     0.504885     0.493706     0.482526     0.471347     0.460167
      0.448988     0.437809     0.426629     0.415450     0.404270     0.393091     0.381911     0.370732     0.359552     0.348373
      0.337193     0.326014     0.314835     0.303655     0.292476     0.281296     0.270117     0.258937     0.247758     0.236578
      0.225399     0.214220     0.203040
 NY phased data points follow
   1.73352E-08  1.53870E-08  1.42578E-08  1.08386E-08  1.01507E-08  7.97570E-09  8.68036E-09  6.85460E-09  8.41145E-09  7.40422E-09
   8.85034E-09  8.33610E-09  9.00170E-09  8.73840E-09  1.01855E-08  9.02742E-09  8.77170E-09  8.02727E-09  8.06594E-09  7.08824E-09
   7.54306E-09  6.45221E-09  7.05008E-09  7.24563E-09  7.68274E-09  7.60263E-09  8.51601E-09  6.72341E-09  6.84114E-09  6.55240E-09
   7.45221E-09  7.98268E-09  8.86801E-09  8.75450E-09  7.77318E-09  6.34602E-09  4.65241E-09  3.81323E-09  2.81596E-09  3.20000E-09
   3.25157E-09  3.09663E-09  3.73151E-09  2.55535E-09  2.95475E-09  2.78694E-09  2.69568E-09  2.70130E-09  2.69618E-09  2.87809E-09
   3.94333E-09  4.12200E-09  4.66495E-09  4.11853E-09  4.11273E-09  4.04734E-09  4.13581E-09  4.44916E-09  5.42960E-09  5.87826E-09
   6.94281E-09  7.52005E-09  9.57139E-09  1.10913E-08  1.17535E-08  1.05662E-08  8.99519E-09  6.35086E-09  5.02355E-09  4.76175E-09
   4.48926E-09  3.72546E-09  3.84241E-09  4.41722E-09  3.79194E-09  4.43804E-09  5.69584E-09  6.27980E-09  8.63032E-09  1.20202E-08
   1.40715E-08  1.39550E-08  1.28012E-08  1.06717E-08  8.78380E-09  7.35805E-09  6.68081E-09  6.27145E-09  5.64500E-09  5.81233E-09
   5.08274E-09  4.43221E-09  4.25510E-09  3.95581E-09  3.33902E-09  3.11013E-09  2.58425E-09  3.12854E-09  2.57524E-09  2.48835E-09
   3.07726E-09  2.68865E-09  3.28535E-09  3.47553E-09  3.66108E-09  2.81076E-09  2.91503E-09  2.88329E-09  2.21168E-09  2.16587E-09
   1.83778E-09  1.24477E-09  1.11332E-09  2.23151E-09  2.92182E-09  2.91320E-09  2.76575E-09  2.98169E-09  2.45184E-09  2.98674E-09
   3.11007E-09  2.63292E-09  2.57076E-09  2.54719E-09  1.81429E-09  1.43842E-09  1.27590E-09  1.11762E-09  1.93023E-09  2.42974E-09
   2.42954E-09  2.38142E-09  2.40211E-09  2.54317E-09  2.88678E-09  2.84316E-09  2.49291E-09  2.71815E-09  2.26664E-09  3.31828E-09
   4.26306E-09  5.09555E-09  5.04649E-09  4.36010E-09  4.80019E-09  4.87338E-09  5.84564E-09  5.57198E-09  5.74724E-09  6.14095E-09
   5.39389E-09  6.16397E-09  6.13227E-09  5.85141E-09  5.76750E-09  6.16847E-09  6.33486E-09  6.40330E-09  6.41693E-09  6.74018E-09
   6.57453E-09  7.38329E-09  7.64225E-09  7.60654E-09  7.43694E-09  8.19034E-09  7.82241E-09  9.37110E-09  1.06001E-08  1.22364E-08
   1.55856E-08  1.84681E-08  2.08392E-08  2.07951E-08  1.81915E-08  1.55087E-08  1.37194E-08  1.20751E-08  1.11323E-08  9.94274E-09
   9.01031E-09  8.77002E-09  7.80130E-09  7.26062E-09  6.23071E-09  5.84350E-09  4.57853E-09  4.34832E-09  3.15017E-09  2.60325E-09
   1.42019E-09  1.74716E-11 -1.38966E-09 -2.19809E-09 -3.52954E-09 -5.35766E-09 -7.13089E-09 -9.00322E-09 -1.09741E-08 -1.30085E-08
  -1.53168E-08 -1.69051E-08 -1.81907E-08 -1.99010E-08 -2.06989E-08 -2.17912E-08 -2.21669E-08 -2.18823E-08 -2.10049E-08 -2.01546E-08
  -1.87002E-08 -1.66658E-08 -1.51488E-08 -1.26829E-08 -1.07402E-08 -7.75193E-09 -6.55692E-09 -4.29553E-09 -2.85012E-09 -1.43980E-09
  -8.77339E-10 -3.68260E-10 -1.23606E-09  2.59370E-10 -1.15284E-09 -1.09512E-09 -2.05162E-09 -1.52193E-09 -1.50437E-09 -5.94151E-10
  -1.16432E-09 -6.81325E-10 -4.33846E-10  2.15492E-10 -1.28344E-09 -8.11386E-10 -1.10126E-09 -7.91318E-10 -1.33103E-09 -6.99223E-10
  -8.38600E-10 -2.38176E-10 -1.94140E-10 -1.09857E-10 -5.29209E-10  2.39189E-10 -6.63766E-10 -8.31363E-11 -7.94674E-10 -4.69730E-10
  -1.18144E-09 -2.89607E-10 -6.23180E-10 -1.82794E-10 -5.61385E-10  5.98601E-10  1.15397E-10  9.80654E-10  1.44570E-10  1.13683E-09
  -1.59223E-10  2.57569E-10 -3.48392E-10 -3.08333E-10 -1.29380E-09 -6.51541E-10 -8.29782E-10 -7.92033E-10 -9.43799E-10 -1.09823E-10
  -1.86290E-10  1.62699E-10 -6.52208E-10  9.43433E-10  2.15504E-10  7.81667E-10  7.96404E-10  7.48114E-10  2.71026E-10  1.00379E-09
   5.39054E-10  6.74633E-10 -5.60834E-11  4.49636E-10 -1.62376E-10  1.02719E-09 -1.05977E-10  1.77106E-10 -4.71987E-10  1.60369E-11
  -1.76211E-11  4.13897E-10  1.09312E-10  5.06593E-11 -4.33312E-10  2.75459E-10 -6.62087E-11  2.52757E-10 -2.56287E-10  6.45923E-10
  -7.12653E-10 -1.75094E-10 -7.18053E-10 -1.44362E-10 -5.40901E-10  9.85066E-11 -8.52474E-10  4.36785E-10 -6.60174E-10 -5.15372E-10
  -1.00316E-09 -3.31776E-10 -8.70014E-10  2.25739E-11 -1.00183E-09 -4.33027E-10 -6.94045E-10 -2.52393E-10 -1.01892E-09 -3.96969E-10
  -7.17874E-10 -2.74609E-10 -8.34508E-10 -3.73339E-10 -8.99344E-10 -7.93351E-10 -8.18201E-10 -3.53774E-10 -1.13639E-09 -1.16424E-09
  -9.90577E-10 -3.58953E-10 -1.17466E-09 -6.31491E-10 -9.11576E-10 -1.23845E-10 -8.71008E-10 -5.94224E-10 -1.37791E-09 -8.09954E-10
  -1.50805E-09 -7.40394E-10 -1.17341E-09 -6.64842E-10 -9.52993E-10 -5.49063E-10 -1.21968E-09 -7.34972E-10 -1.84738E-09 -7.52123E-10
  -1.50720E-09 -1.06932E-09 -8.23491E-10 -8.25578E-10 -1.63453E-09 -7.03972E-10 -1.50897E-09 -1.27807E-09 -1.34170E-09 -1.11573E-09
  -1.10794E-09 -7.90032E-10 -1.80806E-09
 NY points of the fit to the data follow
   1.67310E-08  1.49144E-08  1.29292E-08  1.16403E-08  1.10590E-08  1.01444E-08  8.84722E-09  7.78474E-09  7.60818E-09  7.95827E-09
   8.26313E-09  8.52125E-09  8.96774E-09  9.06466E-09  9.11219E-09  8.99563E-09  8.81096E-09  8.53577E-09  7.82073E-09  6.60890E-09
   6.23614E-09  6.38924E-09  6.64725E-09  7.02646E-09  7.60806E-09  8.08889E-09  8.43794E-09  8.42165E-09  8.11736E-09  7.78030E-09
   7.47114E-09  7.24411E-09  7.08873E-09  6.59272E-09  5.79522E-09  5.06295E-09  4.93832E-09  4.86103E-09  4.70496E-09  4.48641E-09
   4.16356E-09  3.60353E-09  2.84406E-09  2.45166E-09  2.42867E-09  2.48718E-09  2.55909E-09  2.63353E-09  2.73359E-09  2.84781E-09
   2.99551E-09  3.16735E-09  3.37855E-09  3.61300E-09  3.95838E-09  4.52635E-09  5.13556E-09  5.82002E-09  6.73118E-09  7.57723E-09
   8.16736E-09  8.64701E-09  9.02630E-09  9.12686E-09  8.90540E-09  8.33079E-09  7.62873E-09  7.02231E-09  6.10236E-09  5.13712E-09
   4.72857E-09  4.61611E-09  4.51883E-09  4.65934E-09  5.12325E-09  5.86287E-09  6.73491E-09  8.08108E-09  9.42552E-09  1.05303E-08
   1.13533E-08  1.17981E-08  1.16494E-08  1.11319E-08  1.04358E-08  9.36859E-09  8.06608E-09  6.65020E-09  4.97614E-09  4.19298E-09
   3.81858E-09  3.60010E-09  3.45783E-09  3.35730E-09  3.28825E-09  3.23868E-09  3.20185E-09  3.17704E-09  3.16116E-09  3.15235E-09
   3.14888E-09  3.14951E-09  3.15370E-09  3.16096E-09  3.17089E-09  3.18319E-09  3.19740E-09  3.21329E-09  3.23070E-09  3.24949E-09
   3.26954E-09  3.29074E-09  3.31301E-09  3.33619E-09  3.36009E-09  3.38451E-09  3.40929E-09  3.43424E-09  3.45920E-09  3.48400E-09
   3.50850E-09  3.53252E-09  3.55593E-09  3.57858E-09  3.60031E-09  3.62099E-09  3.64048E-09  3.65864E-09  3.67534E-09  3.69043E-09
   3.70378E-09  3.71527E-09  3.72476E-09  3.73213E-09  3.73725E-09  3.73999E-09  3.74023E-09  3.73786E-09  3.73275E-09  3.72479E-09
   3.71387E-09  3.69988E-09  3.68269E-09  3.66219E-09  3.63829E-09  3.61087E-09  3.57987E-09  3.54519E-09  3.50680E-09  3.46464E-09
   3.41872E-09  3.36907E-09  3.31576E-09  3.25894E-09  3.19884E-09  3.13583E-09  3.07047E-09  3.00356E-09  2.93637E-09  2.87081E-09
   2.80995E-09  2.75887E-09  2.72654E-09  2.73029E-09  2.80850E-09  3.06682E-09  3.93252E-09  6.85659E-09  1.06263E-08  1.40800E-08
   1.70539E-08  1.94140E-08  2.07408E-08  2.07562E-08  1.96842E-08  1.79127E-08  1.50786E-08  1.03133E-08  4.38370E-09  1.39335E-09
   3.43739E-10 -2.42886E-10 -6.60775E-10 -9.98591E-10 -1.29165E-09 -1.55660E-09 -1.80209E-09 -2.03294E-09 -2.25192E-09 -2.46066E-09
  -2.66006E-09 -2.85061E-09 -3.03247E-09 -3.20562E-09 -3.36993E-09 -3.52515E-09 -3.67108E-09 -3.80789E-09 -3.93582E-09 -4.05505E-09
  -4.16574E-09 -4.26804E-09 -4.36208E-09 -4.44800E-09 -4.52589E-09 -4.59588E-09 -4.65805E-09 -4.71252E-09 -4.75936E-09 -4.79866E-09
  -4.83053E-09 -4.85503E-09 -4.87224E-09 -4.88227E-09 -4.88516E-09 -4.88102E-09 -4.86991E-09 -4.85191E-09 -4.82709E-09 -4.79553E-09
  -4.75730E-09 -4.71248E-09 -4.66113E-09 -4.60332E-09 -4.53923E-09 -4.46919E-09 -4.39353E-09 -4.31263E-09 -4.22684E-09 -4.13650E-09
  -4.04199E-09 -3.94364E-09 -3.84182E-09 -3.73687E-09 -3.62915E-09 -3.51902E-09 -3.40683E-09 -3.29294E-09 -3.17767E-09 -3.06142E-09
  -2.94453E-09 -2.82733E-09 -2.71019E-09 -2.59348E-09 -2.47751E-09 -2.36267E-09 -2.24930E-09 -2.13775E-09 -2.02838E-09 -1.92154E-09
  -1.81757E-09 -1.71686E-09 -1.61955E-09 -1.52562E-09 -1.43503E-09 -1.34773E-09 -1.26366E-09 -1.18278E-09 -1.10503E-09 -1.03036E-09
  -9.58746E-10 -8.90105E-10 -8.24412E-10 -7.61599E-10 -7.01633E-10 -6.44455E-10 -5.89998E-10 -5.38253E-10 -4.89149E-10 -4.42627E-10
  -3.98641E-10 -3.57157E-10 -3.18104E-10 -2.81441E-10 -2.47134E-10 -2.15098E-10 -1.85323E-10 -1.57734E-10 -1.32294E-10 -1.08939E-10
  -8.76293E-11 -6.83167E-11 -5.09483E-11 -3.54728E-11 -2.18496E-11 -1.00204E-11  5.63438E-14  8.43658E-12  1.51674E-11  2.02940E-11
   2.38704E-11  2.59437E-11  2.65642E-11  2.57805E-11  2.36404E-11  2.01964E-11  1.54950E-11  9.58739E-12  2.51671E-12 -5.65470E-12
  -1.48934E-11 -2.51383E-11 -3.63428E-11 -4.84659E-11 -6.14487E-11 -7.52444E-11 -8.98074E-11 -1.05082E-10 -1.21040E-10 -1.37651E-10
  -1.54887E-10 -1.72722E-10 -1.91128E-10 -2.10076E-10 -2.29539E-10 -2.49490E-10 -2.69900E-10 -2.90743E-10 -3.11992E-10 -3.33616E-10
  -3.55591E-10 -3.77887E-10 -4.00477E-10 -4.23334E-10 -4.46429E-10 -4.69737E-10 -4.93228E-10 -5.16874E-10 -5.40649E-10 -5.64526E-10
  -5.88475E-10 -6.12470E-10 -6.36482E-10 -6.60486E-10 -6.84452E-10 -7.08356E-10 -7.32193E-10 -7.55969E-10 -7.79684E-10 -8.03344E-10
  -8.26953E-10 -8.50512E-10 -8.74026E-10 -8.97499E-10 -9.20935E-10 -9.44335E-10 -9.67706E-10 -9.91048E-10 -1.01437E-09 -1.03767E-09
  -1.06095E-09 -1.08422E-09 -1.10747E-09 -1.13073E-09 -1.15398E-09 -1.17723E-09 -1.20048E-09 -1.22375E-09 -1.24702E-09 -1.27031E-09
  -1.29362E-09 -1.31695E-09 -1.34030E-09
 NY background values follow
    -4.838E-10   -4.563E-10   -4.289E-10   -4.014E-10   -3.739E-10   -3.463E-10   -3.188E-10   -2.912E-10   -2.637E-10   -2.361E-10
    -2.086E-10   -1.811E-10   -1.536E-10   -1.262E-10   -9.883E-11   -7.150E-11   -4.422E-11   -1.701E-11    1.013E-11    3.720E-11
     6.418E-11    9.107E-11    1.179E-10    1.445E-10    1.711E-10    1.976E-10    2.239E-10    2.501E-10    2.761E-10    3.021E-10
     3.278E-10    3.535E-10    3.790E-10    4.044E-10    4.297E-10    4.549E-10    4.800E-10    5.051E-10    5.300E-10    5.549E-10
     5.797E-10    6.044E-10    6.291E-10    6.537E-10    6.783E-10    7.029E-10    7.274E-10    7.520E-10    7.765E-10    8.010E-10
     8.255E-10    8.500E-10    8.746E-10    8.991E-10    9.237E-10    9.483E-10    9.730E-10    9.977E-10    1.023E-09    1.047E-09
     1.072E-09    1.097E-09    1.122E-09    1.147E-09    1.172E-09    1.197E-09    1.222E-09    1.247E-09    1.272E-09    1.298E-09
     1.323E-09    1.348E-09    1.373E-09    1.399E-09    1.424E-09    1.449E-09    1.475E-09    1.500E-09    1.526E-09    1.551E-09
     1.576E-09    1.602E-09    1.627E-09    1.653E-09    1.678E-09    1.704E-09    1.729E-09    1.755E-09    1.780E-09    1.806E-09
     1.832E-09    1.858E-09    1.884E-09    1.910E-09    1.936E-09    1.962E-09    1.988E-09    2.015E-09    2.042E-09    2.068E-09
     2.096E-09    2.123E-09    2.150E-09    2.178E-09    2.206E-09    2.234E-09    2.262E-09    2.291E-09    2.320E-09    2.349E-09
     2.379E-09    2.408E-09    2.439E-09    2.469E-09    2.500E-09    2.530E-09    2.560E-09    2.590E-09    2.620E-09    2.649E-09
     2.678E-09    2.706E-09    2.732E-09    2.758E-09    2.783E-09    2.806E-09    2.828E-09    2.848E-09    2.867E-09    2.884E-09
     2.899E-09    2.912E-09    2.922E-09    2.931E-09    2.937E-09    2.940E-09    2.941E-09    2.938E-09    2.933E-09    2.925E-09
     2.913E-09    2.899E-09    2.880E-09    2.858E-09    2.833E-09    2.803E-09    2.769E-09    2.731E-09    2.689E-09    2.642E-09
     2.590E-09    2.534E-09    2.473E-09    2.406E-09    2.335E-09    2.258E-09    2.175E-09    2.087E-09    1.993E-09    1.893E-09
     1.787E-09    1.675E-09    1.556E-09    1.431E-09    1.299E-09    1.161E-09    1.015E-09    8.623E-10    7.024E-10    5.358E-10
     3.630E-10    1.845E-10    1.019E-12   -1.870E-10   -3.790E-10   -5.744E-10   -7.726E-10   -9.731E-10   -1.175E-09   -1.379E-09
    -1.583E-09   -1.787E-09   -1.990E-09   -2.193E-09   -2.394E-09   -2.593E-09   -2.789E-09   -2.981E-09   -3.170E-09   -3.355E-09
    -3.534E-09   -3.708E-09   -3.876E-09   -4.038E-09   -4.192E-09   -4.338E-09   -4.476E-09   -4.606E-09   -4.728E-09   -4.842E-09
    -4.948E-09   -5.046E-09   -5.136E-09   -5.218E-09   -5.293E-09   -5.360E-09   -5.420E-09   -5.471E-09   -5.516E-09   -5.553E-09
    -5.583E-09   -5.606E-09   -5.621E-09   -5.629E-09   -5.631E-09   -5.625E-09   -5.613E-09   -5.593E-09   -5.567E-09   -5.535E-09
    -5.495E-09   -5.449E-09   -5.397E-09   -5.338E-09   -5.273E-09   -5.202E-09   -5.126E-09   -5.044E-09   -4.957E-09   -4.866E-09
    -4.771E-09   -4.672E-09   -4.569E-09   -4.464E-09   -4.355E-09   -4.245E-09   -4.132E-09   -4.017E-09   -3.902E-09   -3.785E-09
    -3.667E-09   -3.550E-09   -3.432E-09   -3.315E-09   -3.198E-09   -3.083E-09   -2.969E-09   -2.857E-09   -2.747E-09   -2.640E-09
    -2.536E-09   -2.434E-09   -2.337E-09   -2.242E-09   -2.151E-09   -2.064E-09   -1.979E-09   -1.898E-09   -1.820E-09   -1.745E-09
    -1.673E-09   -1.604E-09   -1.538E-09   -1.474E-09   -1.414E-09   -1.357E-09   -1.302E-09   -1.250E-09   -1.200E-09   -1.153E-09
    -1.109E-09   -1.067E-09   -1.028E-09   -9.908E-10   -9.562E-10   -9.238E-10   -8.937E-10   -8.658E-10   -8.400E-10   -8.163E-10
    -7.947E-10   -7.751E-10   -7.574E-10   -7.416E-10   -7.277E-10   -7.155E-10   -7.052E-10   -6.965E-10   -6.894E-10   -6.840E-10
    -6.801E-10   -6.777E-10   -6.768E-10   -6.773E-10   -6.791E-10   -6.823E-10   -6.867E-10   -6.923E-10   -6.991E-10   -7.069E-10
    -7.159E-10   -7.258E-10   -7.367E-10   -7.485E-10   -7.612E-10   -7.747E-10   -7.890E-10   -8.040E-10   -8.196E-10   -8.359E-10
    -8.529E-10   -8.704E-10   -8.885E-10   -9.072E-10   -9.263E-10   -9.460E-10   -9.661E-10   -9.866E-10   -1.008E-09   -1.029E-09
    -1.051E-09   -1.073E-09   -1.095E-09   -1.117E-09   -1.140E-09   -1.163E-09   -1.186E-09   -1.210E-09   -1.233E-09   -1.257E-09
    -1.280E-09   -1.304E-09   -1.328E-09   -1.351E-09   -1.375E-09   -1.399E-09   -1.422E-09   -1.446E-09   -1.469E-09   -1.492E-09
    -1.516E-09   -1.539E-09   -1.562E-09   -1.585E-09   -1.608E-09   -1.631E-09   -1.655E-09   -1.678E-09   -1.701E-09   -1.724E-09
    -1.746E-09   -1.769E-09   -1.792E-09   -1.815E-09   -1.838E-09   -1.861E-09   -1.884E-09   -1.907E-09   -1.930E-09   -1.953E-09
    -1.976E-09   -1.999E-09   -2.022E-09
 Asp      Conc. = 6.44E-11
  -4.09090E-10 -3.91987E-10 -3.73201E-10 -3.55924E-10 -3.36198E-10 -3.18088E-10 -2.99269E-10 -2.78229E-10 -2.53750E-10 -2.27948E-10
  -2.01521E-10 -1.74742E-10 -1.47731E-10 -1.20561E-10 -9.33799E-11 -6.62010E-11 -3.90308E-11 -1.18846E-11  1.52276E-11  4.22956E-11
   6.93094E-11  9.62626E-11  1.23144E-10  1.49954E-10  1.76688E-10  2.03336E-10  2.29905E-10  2.56396E-10  2.82811E-10  3.09162E-10
   3.35481E-10  3.61809E-10  3.88207E-10  4.14780E-10  4.41714E-10  4.69437E-10  4.98943E-10  5.28538E-10  5.59017E-10  5.88212E-10
   6.15933E-10  6.42699E-10  6.70472E-10  7.00843E-10  7.35074E-10  7.73181E-10  8.07829E-10  8.38900E-10  8.73831E-10  9.06628E-10
   9.37832E-10  9.65196E-10  9.87173E-10  1.00128E-09  1.00891E-09  1.01548E-09  1.02803E-09  1.05104E-09  1.07037E-09  1.08452E-09
   1.10493E-09  1.12650E-09  1.14736E-09  1.17134E-09  1.19622E-09  1.21866E-09  1.23896E-09  1.26126E-09  1.28456E-09  1.30841E-09
   1.33261E-09  1.35706E-09  1.38168E-09  1.40644E-09  1.43131E-09  1.45627E-09  1.48131E-09  1.50641E-09  1.53156E-09  1.55676E-09
   1.58200E-09  1.60728E-09  1.63258E-09  1.65791E-09  1.68326E-09  1.70864E-09  1.73405E-09  1.75950E-09  1.78502E-09  1.81059E-09
   1.83625E-09  1.86199E-09  1.88783E-09  1.91378E-09  1.93985E-09  1.96605E-09  1.99239E-09  2.01888E-09  2.04554E-09  2.07237E-09
   2.09939E-09  2.12660E-09  2.15403E-09  2.18167E-09  2.20955E-09  2.23766E-09  2.26603E-09  2.29467E-09  2.32358E-09  2.35277E-09
   2.38227E-09  2.41208E-09  2.44220E-09  2.47256E-09  2.50305E-09  2.53352E-09  2.56386E-09  2.59393E-09  2.62361E-09  2.65276E-09
   2.68126E-09  2.70898E-09  2.73579E-09  2.76156E-09  2.78617E-09  2.80949E-09  2.83139E-09  2.85173E-09  2.87040E-09  2.88726E-09
   2.90219E-09  2.91505E-09  2.92573E-09  2.93408E-09  2.93999E-09  2.94332E-09  2.94395E-09  2.94174E-09  2.93658E-09  2.92833E-09
   2.91685E-09  2.90202E-09  2.88369E-09  2.86171E-09  2.83595E-09  2.80626E-09  2.77249E-09  2.73450E-09  2.69214E-09  2.64528E-09
   2.59377E-09  2.53747E-09  2.47623E-09  2.40991E-09  2.33838E-09  2.26148E-09  2.17908E-09  2.09105E-09  1.99725E-09  1.89754E-09
   1.79181E-09  1.67995E-09  1.56189E-09  1.43760E-09  1.30727E-09  1.17167E-09  1.03491E-09  9.07430E-10  7.73989E-10  6.30665E-10
   4.78023E-10  3.15212E-10  1.39490E-10 -4.96991E-11 -2.49245E-10 -4.56329E-10 -6.74946E-10 -9.10321E-10 -1.15086E-09 -1.36473E-09
  -1.57266E-09 -1.77873E-09 -1.98351E-09 -2.18683E-09 -2.38830E-09 -2.58745E-09 -2.78378E-09 -2.97676E-09 -3.16584E-09 -3.35048E-09
  -3.53014E-09 -3.70427E-09 -3.87232E-09 -4.03370E-09 -4.18790E-09 -4.33434E-09 -4.47261E-09 -4.60268E-09 -4.72463E-09 -4.83853E-09
  -4.94444E-09 -5.04244E-09 -5.13259E-09 -5.21497E-09 -5.28964E-09 -5.35667E-09 -5.41612E-09 -5.46808E-09 -5.51260E-09 -5.54976E-09
  -5.57962E-09 -5.60225E-09 -5.61772E-09 -5.62610E-09 -5.62746E-09 -5.62186E-09 -5.60938E-09 -5.59008E-09 -5.56404E-09 -5.53131E-09
  -5.49197E-09 -5.44608E-09 -5.39372E-09 -5.33496E-09 -5.26994E-09 -5.19901E-09 -5.12251E-09 -5.04079E-09 -4.95421E-09 -4.86311E-09
  -4.76787E-09 -4.66881E-09 -4.56631E-09 -4.46070E-09 -4.35234E-09 -4.24159E-09 -4.12879E-09 -4.01431E-09 -3.89847E-09 -3.78167E-09
  -3.66423E-09 -3.54650E-09 -3.42885E-09 -3.31162E-09 -3.19517E-09 -3.07984E-09 -2.96599E-09 -2.85398E-09 -2.74415E-09 -2.63688E-09
  -2.53247E-09 -2.43132E-09 -2.33359E-09 -2.23925E-09 -2.14825E-09 -2.06054E-09 -1.97607E-09 -1.89480E-09 -1.81667E-09 -1.74162E-09
  -1.66963E-09 -1.60062E-09 -1.53455E-09 -1.47138E-09 -1.41105E-09 -1.35352E-09 -1.29871E-09 -1.24662E-09 -1.19717E-09 -1.15030E-09
  -1.10598E-09 -1.06416E-09 -1.02477E-09 -9.87779E-10 -9.53144E-10 -9.20782E-10 -8.90683E-10 -8.62773E-10 -8.37013E-10 -8.13340E-10
  -7.91715E-10 -7.72088E-10 -7.54406E-10 -7.38620E-10 -7.24686E-10 -7.12549E-10 -7.02164E-10 -6.93478E-10 -6.86442E-10 -6.81011E-10
  -6.77131E-10 -6.74755E-10 -6.73833E-10 -6.74315E-10 -6.76155E-10 -6.79299E-10 -6.83701E-10 -6.89310E-10 -6.96083E-10 -7.03956E-10
  -7.12897E-10 -7.22845E-10 -7.33752E-10 -7.45579E-10 -7.58265E-10 -7.71764E-10 -7.86030E-10 -8.01008E-10 -8.16669E-10 -8.32983E-10
  -8.49923E-10 -8.67460E-10 -8.85569E-10 -9.04219E-10 -9.23385E-10 -9.43037E-10 -9.63149E-10 -9.83693E-10 -1.00464E-09 -1.02597E-09
  -1.04764E-09 -1.06964E-09 -1.09192E-09 -1.11448E-09 -1.13727E-09 -1.16028E-09 -1.18346E-09 -1.20680E-09 -1.23027E-09 -1.25384E-09
  -1.27748E-09 -1.30117E-09 -1.32487E-09 -1.34857E-09 -1.37222E-09 -1.39581E-09 -1.41934E-09 -1.44280E-09 -1.46620E-09 -1.48954E-09
  -1.51283E-09 -1.53607E-09 -1.55926E-09 -1.58241E-09 -1.60553E-09 -1.62860E-09 -1.65165E-09 -1.67466E-09 -1.69765E-09 -1.72062E-09
  -1.74357E-09 -1.76650E-09 -1.78943E-09 -1.81234E-09 -1.83525E-09 -1.85817E-09 -1.88108E-09 -1.90400E-09 -1.92693E-09 -1.94987E-09
  -1.97283E-09 -1.99581E-09 -2.01881E-09
 Cr       Conc. = 4.69E-10
   1.21764E-09  9.40881E-10  4.59013E-10 -4.57347E-11 -1.61088E-10 -1.88260E-10 -1.88782E-10 -1.77970E-10 -1.61310E-10 -1.41238E-10
  -1.19008E-10 -9.53157E-11 -7.05825E-11 -4.50660E-11 -1.89378E-11  7.69846E-12  3.47787E-11  6.22705E-11  9.01762E-11  1.18525E-10
   1.47380E-10  1.76849E-10  2.07097E-10  2.38392E-10  2.71146E-10  3.06027E-10  3.44203E-10  3.87842E-10  4.41495E-10  5.16691E-10
   6.53441E-10  1.06181E-09  1.64171E-09  2.18757E-09  2.66577E-09  3.06452E-09  3.32906E-09  3.41021E-09  3.32815E-09  3.14501E-09
   2.83376E-09  2.26406E-09  1.46540E-09  1.00630E-09  8.95760E-10  8.62070E-10  8.55016E-10  8.60070E-10  8.71579E-10  8.86901E-10
   9.04647E-10  9.24028E-10  9.44556E-10  9.65926E-10  9.87928E-10  1.01043E-09  1.03333E-09  1.05656E-09  1.08006E-09  1.10379E-09
   1.12770E-09  1.15178E-09  1.17601E-09  1.20035E-09  1.22481E-09  1.24937E-09  1.27401E-09  1.29874E-09  1.32353E-09  1.34839E-09
   1.37331E-09  1.39829E-09  1.42331E-09  1.44838E-09  1.47349E-09  1.49865E-09  1.52383E-09  1.54905E-09  1.57430E-09  1.59957E-09
   1.62487E-09  1.65019E-09  1.67554E-09  1.70090E-09  1.72627E-09  1.75166E-09  1.77709E-09  1.80255E-09  1.82807E-09  1.85365E-09
   1.87931E-09  1.90505E-09  1.93089E-09  1.95683E-09  1.98289E-09  2.00908E-09  2.03542E-09  2.06190E-09  2.08855E-09  2.11538E-09
   2.14238E-09  2.16959E-09  2.19701E-09  2.22464E-09  2.25250E-09  2.28061E-09  2.30897E-09  2.33760E-09  2.36650E-09  2.39569E-09
   2.42518E-09  2.45497E-09  2.48509E-09  2.51544E-09  2.54592E-09  2.57639E-09  2.60672E-09  2.63679E-09  2.66646E-09  2.69560E-09
   2.72410E-09  2.75182E-09  2.77863E-09  2.80440E-09  2.82901E-09  2.85233E-09  2.87422E-09  2.89457E-09  2.91325E-09  2.93012E-09
   2.94505E-09  2.95792E-09  2.96861E-09  2.97698E-09  2.98290E-09  2.98625E-09  2.98691E-09  2.98473E-09  2.97960E-09  2.97139E-09
   2.95995E-09  2.94517E-09  2.92690E-09  2.90500E-09  2.87932E-09  2.84971E-09  2.81605E-09  2.77818E-09  2.73598E-09  2.68929E-09
   2.63798E-09  2.58191E-09  2.52096E-09  2.45499E-09  2.38388E-09  2.30750E-09  2.22574E-09  2.13852E-09  2.04576E-09  1.94742E-09
   1.84354E-09  1.73426E-09  1.61999E-09  1.50166E-09  1.38177E-09  1.26835E-09  1.20131E-09  1.23190E-09  1.25827E-09  1.25548E-09
   1.22348E-09  1.15060E-09  1.01513E-09  8.13085E-10  5.64126E-10  2.79104E-10 -7.72511E-11 -5.34453E-10 -9.85688E-10 -1.25532E-09
  -1.48566E-09 -1.70358E-09 -1.91562E-09 -2.12381E-09 -2.32873E-09 -2.53045E-09 -2.72875E-09 -2.92329E-09 -3.11363E-09 -3.29930E-09
  -3.47982E-09 -3.65468E-09 -3.82334E-09 -3.98526E-09 -4.13992E-09 -4.28678E-09 -4.42540E-09 -4.55579E-09 -4.67803E-09 -4.79218E-09
  -4.89833E-09 -4.99654E-09 -5.08688E-09 -5.16944E-09 -5.24427E-09 -5.31144E-09 -5.37104E-09 -5.42312E-09 -5.46776E-09 -5.50503E-09
  -5.53499E-09 -5.55772E-09 -5.57328E-09 -5.58174E-09 -5.58318E-09 -5.57766E-09 -5.56525E-09 -5.54602E-09 -5.52004E-09 -5.48737E-09
  -5.44809E-09 -5.40226E-09 -5.34996E-09 -5.29124E-09 -5.22628E-09 -5.15539E-09 -5.07894E-09 -4.99726E-09 -4.91072E-09 -4.81967E-09
