 LCModel (Version 6.3-1R) Copyright: S.W. Provencher.          Ref.: Magn. Reson. Med. 30:672-679 (1993).                
 onepulse 25x27_ftSpec_smooth_lcm
 26 lines in following concentration table = NCONC+1
    Conc.  %SD /Cr+PCr  Metabolite                                         
    0.000 999%   0.000 Ala                                                 
 2.83E-10 316%   0.767 Asp                                                 
 3.69E-10  78%   1.000 Cr                                                  
    0.000 999%   0.000 GABA                                                
    0.000 999%   0.000 Glc                                                 
 2.24E-09  47%   6.073 Gln                                                 
 1.78E-10 517%   0.481 Glu                                                 
    0.000 999%   0.000 Glyc                                                
    0.000 999%   0.000 GPC                                                 
    0.000 999%   0.000 GSH                                                 
 1.62E-09  34%   4.400 Ins                                                 
    0.000 999%   0.000 Lac                                                 
 1.55E-10 302%   0.421 NAAG                                                
 5.27E-10 109%   1.429 NAA                                                 
 1.91E-10  78%   0.517 PCh                                                 
    0.000 999%   0.000 PCr                                                 
    0.000 999%   0.000 PE                                                  
 3.03E-10 120%   0.821 Scyllo                                              
 3.71E-09  23%  10.064 Ser                                                 
 9.72E-11 999%   0.263 Tau                                                 
 1.91E-10  78%   0.517 GPC+PCh                                             
 6.82E-10  48%   1.850 NAA+NAAG                                            
 1.62E-09  34%   4.400 Ins+Glyc                                            
 3.69E-10  78%   1.000 Cr+PCr                                              
 2.42E-09  30%   6.555 Glu+Gln                                             
   6 lines in following misc. output table
  FWHM = 0.078 ppm    S/N =   3                                            
  Data shift = 0.335 ppm                                                   
  Ph: -74 deg     -35.2 deg/ppm                                            
  alphaB,S = 1.6E-01,   4.2E+01                                            
   16 spline knots.   Ns = 5(1)                                            
  (11) 4 infls.   (11) 1 extrs.                                            
  363 points on ppm-axis = NY
      4.250000     4.238821     4.227641     4.216462     4.205282     4.194103     4.182923     4.171744     4.160564     4.149385
      4.138206     4.127026     4.115847     4.104667     4.093488     4.082308     4.071129     4.059949     4.048770     4.037591
      4.026411     4.015232     4.004052     3.992873     3.981693     3.970514     3.959334     3.948155     3.936975     3.925796
      3.914617     3.903437     3.892258     3.881078     3.869899     3.858719     3.847540     3.836360     3.825181     3.814002
      3.802822     3.791643     3.780463     3.769284     3.758104     3.746925     3.735745     3.724566     3.713387     3.702207
      3.691028     3.679848     3.668669     3.657489     3.646310     3.635130     3.623951     3.612772     3.601592     3.590413
      3.579233     3.568054     3.556874     3.545695     3.534515     3.523336     3.512156     3.500977     3.489798     3.478618
      3.467439     3.456259     3.445080     3.433900     3.422721     3.411541     3.400362     3.389183     3.378003     3.366824
      3.355644     3.344465     3.333285     3.322106     3.310926     3.299747     3.288568     3.277388     3.266209     3.255029
      3.243850     3.232670     3.221491     3.210311     3.199132     3.187953     3.176773     3.165594     3.154414     3.143235
      3.132055     3.120876     3.109696     3.098517     3.087337     3.076158     3.064979     3.053799     3.042620     3.031440
      3.020261     3.009081     2.997902     2.986722     2.975543     2.964364     2.953184     2.942005     2.930825     2.919646
      2.908466     2.897287     2.886107     2.874928     2.863749     2.852569     2.841390     2.830210     2.819031     2.807851
      2.796672     2.785492     2.774313     2.763134     2.751954     2.740775     2.729595     2.718416     2.707236     2.696057
      2.684877     2.673698     2.662519     2.651339     2.640160     2.628980     2.617801     2.606621     2.595442     2.584262
      2.573083     2.561903     2.550724     2.539545     2.528365     2.517186     2.506006     2.494827     2.483647     2.472468
      2.461288     2.450109     2.438930     2.427750     2.416571     2.405391     2.394212     2.383032     2.371853     2.360673
      2.349494     2.338315     2.327135     2.315956     2.304776     2.293597     2.282417     2.271238     2.260058     2.248879
      2.237700     2.226520     2.215341     2.204161     2.192982     2.181802     2.170623     2.159443     2.148264     2.137084
      2.125905     2.114726     2.103546     2.092367     2.081187     2.070008     2.058828     2.047649     2.036469     2.025290
      2.014111     2.002931     1.991752     1.980572     1.969393     1.958213     1.947034     1.935854     1.924675     1.913496
      1.902316     1.891137     1.879957     1.868778     1.857598     1.846419     1.835239     1.824060     1.812881     1.801701
      1.790522     1.779342     1.768163     1.756983     1.745804     1.734624     1.723445     1.712265     1.701086     1.689907
      1.678727     1.667548     1.656368     1.645189     1.634009     1.622830     1.611650     1.600471     1.589292     1.578112
      1.566933     1.555753     1.544574     1.533394     1.522215     1.511035     1.499856     1.488677     1.477497     1.466318
      1.455138     1.443959     1.432779     1.421600     1.410420     1.399241     1.388062     1.376882     1.365703     1.354523
      1.343344     1.332164     1.320985     1.309805     1.298626     1.287446     1.276267     1.265088     1.253908     1.242729
      1.231549     1.220370     1.209190     1.198011     1.186831     1.175652     1.164473     1.153293     1.142114     1.130934
      1.119755     1.108575     1.097396     1.086216     1.075037     1.063858     1.052678     1.041499     1.030319     1.019140
      1.007960     0.996781     0.985601     0.974422     0.963243     0.952063     0.940884     0.929704     0.918525     0.907345
      0.896166     0.884986     0.873807     0.862628     0.851448     0.840269     0.829089     0.817910     0.806730     0.795551
      0.784371     0.773192     0.762012     0.750833     0.739654     0.728474     0.717295     0.706115     0.694936     0.683756
      0.672577     0.661397     0.650218     0.639039     0.627859     0.616680     0.605500     0.594321     0.583141     0.571962
      0.560782     0.549603     0.538424     0.527244     0.516065     0.504885     0.493706     0.482526     0.471347     0.460167
      0.448988     0.437809     0.426629     0.415450     0.404270     0.393091     0.381911     0.370732     0.359552     0.348373
      0.337193     0.326014     0.314835     0.303655     0.292476     0.281296     0.270117     0.258937     0.247758     0.236578
      0.225399     0.214220     0.203040
 NY phased data points follow
   1.77882E-08  2.08219E-08  1.75480E-08  1.74448E-08  1.28132E-08  1.37660E-08  1.07647E-08  1.26270E-08  1.05623E-08  1.21107E-08
   1.00220E-08  1.24740E-08  1.08627E-08  1.28583E-08  1.14870E-08  1.33183E-08  1.14556E-08  1.22914E-08  1.01553E-08  1.20884E-08
   9.52960E-09  1.13976E-08  8.54815E-09  1.01175E-08  8.59655E-09  1.09189E-08  9.91241E-09  1.15280E-08  8.69470E-09  1.01722E-08
   8.10079E-09  1.05260E-08  9.68148E-09  1.27865E-08  1.05769E-08  1.11886E-08  7.73021E-09  8.59813E-09  6.17904E-09  7.29574E-09
   5.29002E-09  6.87261E-09  5.34409E-09  6.44751E-09  4.89931E-09  6.42194E-09  4.94398E-09  5.95741E-09  3.43225E-09  5.96666E-09
   4.21866E-09  6.03839E-09  4.91438E-09  6.57431E-09  4.98680E-09  6.28291E-09  4.18148E-09  5.95331E-09  5.11749E-09  6.89320E-09
   5.94015E-09  7.90255E-09  6.89394E-09  9.85489E-09  1.04158E-08  1.29072E-08  9.79500E-09  9.74772E-09  6.78138E-09  7.30061E-09
   4.99520E-09  6.73857E-09  4.43943E-09  5.79077E-09  4.37912E-09  6.60833E-09  4.90095E-09  6.90707E-09  5.67184E-09  9.46150E-09
   1.22380E-08  1.60462E-08  1.53504E-08  1.51006E-08  1.05820E-08  1.08550E-08  8.55225E-09  9.06805E-09  7.15770E-09  8.01049E-09
   6.54143E-09  7.44009E-09  5.68231E-09  6.32848E-09  4.72304E-09  5.26659E-09  4.06114E-09  4.73008E-09  3.52192E-09  5.04156E-09
   3.02904E-09  4.37234E-09  3.56430E-09  5.31380E-09  3.80840E-09  5.04210E-09  3.59437E-09  4.45771E-09  3.46067E-09  3.75961E-09
   1.71907E-09  3.21575E-09  1.20699E-09  2.28352E-09  2.37454E-09  3.90428E-09  2.68173E-09  3.56483E-09  2.67875E-09  3.73597E-09
   2.60696E-09  3.93327E-09  2.37578E-09  3.24900E-09  1.78588E-09  2.20065E-09  7.42237E-10  1.66492E-09  8.81284E-10  2.36866E-09
   1.66752E-09  2.98930E-09  1.53561E-09  2.69900E-09  1.82922E-09  3.17028E-09  2.82218E-09  2.86065E-09  1.78090E-09  3.36708E-09
   3.38219E-09  5.38760E-09  5.58155E-09  6.70170E-09  5.09523E-09  5.97092E-09  5.68515E-09  7.78471E-09  6.76146E-09  7.70315E-09
   6.63262E-09  7.54464E-09  6.31118E-09  7.47009E-09  6.39069E-09  6.89141E-09  6.55396E-09  7.54374E-09  6.89667E-09  7.00089E-09
   7.35467E-09  7.56157E-09  7.53610E-09  8.10543E-09  7.89326E-09  8.60827E-09  7.85485E-09  8.86716E-09  9.84792E-09  1.01277E-08
   1.03516E-08  1.44844E-08  1.88823E-08  2.16014E-08  1.99751E-08  1.75139E-08  1.45706E-08  1.34126E-08  1.13810E-08  1.11138E-08
   8.96529E-09  8.33793E-09  7.20163E-09  6.50035E-09  5.08076E-09  4.61846E-09  2.82771E-09  2.25774E-09  3.64657E-10 -3.31586E-10
  -2.32566E-09 -2.87722E-09 -5.29372E-09 -6.49539E-09 -8.60937E-09 -1.01160E-08 -1.24940E-08 -1.34834E-08 -1.60661E-08 -1.76001E-08
  -1.92302E-08 -2.01084E-08 -2.12227E-08 -2.12345E-08 -2.16183E-08 -2.10685E-08 -2.02895E-08 -1.89451E-08 -1.79053E-08 -1.53467E-08
  -1.39859E-08 -1.16308E-08 -9.76692E-09 -7.79959E-09 -5.92483E-09 -3.99503E-09 -3.17545E-09 -1.92248E-09 -1.86005E-09 -9.80524E-10
  -1.07457E-09 -1.19238E-09 -1.10869E-09 -1.41912E-09 -1.82668E-09 -1.86693E-09 -1.86443E-09 -1.68055E-09 -1.90197E-09 -1.43008E-09
  -1.58487E-09 -1.19119E-09 -1.72351E-09 -6.84067E-10 -9.88860E-10 -1.32476E-09 -1.37293E-09 -1.38183E-09 -1.96513E-09 -1.67538E-09
  -1.46384E-09 -9.14220E-10 -7.45133E-10 -2.98367E-10 -8.07567E-10 -7.62927E-10 -1.45347E-09 -1.39103E-09 -1.23257E-09 -1.21054E-09
  -1.26235E-09 -1.07095E-09 -6.83930E-10 -4.34316E-10 -3.09806E-10 -6.94349E-11 -8.05888E-11  1.84292E-10 -4.59731E-10 -2.73037E-10
  -4.03182E-10 -7.69492E-10 -8.65752E-10 -7.76374E-10 -8.29848E-10 -1.41775E-09 -9.61770E-10 -1.14034E-09 -1.23938E-09 -6.31756E-10
  -5.74461E-10 -7.08309E-10  1.67082E-10 -1.84623E-10  3.53232E-10  2.10506E-10  6.12629E-10  6.02092E-10  1.96602E-11  3.65353E-10
   1.42152E-10 -1.68348E-10  1.36577E-10 -2.45011E-10 -3.70270E-11 -1.05157E-09 -4.60969E-10 -6.71099E-10 -6.53724E-10 -1.09133E-09
  -6.75518E-10 -8.11391E-10 -7.43651E-10 -1.06152E-09 -1.00407E-09 -5.12077E-10 -1.03733E-09 -5.70132E-10 -8.21455E-10 -9.50806E-10
  -9.87911E-10 -8.93653E-10 -8.88523E-10 -8.77817E-10 -6.69720E-10 -4.32038E-10 -1.02810E-09 -1.02854E-09 -3.47270E-10 -8.89969E-10
  -1.21301E-09 -1.13556E-09 -8.26469E-10 -1.22509E-09 -1.02634E-09 -1.36668E-09 -1.04608E-09 -1.48485E-09 -9.62919E-10 -1.16287E-09
  -1.42101E-09 -1.05280E-09 -9.39773E-10 -8.02955E-10 -1.16577E-09 -1.49785E-09 -7.28906E-10 -1.32019E-09 -9.80761E-10 -1.50025E-09
  -9.87814E-10 -1.78017E-09 -8.83319E-10 -1.49776E-09 -1.24351E-09 -1.59336E-09 -1.22304E-09 -1.42049E-09 -8.97890E-10 -1.55111E-09
  -1.64216E-09 -1.71972E-09 -1.13858E-09 -1.82009E-09 -1.12351E-09 -1.63564E-09 -1.43708E-09 -1.58726E-09 -1.49109E-09 -1.40045E-09
  -1.23608E-09 -1.77841E-09 -1.44838E-09 -1.32964E-09 -1.72677E-09 -1.90788E-09 -1.48547E-09 -1.90935E-09 -1.58565E-09 -1.82267E-09
  -1.76547E-09 -2.02501E-09 -1.45378E-09
 NY points of the fit to the data follow
   1.89312E-08  1.81941E-08  1.68394E-08  1.52704E-08  1.47784E-08  1.45131E-08  1.36978E-08  1.24386E-08  1.14963E-08  1.13938E-08
   1.15175E-08  1.13942E-08  1.15803E-08  1.19908E-08  1.25353E-08  1.26207E-08  1.21098E-08  1.18972E-08  1.17472E-08  1.07742E-08
   9.55417E-09  8.95953E-09  9.02756E-09  9.24560E-09  9.70814E-09  1.01902E-08  1.05865E-08  1.07685E-08  1.05523E-08  1.02683E-08
   1.03832E-08  1.04852E-08  1.04717E-08  1.00661E-08  9.27239E-09  8.25794E-09  7.88577E-09  7.78089E-09  7.70859E-09  7.56330E-09
   7.32454E-09  6.89922E-09  6.18698E-09  5.49503E-09  5.18646E-09  5.02795E-09  4.91476E-09  4.82234E-09  4.79596E-09  4.80501E-09
   4.82663E-09  4.83436E-09  4.84448E-09  4.83086E-09  4.86803E-09  5.12583E-09  5.43221E-09  5.80302E-09  6.46845E-09  7.18647E-09
   7.76231E-09  8.33009E-09  8.91828E-09  9.38025E-09  9.56208E-09  9.30689E-09  8.77402E-09  8.31199E-09  7.59209E-09  6.60443E-09
   6.02835E-09  5.75284E-09  5.51120E-09  5.39441E-09  5.48482E-09  5.93380E-09  6.62406E-09  7.73592E-09  8.92899E-09  9.99578E-09
   1.10433E-08  1.20404E-08  1.26496E-08  1.28758E-08  1.28054E-08  1.21409E-08  1.09211E-08  9.48704E-09  7.82640E-09  6.80495E-09
   6.22646E-09  5.83607E-09  5.54785E-09  5.32289E-09  5.13762E-09  4.98141E-09  4.84974E-09  4.73858E-09  4.64093E-09  4.55234E-09
   4.47767E-09  4.41446E-09  4.35734E-09  4.30565E-09  4.26095E-09  4.22254E-09  4.18941E-09  4.16102E-09  4.13684E-09  4.11662E-09
   4.10011E-09  4.08710E-09  4.07739E-09  4.07072E-09  4.06674E-09  4.06512E-09  4.06558E-09  4.06781E-09  4.07153E-09  4.07648E-09
   4.08241E-09  4.08905E-09  4.09617E-09  4.10353E-09  4.11089E-09  4.11802E-09  4.12471E-09  4.13073E-09  4.13586E-09  4.13989E-09
   4.14260E-09  4.14378E-09  4.14324E-09  4.14075E-09  4.13613E-09  4.12915E-09  4.11964E-09  4.10739E-09  4.09222E-09  4.07391E-09
   4.05228E-09  4.02717E-09  3.99840E-09  3.96579E-09  3.92917E-09  3.88841E-09  3.84333E-09  3.79380E-09  3.73969E-09  3.68088E-09
   3.61729E-09  3.54882E-09  3.47546E-09  3.39722E-09  3.31417E-09  3.22648E-09  3.13446E-09  3.03861E-09  2.93974E-09  2.83916E-09
   2.73902E-09  2.64298E-09  2.55759E-09  2.49564E-09  2.48569E-09  2.60639E-09  3.17361E-09  5.45326E-09  8.61287E-09  1.11607E-08
   1.35389E-08  1.63524E-08  1.91786E-08  2.09156E-08  2.09448E-08  1.94832E-08  1.66481E-08  1.18275E-08  5.49050E-09  1.52705E-09
   1.86613E-10 -5.40656E-10 -1.05076E-09 -1.45883E-09 -1.80984E-09 -2.12470E-09 -2.41422E-09 -2.68440E-09 -2.93866E-09 -3.17900E-09
  -3.40655E-09 -3.62189E-09 -3.82523E-09 -4.01651E-09 -4.19556E-09 -4.36206E-09 -4.51580E-09 -4.65711E-09 -4.78643E-09 -4.90411E-09
  -5.01052E-09 -5.10599E-09 -5.19082E-09 -5.26531E-09 -5.32976E-09 -5.38444E-09 -5.42961E-09 -5.46556E-09 -5.49252E-09 -5.51076E-09
  -5.52054E-09 -5.52210E-09 -5.51568E-09 -5.50155E-09 -5.47993E-09 -5.45107E-09 -5.41521E-09 -5.37258E-09 -5.32344E-09 -5.26801E-09
  -5.20653E-09 -5.13924E-09 -5.06637E-09 -4.98816E-09 -4.90488E-09 -4.81684E-09 -4.72439E-09 -4.62785E-09 -4.52756E-09 -4.42385E-09
  -4.31705E-09 -4.20749E-09 -4.09551E-09 -3.98143E-09 -3.86556E-09 -3.74826E-09 -3.62983E-09 -3.51062E-09 -3.39092E-09 -3.27109E-09
  -3.15143E-09 -3.03226E-09 -2.91391E-09 -2.79670E-09 -2.68093E-09 -2.56694E-09 -2.45503E-09 -2.34552E-09 -2.23873E-09 -2.13497E-09
  -2.03453E-09 -1.93775E-09 -1.84476E-09 -1.75550E-09 -1.66993E-09 -1.58796E-09 -1.50954E-09 -1.43459E-09 -1.36304E-09 -1.29483E-09
  -1.22990E-09 -1.16816E-09 -1.10957E-09 -1.05403E-09 -1.00151E-09 -9.51918E-10 -9.05175E-10 -8.61253E-10 -8.20062E-10 -7.81527E-10
  -7.45583E-10 -7.12179E-10 -6.81227E-10 -6.52669E-10 -6.26451E-10 -6.02474E-10 -5.80707E-10 -5.61063E-10 -5.43484E-10 -5.27891E-10
  -5.14233E-10 -5.02451E-10 -4.92484E-10 -4.84274E-10 -4.77769E-10 -4.72905E-10 -4.69630E-10 -4.67882E-10 -4.67605E-10 -4.68747E-10
  -4.71245E-10 -4.75047E-10 -4.80093E-10 -4.86329E-10 -4.93700E-10 -5.02147E-10 -5.11617E-10 -5.22053E-10 -5.33405E-10 -5.45607E-10
  -5.58617E-10 -5.72372E-10 -5.86819E-10 -6.01912E-10 -6.17587E-10 -6.33795E-10 -6.50485E-10 -6.67599E-10 -6.85111E-10 -7.02999E-10
  -7.21244E-10 -7.39823E-10 -7.58720E-10 -7.77911E-10 -7.97378E-10 -8.17102E-10 -8.37062E-10 -8.57239E-10 -8.77613E-10 -8.98166E-10
  -9.18878E-10 -9.39729E-10 -9.60700E-10 -9.81774E-10 -1.00293E-09 -1.02415E-09 -1.04542E-09 -1.06671E-09 -1.08801E-09 -1.10930E-09
  -1.13057E-09 -1.15179E-09 -1.17294E-09 -1.19402E-09 -1.21499E-09 -1.23585E-09 -1.25659E-09 -1.27722E-09 -1.29772E-09 -1.31810E-09
  -1.33836E-09 -1.35851E-09 -1.37853E-09 -1.39843E-09 -1.41821E-09 -1.43788E-09 -1.45742E-09 -1.47684E-09 -1.49613E-09 -1.51531E-09
  -1.53437E-09 -1.55330E-09 -1.57211E-09 -1.59080E-09 -1.60936E-09 -1.62780E-09 -1.64612E-09 -1.66432E-09 -1.68239E-09 -1.70034E-09
  -1.71816E-09 -1.73586E-09 -1.75344E-09
 NY background values follow
     1.412E-09    1.424E-09    1.436E-09    1.449E-09    1.461E-09    1.473E-09    1.486E-09    1.498E-09    1.511E-09    1.524E-09
     1.536E-09    1.549E-09    1.562E-09    1.574E-09    1.587E-09    1.600E-09    1.612E-09    1.625E-09    1.637E-09    1.650E-09
     1.662E-09    1.674E-09    1.687E-09    1.699E-09    1.711E-09    1.723E-09    1.735E-09    1.746E-09    1.758E-09    1.769E-09
     1.780E-09    1.791E-09    1.802E-09    1.813E-09    1.823E-09    1.834E-09    1.844E-09    1.854E-09    1.864E-09    1.874E-09
     1.883E-09    1.893E-09    1.902E-09    1.911E-09    1.920E-09    1.929E-09    1.938E-09    1.947E-09    1.955E-09    1.963E-09
     1.971E-09    1.979E-09    1.987E-09    1.995E-09    2.002E-09    2.009E-09    2.017E-09    2.024E-09    2.031E-09    2.037E-09
     2.044E-09    2.051E-09    2.057E-09    2.063E-09    2.070E-09    2.076E-09    2.082E-09    2.088E-09    2.094E-09    2.100E-09
     2.106E-09    2.112E-09    2.118E-09    2.124E-09    2.130E-09    2.136E-09    2.142E-09    2.148E-09    2.154E-09    2.160E-09
     2.166E-09    2.173E-09    2.179E-09    2.186E-09    2.192E-09    2.199E-09    2.206E-09    2.213E-09    2.220E-09    2.228E-09
     2.236E-09    2.244E-09    2.253E-09    2.262E-09    2.272E-09    2.282E-09    2.293E-09    2.305E-09    2.317E-09    2.330E-09
     2.344E-09    2.358E-09    2.373E-09    2.389E-09    2.407E-09    2.425E-09    2.444E-09    2.464E-09    2.485E-09    2.508E-09
     2.531E-09    2.556E-09    2.582E-09    2.610E-09    2.638E-09    2.667E-09    2.697E-09    2.727E-09    2.758E-09    2.788E-09
     2.819E-09    2.849E-09    2.879E-09    2.909E-09    2.937E-09    2.965E-09    2.991E-09    3.017E-09    3.040E-09    3.062E-09
     3.082E-09    3.100E-09    3.116E-09    3.129E-09    3.140E-09    3.148E-09    3.153E-09    3.155E-09    3.153E-09    3.148E-09
     3.139E-09    3.126E-09    3.109E-09    3.088E-09    3.063E-09    3.032E-09    2.997E-09    2.957E-09    2.912E-09    2.862E-09
     2.806E-09    2.744E-09    2.676E-09    2.603E-09    2.523E-09    2.437E-09    2.344E-09    2.244E-09    2.138E-09    2.024E-09
     1.903E-09    1.775E-09    1.639E-09    1.495E-09    1.344E-09    1.184E-09    1.016E-09    8.388E-10    6.536E-10    4.603E-10
     2.597E-10    5.257E-11   -1.605E-10   -3.786E-10   -6.013E-10   -8.276E-10   -1.057E-09   -1.288E-09   -1.522E-09   -1.756E-09
    -1.990E-09   -2.223E-09   -2.455E-09   -2.685E-09   -2.912E-09   -3.136E-09   -3.355E-09   -3.570E-09   -3.779E-09   -3.981E-09
    -4.177E-09   -4.364E-09   -4.543E-09   -4.713E-09   -4.873E-09   -5.022E-09   -5.160E-09   -5.286E-09   -5.402E-09   -5.507E-09
    -5.602E-09   -5.686E-09   -5.761E-09   -5.826E-09   -5.881E-09   -5.927E-09   -5.963E-09   -5.991E-09   -6.010E-09   -6.021E-09
    -6.024E-09   -6.018E-09   -6.005E-09   -5.985E-09   -5.957E-09   -5.922E-09   -5.880E-09   -5.832E-09   -5.777E-09   -5.716E-09
    -5.649E-09   -5.576E-09   -5.498E-09   -5.415E-09   -5.327E-09   -5.234E-09   -5.137E-09   -5.036E-09   -4.931E-09   -4.823E-09
    -4.712E-09   -4.598E-09   -4.482E-09   -4.363E-09   -4.243E-09   -4.122E-09   -4.000E-09   -3.876E-09   -3.753E-09   -3.629E-09
    -3.506E-09   -3.383E-09   -3.261E-09   -3.140E-09   -3.021E-09   -2.903E-09   -2.788E-09   -2.675E-09   -2.565E-09   -2.458E-09
    -2.354E-09   -2.254E-09   -2.158E-09   -2.065E-09   -1.977E-09   -1.892E-09   -1.810E-09   -1.732E-09   -1.658E-09   -1.586E-09
    -1.519E-09   -1.454E-09   -1.392E-09   -1.334E-09   -1.279E-09   -1.226E-09   -1.177E-09   -1.130E-09   -1.086E-09   -1.045E-09
    -1.006E-09   -9.704E-10   -9.368E-10   -9.057E-10   -8.769E-10   -8.504E-10   -8.261E-10   -8.040E-10   -7.840E-10   -7.659E-10
    -7.499E-10   -7.357E-10   -7.233E-10   -7.128E-10   -7.039E-10   -6.968E-10   -6.912E-10   -6.872E-10   -6.846E-10   -6.835E-10
    -6.838E-10   -6.854E-10   -6.883E-10   -6.923E-10   -6.976E-10   -7.039E-10   -7.112E-10   -7.196E-10   -7.288E-10   -7.390E-10
    -7.499E-10   -7.617E-10   -7.741E-10   -7.872E-10   -8.009E-10   -8.151E-10   -8.298E-10   -8.450E-10   -8.606E-10   -8.765E-10
    -8.929E-10   -9.096E-10   -9.266E-10   -9.439E-10   -9.615E-10   -9.794E-10   -9.976E-10   -1.016E-09   -1.035E-09   -1.053E-09
    -1.072E-09   -1.091E-09   -1.111E-09   -1.130E-09   -1.149E-09   -1.169E-09   -1.188E-09   -1.208E-09   -1.228E-09   -1.247E-09
    -1.267E-09   -1.286E-09   -1.306E-09   -1.325E-09   -1.345E-09   -1.364E-09   -1.383E-09   -1.402E-09   -1.421E-09   -1.440E-09
    -1.459E-09   -1.477E-09   -1.496E-09   -1.514E-09   -1.532E-09   -1.550E-09   -1.569E-09   -1.586E-09   -1.604E-09   -1.622E-09
    -1.640E-09   -1.657E-09   -1.674E-09   -1.692E-09   -1.709E-09   -1.726E-09   -1.743E-09   -1.759E-09   -1.776E-09   -1.793E-09
    -1.809E-09   -1.825E-09   -1.842E-09
 Asp      Conc. = 2.83E-10
   1.71445E-09  1.72002E-09  1.71646E-09  1.70514E-09  1.69366E-09  1.66787E-09  1.64408E-09  1.61401E-09  1.59999E-09  1.59428E-09
   1.59332E-09  1.59538E-09  1.59960E-09  1.60552E-09  1.61246E-09  1.62003E-09  1.62812E-09  1.63662E-09  1.64543E-09  1.65448E-09
   1.66371E-09  1.67305E-09  1.68247E-09  1.69192E-09  1.70137E-09  1.71080E-09  1.72018E-09  1.72949E-09  1.73872E-09  1.74788E-09
   1.75698E-09  1.76607E-09  1.77527E-09  1.78477E-09  1.79508E-09  1.80761E-09  1.82754E-09  1.84888E-09  1.87632E-09  1.90153E-09
   1.92343E-09  1.94422E-09  1.96728E-09  2.00145E-09  2.03826E-09  2.09574E-09  2.14086E-09  2.17424E-09  2.24019E-09  2.32103E-09
   2.40369E-09  2.46569E-09  2.50153E-09  2.50004E-09  2.45855E-09  2.40430E-09  2.34591E-09  2.34133E-09  2.32737E-09  2.28496E-09
   2.26334E-09  2.25480E-09  2.24290E-09  2.24008E-09  2.24656E-09  2.24464E-09  2.22623E-09  2.21474E-09  2.20782E-09  2.20369E-09
   2.20140E-09  2.20045E-09  2.20050E-09  2.20133E-09  2.20280E-09  2.20480E-09  2.20725E-09  2.21009E-09  2.21328E-09  2.21679E-09
   2.22058E-09  2.22465E-09  2.22897E-09  2.23355E-09  2.23836E-09  2.24343E-09  2.24878E-09  2.25444E-09  2.26044E-09  2.26681E-09
   2.27360E-09  2.28083E-09  2.28854E-09  2.29677E-09  2.30555E-09  2.31492E-09  2.32493E-09  2.33560E-09  2.34699E-09  2.35913E-09
   2.37205E-09  2.38581E-09  2.40044E-09  2.41598E-09  2.43248E-09  2.44997E-09  2.46850E-09  2.48811E-09  2.50885E-09  2.53074E-09
   2.55385E-09  2.57821E-09  2.60384E-09  2.63068E-09  2.65854E-09  2.68725E-09  2.71663E-09  2.74650E-09  2.77669E-09  2.80700E-09
   2.83727E-09  2.86730E-09  2.89693E-09  2.92597E-09  2.95423E-09  2.98155E-09  3.00772E-09  3.03257E-09  3.05592E-09  3.07759E-09
   3.09737E-09  3.11511E-09  3.13060E-09  3.14367E-09  3.15412E-09  3.16178E-09  3.16646E-09  3.16797E-09  3.16613E-09  3.16075E-09
   3.15163E-09  3.13862E-09  3.12153E-09  3.10017E-09  3.07438E-09  3.04397E-09  3.00878E-09  2.96861E-09  2.92330E-09  2.87266E-09
   2.81654E-09  2.75473E-09  2.68709E-09  2.61342E-09  2.53358E-09  2.44738E-09  2.35466E-09  2.25528E-09  2.14908E-09  2.03594E-09
   1.91576E-09  1.78849E-09  1.65421E-09  1.51321E-09  1.36652E-09  1.21759E-09  1.08367E-09  1.01214E-09  9.21703E-10  8.02241E-10
   6.84296E-10  5.75294E-10  4.47612E-10  2.66772E-10  2.89728E-11 -2.51461E-10 -5.80491E-10 -9.81995E-10 -1.40173E-09 -1.68840E-09
  -1.94246E-09 -2.18625E-09 -2.42466E-09 -2.65894E-09 -2.88920E-09 -3.11521E-09 -3.33649E-09 -3.55246E-09 -3.76250E-09 -3.96595E-09
  -4.16214E-09 -4.35040E-09 -4.53003E-09 -4.70029E-09 -4.86053E-09 -5.01003E-09 -5.14828E-09 -5.27537E-09 -5.39154E-09 -5.49702E-09
  -5.59203E-09 -5.67679E-09 -5.75154E-09 -5.81649E-09 -5.87188E-09 -5.91793E-09 -5.95487E-09 -5.98292E-09 -6.00231E-09 -6.01327E-09
  -6.01603E-09 -6.01081E-09 -5.99783E-09 -5.97735E-09 -5.94956E-09 -5.91472E-09 -5.87304E-09 -5.82475E-09 -5.77008E-09 -5.70926E-09
  -5.64252E-09 -5.57009E-09 -5.49219E-09 -5.40906E-09 -5.32096E-09 -5.22820E-09 -5.13112E-09 -5.03004E-09 -4.92529E-09 -4.81721E-09
  -4.70611E-09 -4.59233E-09 -4.47619E-09 -4.35802E-09 -4.23813E-09 -4.11687E-09 -3.99454E-09 -3.87149E-09 -3.74800E-09 -3.62444E-09
  -3.50110E-09 -3.37830E-09 -3.25638E-09 -3.13564E-09 -3.01639E-09 -2.89896E-09 -2.78366E-09 -2.67080E-09 -2.56070E-09 -2.45367E-09
  -2.35000E-09 -2.25003E-09 -2.15389E-09 -2.06152E-09 -1.97286E-09 -1.88786E-09 -1.80642E-09 -1.72849E-09 -1.65399E-09 -1.58287E-09
  -1.51505E-09 -1.45046E-09 -1.38905E-09 -1.33072E-09 -1.27543E-09 -1.22310E-09 -1.17365E-09 -1.12705E-09 -1.08320E-09 -1.04203E-09
  -1.00348E-09 -9.67499E-10 -9.33991E-10 -9.02900E-10 -8.74174E-10 -8.47712E-10 -8.23483E-10 -8.01399E-10 -7.81402E-10 -7.63412E-10
  -7.47379E-10 -7.33243E-10 -7.20943E-10 -7.10418E-10 -7.01620E-10 -6.94481E-10 -6.88951E-10 -6.84967E-10 -6.82472E-10 -6.81414E-10
  -6.81732E-10 -6.83370E-10 -6.86270E-10 -6.90377E-10 -6.95636E-10 -7.01988E-10 -7.09380E-10 -7.17754E-10 -7.27060E-10 -7.37231E-10
  -7.48227E-10 -7.59983E-10 -7.72446E-10 -7.85569E-10 -7.99291E-10 -8.13559E-10 -8.28323E-10 -8.43526E-10 -8.59141E-10 -8.75147E-10
  -8.91521E-10 -9.08245E-10 -9.25298E-10 -9.42659E-10 -9.60310E-10 -9.78230E-10 -9.96398E-10 -1.01480E-09 -1.03340E-09 -1.05220E-09
  -1.07117E-09 -1.09029E-09 -1.10954E-09 -1.12891E-09 -1.14837E-09 -1.16791E-09 -1.18750E-09 -1.20713E-09 -1.22678E-09 -1.24643E-09
  -1.26607E-09 -1.28567E-09 -1.30521E-09 -1.32469E-09 -1.34407E-09 -1.36336E-09 -1.38253E-09 -1.40159E-09 -1.42055E-09 -1.43939E-09
  -1.45812E-09 -1.47675E-09 -1.49526E-09 -1.51366E-09 -1.53195E-09 -1.55012E-09 -1.56819E-09 -1.58614E-09 -1.60398E-09 -1.62171E-09
  -1.63932E-09 -1.65682E-09 -1.67421E-09 -1.69148E-09 -1.70864E-09 -1.72568E-09 -1.74261E-09 -1.75942E-09 -1.77612E-09 -1.79270E-09
  -1.80916E-09 -1.82551E-09 -1.84174E-09
 Cr       Conc. = 3.69E-10
   2.95486E-09  2.92584E-09  2.66431E-09  2.18295E-09  1.95326E-09  1.84002E-09  1.77255E-09  1.72820E-09  1.69738E-09  1.67520E-09
   1.65889E-09  1.64671E-09  1.63751E-09  1.63047E-09  1.62501E-09  1.62066E-09  1.61704E-09  1.61384E-09  1.61078E-09  1.60759E-09
   1.60400E-09  1.59972E-09  1.59445E-09  1.58780E-09  1.57934E-09  1.56853E-09  1.55465E-09  1.53685E-09  1.51422E-09  1.48691E-09
   1.46496E-09  1.57181E-09  1.90968E-09  2.24373E-09  2.55129E-09  2.92841E-09  3.39427E-09  3.84496E-09  4.15565E-09  4.29906E-09
   4.29289E-09  4.06062E-09  3.49626E-09  2.89817E-09  2.65852E-09  2.53114E-09  2.45143E-09  2.39698E-09  2.35775E-09  2.32849E-09
   2.30615E-09  2.28882E-09  2.27524E-09  2.26453E-09  2.25608E-09  2.24940E-09  2.24416E-09  2.24010E-09  2.23702E-09  2.23475E-09
   2.23317E-09  2.23218E-09  2.23171E-09  2.23167E-09  2.23203E-09  2.23273E-09  2.23374E-09  2.23502E-09  2.23657E-09  2.23834E-09
   2.24034E-09  2.24254E-09  2.24494E-09  2.24752E-09  2.25029E-09  2.25324E-09  2.25636E-09  2.25965E-09  2.26312E-09  2.26677E-09
   2.27058E-09  2.27459E-09  2.27876E-09  2.28313E-09  2.28769E-09  2.29246E-09  2.29747E-09  2.30277E-09  2.30839E-09  2.31436E-09
   2.32073E-09  2.32753E-09  2.33481E-09  2.34259E-09  2.35093E-09  2.35985E-09  2.36940E-09  2.37963E-09  2.39056E-09  2.40225E-09
   2.41473E-09  2.42804E-09  2.44223E-09  2.45733E-09  2.47339E-09  2.49045E-09  2.50856E-09  2.52775E-09  2.54806E-09  2.56955E-09
   2.59225E-09  2.61620E-09  2.64144E-09  2.66788E-09  2.69536E-09  2.72368E-09  2.75268E-09  2.78218E-09  2.81200E-09  2.84194E-09
   2.87185E-09  2.90154E-09  2.93082E-09  2.95951E-09  2.98743E-09  3.01441E-09  3.04025E-09  3.06478E-09  3.08780E-09  3.10915E-09
   3.12862E-09  3.14605E-09  3.16123E-09  3.17399E-09  3.18415E-09  3.19151E-09  3.19590E-09  3.19712E-09  3.19500E-09  3.18934E-09
   3.17994E-09  3.16666E-09  3.14929E-09  3.12767E-09  3.10162E-09  3.07095E-09  3.03550E-09  2.99508E-09  2.94952E-09  2.89864E-09
   2.84228E-09  2.78024E-09  2.71237E-09  2.63849E-09  2.55844E-09  2.47205E-09  2.37916E-09  2.27963E-09  2.17332E-09  2.06011E-09
   1.93994E-09  1.81281E-09  1.67889E-09  1.53866E-09  1.39366E-09  1.24912E-09  1.13221E-09  1.09160E-09  1.02612E-09  9.28364E-10
   8.36323E-10  7.55558E-10  6.48580E-10  4.73381E-10  2.27394E-10 -7.25330E-11 -4.37305E-10 -8.92409E-10 -1.35333E-09 -1.64996E-09
  -1.90903E-09 -2.15581E-09 -2.39621E-09 -2.63192E-09 -2.86329E-09 -3.09017E-09 -3.31217E-09 -3.52876E-09 -3.73932E-09 -3.94323E-09
  -4.13984E-09 -4.32847E-09 -4.50844E-09 -4.67902E-09 -4.83956E-09 -4.98933E-09 -5.12783E-09 -5.25517E-09 -5.37158E-09 -5.47728E-09
  -5.57251E-09 -5.65747E-09 -5.73242E-09 -5.79756E-09 -5.85314E-09 -5.89936E-09 -5.93648E-09 -5.96470E-09 -5.98425E-09 -5.99538E-09
  -5.99829E-09 -5.99322E-09 -5.98040E-09 -5.96007E-09 -5.93243E-09 -5.89773E-09 -5.85618E-09 -5.80803E-09 -5.75350E-09 -5.69282E-09
  -5.62621E-09 -5.55391E-09 -5.47614E-09 -5.39314E-09 -5.30516E-09 -5.21252E-09 -5.11556E-09 -5.01460E-09 -4.90997E-09 -4.80200E-09
