 LCModel (Version 6.3-1R) Copyright: S.W. Provencher.          Ref.: Magn. Reson. Med. 30:672-679 (1993).                
 onepulse 25x25_ftSpec_smooth_lcm
 26 lines in following concentration table = NCONC+1
    Conc.  %SD /Cr+PCr  Metabolite                                         
    0.000 999%   0.000 Ala                                                 
    0.000 999%   0.000 Asp                                                 
 4.24E-10 122%   1.000 Cr                                                  
 9.91E-11 999%   0.233 GABA                                                
 2.65E-10 538%   0.625 Glc                                                 
 2.10E-09  53%   4.952 Gln                                                 
 6.42E-10 202%   1.513 Glu                                                 
 1.55E-09  41%   3.663 Glyc                                                
    0.000 999%   0.000 GPC                                                 
    0.000 999%   0.000 GSH                                                 
    0.000 999%   0.000 Ins                                                 
    0.000 999%   0.000 Lac                                                 
    0.000 999%   0.000 NAAG                                                
 7.59E-10  48%   1.788 NAA                                                 
 2.54E-10  92%   0.599 PCh                                                 
    0.000 999%   0.000 PCr                                                 
    0.000 999%   0.000 PE                                                  
 3.24E-10 127%   0.763 Scyllo                                              
 3.26E-09  28%   7.672 Ser                                                 
    0.000 999%   0.000 Tau                                                 
 2.54E-10  92%   0.599 GPC+PCh                                             
 7.59E-10  48%   1.788 NAA+NAAG                                            
 1.55E-09  41%   3.663 Ins+Glyc                                            
 4.24E-10 122%   1.000 Cr+PCr                                              
 2.74E-09  34%   6.465 Glu+Gln                                             
   6 lines in following misc. output table
  FWHM = 0.078 ppm    S/N =   3                                            
  Data shift = 0.335 ppm                                                   
  Ph: -55 deg     -23.9 deg/ppm                                            
  alphaB,S = 1.7E-01,   6.3E+01                                            
   16 spline knots.   Ns = 5(1)                                            
  ( 8) 4 infls.   ( 5) 1 extrs.                                            
  363 points on ppm-axis = NY
      4.250000     4.238821     4.227641     4.216462     4.205282     4.194103     4.182923     4.171744     4.160564     4.149385
      4.138206     4.127026     4.115847     4.104667     4.093488     4.082308     4.071129     4.059949     4.048770     4.037591
      4.026411     4.015232     4.004052     3.992873     3.981693     3.970514     3.959334     3.948155     3.936975     3.925796
      3.914617     3.903437     3.892258     3.881078     3.869899     3.858719     3.847540     3.836360     3.825181     3.814002
      3.802822     3.791643     3.780463     3.769284     3.758104     3.746925     3.735745     3.724566     3.713387     3.702207
      3.691028     3.679848     3.668669     3.657489     3.646310     3.635130     3.623951     3.612772     3.601592     3.590413
      3.579233     3.568054     3.556874     3.545695     3.534515     3.523336     3.512156     3.500977     3.489798     3.478618
      3.467439     3.456259     3.445080     3.433900     3.422721     3.411541     3.400362     3.389183     3.378003     3.366824
      3.355644     3.344465     3.333285     3.322106     3.310926     3.299747     3.288568     3.277388     3.266209     3.255029
      3.243850     3.232670     3.221491     3.210311     3.199132     3.187953     3.176773     3.165594     3.154414     3.143235
      3.132055     3.120876     3.109696     3.098517     3.087337     3.076158     3.064979     3.053799     3.042620     3.031440
      3.020261     3.009081     2.997902     2.986722     2.975543     2.964364     2.953184     2.942005     2.930825     2.919646
      2.908466     2.897287     2.886107     2.874928     2.863749     2.852569     2.841390     2.830210     2.819031     2.807851
      2.796672     2.785492     2.774313     2.763134     2.751954     2.740775     2.729595     2.718416     2.707236     2.696057
      2.684877     2.673698     2.662519     2.651339     2.640160     2.628980     2.617801     2.606621     2.595442     2.584262
      2.573083     2.561903     2.550724     2.539545     2.528365     2.517186     2.506006     2.494827     2.483647     2.472468
      2.461288     2.450109     2.438930     2.427750     2.416571     2.405391     2.394212     2.383032     2.371853     2.360673
      2.349494     2.338315     2.327135     2.315956     2.304776     2.293597     2.282417     2.271238     2.260058     2.248879
      2.237700     2.226520     2.215341     2.204161     2.192982     2.181802     2.170623     2.159443     2.148264     2.137084
      2.125905     2.114726     2.103546     2.092367     2.081187     2.070008     2.058828     2.047649     2.036469     2.025290
      2.014111     2.002931     1.991752     1.980572     1.969393     1.958213     1.947034     1.935854     1.924675     1.913496
      1.902316     1.891137     1.879957     1.868778     1.857598     1.846419     1.835239     1.824060     1.812881     1.801701
      1.790522     1.779342     1.768163     1.756983     1.745804     1.734624     1.723445     1.712265     1.701086     1.689907
      1.678727     1.667548     1.656368     1.645189     1.634009     1.622830     1.611650     1.600471     1.589292     1.578112
      1.566933     1.555753     1.544574     1.533394     1.522215     1.511035     1.499856     1.488677     1.477497     1.466318
      1.455138     1.443959     1.432779     1.421600     1.410420     1.399241     1.388062     1.376882     1.365703     1.354523
      1.343344     1.332164     1.320985     1.309805     1.298626     1.287446     1.276267     1.265088     1.253908     1.242729
      1.231549     1.220370     1.209190     1.198011     1.186831     1.175652     1.164473     1.153293     1.142114     1.130934
      1.119755     1.108575     1.097396     1.086216     1.075037     1.063858     1.052678     1.041499     1.030319     1.019140
      1.007960     0.996781     0.985601     0.974422     0.963243     0.952063     0.940884     0.929704     0.918525     0.907345
      0.896166     0.884986     0.873807     0.862628     0.851448     0.840269     0.829089     0.817910     0.806730     0.795551
      0.784371     0.773192     0.762012     0.750833     0.739654     0.728474     0.717295     0.706115     0.694936     0.683756
      0.672577     0.661397     0.650218     0.639039     0.627859     0.616680     0.605500     0.594321     0.583141     0.571962
      0.560782     0.549603     0.538424     0.527244     0.516065     0.504885     0.493706     0.482526     0.471347     0.460167
      0.448988     0.437809     0.426629     0.415450     0.404270     0.393091     0.381911     0.370732     0.359552     0.348373
      0.337193     0.326014     0.314835     0.303655     0.292476     0.281296     0.270117     0.258937     0.247758     0.236578
      0.225399     0.214220     0.203040
 NY phased data points follow
   1.78279E-08  1.84816E-08  1.72815E-08  1.46958E-08  1.18483E-08  1.06936E-08  9.21426E-09  9.24261E-09  8.69442E-09  8.97743E-09
   8.95260E-09  9.73168E-09  9.73289E-09  9.88953E-09  1.02365E-08  1.05646E-08  1.01307E-08  9.17764E-09  9.20669E-09  8.93936E-09
   8.30192E-09  8.16482E-09  7.24031E-09  7.26296E-09  7.86399E-09  8.38059E-09  8.78342E-09  8.85319E-09  7.51496E-09  7.23644E-09
   7.08583E-09  7.52566E-09  8.79375E-09  9.70446E-09  9.21877E-09  8.06216E-09  6.28039E-09  5.15536E-09  4.42437E-09  3.49623E-09
   3.41843E-09  3.54394E-09  3.74534E-09  3.81538E-09  3.15779E-09  3.30241E-09  3.37984E-09  2.99868E-09  2.46563E-09  3.40463E-09
   3.31184E-09  3.95905E-09  4.21180E-09  4.87773E-09  4.50130E-09  4.16653E-09  3.86304E-09  4.34141E-09  4.92300E-09  5.35937E-09
   6.09212E-09  7.07278E-09  7.66941E-09  9.43359E-09  1.13833E-08  1.18994E-08  1.00019E-08  8.35417E-09  6.05361E-09  5.02201E-09
   4.26456E-09  4.76702E-09  3.93339E-09  3.83039E-09  4.38716E-09  4.60373E-09  4.74442E-09  5.84365E-09  6.17884E-09  8.87158E-09
   1.29112E-08  1.51502E-08  1.50368E-08  1.33850E-08  1.00287E-08  8.71688E-09  7.23673E-09  6.70040E-09  5.87163E-09  5.63632E-09
   5.54365E-09  5.03603E-09  4.10754E-09  4.21074E-09  3.59229E-09  2.98108E-09  2.91619E-09  2.38522E-09  2.71185E-09  2.86321E-09
   1.86759E-09  2.67684E-09  2.53350E-09  3.52108E-09  2.87467E-09  3.42999E-09  2.53854E-09  2.68390E-09  2.69451E-09  2.10186E-09
   1.28667E-09  1.71473E-09  5.05175E-10  7.89004E-10  1.90841E-09  2.82215E-09  2.34710E-09  2.51945E-09  2.70522E-09  2.53636E-09
   2.43579E-09  3.02506E-09  2.02924E-09  2.20635E-09  1.74382E-09  1.43283E-09  5.84369E-10  9.02190E-10  8.36228E-10  1.88162E-09
   2.05708E-09  2.55857E-09  1.76894E-09  2.13093E-09  2.07600E-09  2.82366E-09  2.45031E-09  2.20393E-09  2.14884E-09  2.33673E-09
   3.35274E-09  4.61456E-09  5.43291E-09  5.66728E-09  4.35766E-09  4.87809E-09  5.15885E-09  6.48697E-09  5.75209E-09  6.30797E-09
   6.03145E-09  5.82036E-09  5.81788E-09  6.21552E-09  5.49176E-09  5.84319E-09  5.90383E-09  6.46216E-09  5.95577E-09  6.20424E-09
   6.66627E-09  6.55841E-09  6.99395E-09  7.25937E-09  7.42577E-09  7.69740E-09  7.91148E-09  8.16021E-09  9.58411E-09  1.00618E-08
   1.11272E-08  1.53297E-08  1.91021E-08  2.14929E-08  2.01201E-08  1.68123E-08  1.37227E-08  1.20866E-08  9.94549E-09  9.66252E-09
   7.76808E-09  7.03591E-09  6.46717E-09  5.37331E-09  4.49840E-09  3.89287E-09  2.56228E-09  1.61875E-09  5.76672E-10 -1.94444E-10
  -1.29075E-09 -2.42389E-09 -4.52186E-09 -5.82085E-09 -7.57810E-09 -8.76542E-09 -1.07907E-08 -1.24259E-08 -1.45580E-08 -1.60785E-08
  -1.81012E-08 -2.00028E-08 -2.13455E-08 -2.17616E-08 -2.29723E-08 -2.29971E-08 -2.28112E-08 -2.22367E-08 -2.14341E-08 -1.93680E-08
  -1.82697E-08 -1.57622E-08 -1.37713E-08 -1.14858E-08 -9.15046E-09 -7.04842E-09 -5.15297E-09 -3.57683E-09 -2.71244E-09 -1.13572E-09
  -7.07343E-10 -5.19421E-10 -4.65000E-10 -9.56894E-10 -7.55789E-10 -1.52028E-09 -1.31662E-09 -1.96665E-09 -1.65997E-09 -1.02832E-09
  -9.16387E-10 -1.04258E-09 -9.64030E-10 -2.45780E-10 -5.69944E-10 -1.24258E-09 -1.31857E-09 -1.23149E-09 -1.38251E-09 -1.33113E-09
  -1.13721E-09 -4.71086E-10 -5.04177E-10  9.64238E-11 -3.72328E-10 -4.86792E-10 -5.67272E-10 -8.61798E-10 -7.43860E-10 -7.81045E-10
  -1.10870E-09 -1.05911E-09 -4.97217E-10 -3.47846E-10 -1.23508E-11 -7.61730E-11  5.45075E-10  6.48676E-10  2.88972E-10  2.63857E-10
   4.33558E-10 -3.04666E-10 -3.81245E-10 -3.48133E-10 -7.30235E-10 -1.48123E-09 -9.16811E-10 -7.85843E-10 -1.26774E-09 -6.08248E-10
  -4.30835E-10 -1.00530E-10  1.85976E-10 -1.06073E-10  8.41795E-10  5.96491E-10  8.46670E-10  1.00711E-09  3.65831E-10  7.52315E-10
   6.43119E-10  6.20391E-10  5.85415E-10  1.37007E-10  8.17110E-11 -4.13324E-10  4.93624E-10 -1.64653E-10 -2.76309E-10 -2.68826E-10
  -3.18162E-10  5.49798E-12 -1.59823E-10 -1.50782E-10 -5.48844E-10 -1.31457E-10 -5.48086E-10 -1.27053E-10 -6.52361E-10 -2.41587E-10
  -7.57928E-11 -5.21190E-10 -5.64654E-10 -5.85040E-10 -4.33959E-10 -3.53178E-10 -4.77456E-10 -8.39336E-10  6.23563E-11 -7.62172E-10
  -8.98866E-10 -8.97967E-10 -7.94605E-10 -8.67707E-10 -5.73546E-10 -7.74756E-10 -7.61839E-10 -6.35609E-10 -6.19631E-10 -9.89235E-10
  -8.90648E-10 -5.58479E-10 -4.55548E-10 -2.67736E-10 -7.48964E-10 -9.34465E-10 -8.17884E-10 -5.87545E-10 -9.43265E-10 -9.17061E-10
  -1.12819E-09 -1.13989E-09 -3.55025E-10 -9.17693E-10 -6.19619E-10 -8.13220E-10 -4.34626E-10 -7.33525E-10 -6.52192E-10 -1.22515E-09
  -1.12744E-09 -9.91480E-10 -6.14372E-10 -1.08743E-09 -8.09348E-10 -7.30351E-10 -1.14035E-09 -7.90068E-10 -1.03594E-09 -1.25851E-09
  -6.61106E-10 -1.11151E-09 -1.38222E-09 -5.72446E-10 -1.18654E-09 -1.36985E-09 -1.04498E-09 -1.35245E-09 -1.33992E-09 -1.07564E-09
  -1.23923E-09 -8.26656E-10 -7.69462E-10
 NY points of the fit to the data follow
   1.88368E-08  1.70391E-08  1.52843E-08  1.41398E-08  1.34728E-08  1.23766E-08  1.08865E-08  9.55812E-09  8.72122E-09  8.63014E-09
   8.76467E-09  8.98799E-09  9.51382E-09  9.97961E-09  1.04458E-08  1.06312E-08  1.03787E-08  9.84530E-09  8.99357E-09  7.77987E-09
   6.92999E-09  7.08747E-09  7.43171E-09  7.83128E-09  8.37634E-09  8.73890E-09  8.83502E-09  8.62336E-09  8.22641E-09  8.13372E-09
   8.23845E-09  8.23151E-09  8.00983E-09  7.38184E-09  6.39421E-09  5.60707E-09  5.62741E-09  5.71617E-09  5.67191E-09  5.42699E-09
   4.96263E-09  4.28174E-09  3.50118E-09  3.05850E-09  2.96729E-09  2.96044E-09  2.97175E-09  3.00567E-09  3.06295E-09  3.12992E-09
   3.21295E-09  3.30657E-09  3.43204E-09  3.58952E-09  3.84166E-09  4.27414E-09  4.78626E-09  5.34549E-09  6.06802E-09  6.81846E-09
   7.44985E-09  8.02679E-09  8.57083E-09  8.90115E-09  8.95683E-09  8.66915E-09  8.15009E-09  7.57316E-09  6.74351E-09  5.85745E-09
   5.34930E-09  5.00355E-09  4.65816E-09  4.57103E-09  4.82082E-09  5.32174E-09  6.05515E-09  7.32451E-09  8.73383E-09  1.00406E-08
   1.11791E-08  1.20472E-08  1.24406E-08  1.23679E-08  1.18226E-08  1.06431E-08  8.99467E-09  7.13974E-09  5.25803E-09  4.39041E-09
   3.96301E-09  3.70611E-09  3.53178E-09  3.39000E-09  3.28199E-09  3.20495E-09  3.13341E-09  3.07298E-09  3.03256E-09  3.00102E-09
   2.97592E-09  2.95915E-09  2.94890E-09  2.94386E-09  2.94313E-09  2.94609E-09  2.95214E-09  2.96094E-09  2.97223E-09  2.98580E-09
   3.00146E-09  3.01906E-09  3.03850E-09  3.05958E-09  3.08203E-09  3.10560E-09  3.13006E-09  3.15517E-09  3.18071E-09  3.20647E-09
   3.23223E-09  3.25780E-09  3.28298E-09  3.30757E-09  3.33138E-09  3.35423E-09  3.37591E-09  3.39626E-09  3.41510E-09  3.43224E-09
   3.44751E-09  3.46073E-09  3.47173E-09  3.48034E-09  3.48640E-09  3.48973E-09  3.49018E-09  3.48758E-09  3.48177E-09  3.47261E-09
   3.45992E-09  3.44359E-09  3.42346E-09  3.39938E-09  3.37125E-09  3.33892E-09  3.30230E-09  3.26128E-09  3.21579E-09  3.16576E-09
   3.11117E-09  3.05202E-09  2.98835E-09  2.92028E-09  2.84802E-09  2.77186E-09  2.69232E-09  2.61011E-09  2.52635E-09  2.44274E-09
   2.36195E-09  2.28833E-09  2.22941E-09  2.19927E-09  2.22795E-09  2.39404E-09  2.99509E-09  5.09458E-09  8.15008E-09  1.13148E-08
   1.44384E-08  1.74408E-08  1.98998E-08  2.11781E-08  2.08077E-08  1.86556E-08  1.46933E-08  9.06960E-09  3.18694E-09  2.08155E-10
  -8.55885E-10 -1.46299E-09 -1.90330E-09 -2.26415E-09 -2.58020E-09 -2.86763E-09 -3.13474E-09 -3.38607E-09 -3.62411E-09 -3.85024E-09
  -4.06516E-09 -4.26912E-09 -4.46210E-09 -4.64387E-09 -4.81411E-09 -4.97238E-09 -5.11838E-09 -5.25234E-09 -5.37461E-09 -5.48549E-09
  -5.58526E-09 -5.67419E-09 -5.75254E-09 -5.82056E-09 -5.87847E-09 -5.92652E-09 -5.96492E-09 -5.99390E-09 -6.01368E-09 -6.02446E-09
  -6.02647E-09 -6.01991E-09 -6.00499E-09 -5.98192E-09 -5.95090E-09 -5.91215E-09 -5.86586E-09 -5.81224E-09 -5.75149E-09 -5.68381E-09
  -5.60940E-09 -5.52847E-09 -5.44121E-09 -5.34782E-09 -5.24858E-09 -5.14383E-09 -5.03396E-09 -4.91936E-09 -4.80040E-09 -4.67747E-09
  -4.55096E-09 -4.42123E-09 -4.28868E-09 -4.15369E-09 -4.01661E-09 -3.87787E-09 -3.73782E-09 -3.59685E-09 -3.45532E-09 -3.31364E-09
  -3.17219E-09 -3.03133E-09 -2.89145E-09 -2.75294E-09 -2.61615E-09 -2.48149E-09 -2.34932E-09 -2.22003E-09 -2.09400E-09 -1.97162E-09
  -1.85323E-09 -1.73927E-09 -1.62987E-09 -1.52497E-09 -1.42450E-09 -1.32837E-09 -1.23647E-09 -1.14874E-09 -1.06507E-09 -9.85377E-10
  -9.09588E-10 -8.37593E-10 -7.69323E-10 -7.04676E-10 -6.43575E-10 -5.85928E-10 -5.31624E-10 -4.80621E-10 -4.32807E-10 -3.88085E-10
  -3.46369E-10 -3.07590E-10 -2.71634E-10 -2.38426E-10 -2.07894E-10 -1.79910E-10 -1.54430E-10 -1.31339E-10 -1.10563E-10 -9.19974E-11
  -7.55791E-11 -6.12416E-11 -4.89165E-11 -3.85366E-11 -3.00444E-11 -2.33665E-11 -1.84444E-11 -1.52068E-11 -1.35901E-11 -1.35330E-11
  -1.49656E-11 -1.78247E-11 -2.20441E-11 -2.75590E-11 -3.43055E-11 -4.22153E-11 -5.12260E-11 -6.12704E-11 -7.22888E-11 -8.42043E-11
  -9.69657E-11 -1.10497E-10 -1.24736E-10 -1.39625E-10 -1.55089E-10 -1.71067E-10 -1.87495E-10 -2.04305E-10 -2.21468E-10 -2.38960E-10
  -2.56763E-10 -2.74858E-10 -2.93225E-10 -3.11844E-10 -3.30696E-10 -3.49761E-10 -3.69021E-10 -3.88455E-10 -4.08045E-10 -4.27770E-10
  -4.47612E-10 -4.67550E-10 -4.87565E-10 -5.07639E-10 -5.27751E-10 -5.47882E-10 -5.68013E-10 -5.88123E-10 -6.08195E-10 -6.28209E-10
  -6.48144E-10 -6.67982E-10 -6.87703E-10 -7.07288E-10 -7.26718E-10 -7.45975E-10 -7.65060E-10 -7.83982E-10 -8.02746E-10 -8.21361E-10
  -8.39836E-10 -8.58176E-10 -8.76389E-10 -8.94482E-10 -9.12466E-10 -9.30344E-10 -9.48127E-10 -9.65820E-10 -9.83432E-10 -1.00097E-09
  -1.01844E-09 -1.03585E-09 -1.05321E-09 -1.07053E-09 -1.08780E-09 -1.10505E-09 -1.12228E-09 -1.13949E-09 -1.15670E-09 -1.17391E-09
  -1.19112E-09 -1.20835E-09 -1.22560E-09
 NY background values follow
     7.265E-10    7.347E-10    7.429E-10    7.511E-10    7.594E-10    7.677E-10    7.760E-10    7.843E-10    7.926E-10    8.009E-10
     8.092E-10    8.175E-10    8.257E-10    8.339E-10    8.420E-10    8.501E-10    8.582E-10    8.662E-10    8.741E-10    8.819E-10
     8.896E-10    8.972E-10    9.048E-10    9.122E-10    9.195E-10    9.267E-10    9.337E-10    9.406E-10    9.474E-10    9.540E-10
     9.604E-10    9.668E-10    9.730E-10    9.792E-10    9.852E-10    9.912E-10    9.972E-10    1.003E-09    1.009E-09    1.015E-09
     1.021E-09    1.027E-09    1.033E-09    1.039E-09    1.045E-09    1.051E-09    1.057E-09    1.064E-09    1.070E-09    1.077E-09
     1.084E-09    1.091E-09    1.098E-09    1.106E-09    1.113E-09    1.121E-09    1.129E-09    1.138E-09    1.147E-09    1.156E-09
     1.165E-09    1.174E-09    1.184E-09    1.194E-09    1.204E-09    1.215E-09    1.226E-09    1.237E-09    1.248E-09    1.260E-09
     1.272E-09    1.284E-09    1.296E-09    1.309E-09    1.322E-09    1.335E-09    1.349E-09    1.363E-09    1.377E-09    1.391E-09
     1.406E-09    1.421E-09    1.436E-09    1.452E-09    1.467E-09    1.483E-09    1.500E-09    1.517E-09    1.534E-09    1.551E-09
     1.569E-09    1.587E-09    1.606E-09    1.625E-09    1.645E-09    1.665E-09    1.686E-09    1.707E-09    1.728E-09    1.751E-09
     1.774E-09    1.797E-09    1.821E-09    1.846E-09    1.871E-09    1.897E-09    1.924E-09    1.951E-09    1.980E-09    2.009E-09
     2.038E-09    2.069E-09    2.100E-09    2.132E-09    2.165E-09    2.198E-09    2.231E-09    2.264E-09    2.298E-09    2.330E-09
     2.363E-09    2.395E-09    2.426E-09    2.456E-09    2.484E-09    2.512E-09    2.538E-09    2.562E-09    2.585E-09    2.606E-09
     2.624E-09    2.640E-09    2.654E-09    2.665E-09    2.673E-09    2.678E-09    2.680E-09    2.679E-09    2.674E-09    2.666E-09
     2.654E-09    2.637E-09    2.617E-09    2.592E-09    2.562E-09    2.528E-09    2.490E-09    2.446E-09    2.396E-09    2.342E-09
     2.282E-09    2.216E-09    2.144E-09    2.067E-09    1.983E-09    1.893E-09    1.796E-09    1.692E-09    1.582E-09    1.464E-09
     1.339E-09    1.207E-09    1.067E-09    9.197E-10    7.642E-10    6.007E-10    4.289E-10    2.486E-10    5.989E-11   -1.368E-10
    -3.407E-10   -5.511E-10   -7.673E-10   -9.885E-10   -1.214E-09   -1.443E-09   -1.676E-09   -1.910E-09   -2.146E-09   -2.382E-09
    -2.619E-09   -2.855E-09   -3.089E-09   -3.321E-09   -3.551E-09   -3.777E-09   -3.998E-09   -4.215E-09   -4.426E-09   -4.630E-09
    -4.827E-09   -5.017E-09   -5.197E-09   -5.369E-09   -5.530E-09   -5.681E-09   -5.820E-09   -5.948E-09   -6.065E-09   -6.171E-09
    -6.267E-09   -6.352E-09   -6.427E-09   -6.492E-09   -6.547E-09   -6.592E-09   -6.628E-09   -6.655E-09   -6.673E-09   -6.681E-09
    -6.682E-09   -6.673E-09   -6.657E-09   -6.632E-09   -6.600E-09   -6.559E-09   -6.512E-09   -6.457E-09   -6.395E-09   -6.326E-09
    -6.250E-09   -6.168E-09   -6.080E-09   -5.986E-09   -5.885E-09   -5.780E-09   -5.669E-09   -5.554E-09   -5.434E-09   -5.310E-09
    -5.183E-09   -5.052E-09   -4.919E-09   -4.783E-09   -4.645E-09   -4.506E-09   -4.365E-09   -4.223E-09   -4.081E-09   -3.939E-09
    -3.797E-09   -3.655E-09   -3.515E-09   -3.375E-09   -3.238E-09   -3.103E-09   -2.970E-09   -2.840E-09   -2.714E-09   -2.591E-09
    -2.472E-09   -2.357E-09   -2.247E-09   -2.142E-09   -2.041E-09   -1.944E-09   -1.852E-09   -1.763E-09   -1.679E-09   -1.599E-09
    -1.523E-09   -1.450E-09   -1.382E-09   -1.317E-09   -1.255E-09   -1.197E-09   -1.142E-09   -1.091E-09   -1.042E-09   -9.972E-10
    -9.550E-10   -9.158E-10   -8.794E-10   -8.458E-10   -8.149E-10   -7.864E-10   -7.606E-10   -7.371E-10   -7.159E-10   -6.969E-10
    -6.801E-10   -6.653E-10   -6.526E-10   -6.418E-10   -6.330E-10   -6.259E-10   -6.206E-10   -6.170E-10   -6.150E-10   -6.145E-10
    -6.156E-10   -6.181E-10   -6.219E-10   -6.271E-10   -6.335E-10   -6.410E-10   -6.497E-10   -6.593E-10   -6.700E-10   -6.816E-10
    -6.940E-10   -7.072E-10   -7.211E-10   -7.356E-10   -7.507E-10   -7.663E-10   -7.824E-10   -7.989E-10   -8.157E-10   -8.329E-10
    -8.503E-10   -8.681E-10   -8.861E-10   -9.044E-10   -9.229E-10   -9.417E-10   -9.606E-10   -9.797E-10   -9.990E-10   -1.018E-09
    -1.038E-09   -1.058E-09   -1.077E-09   -1.097E-09   -1.117E-09   -1.137E-09   -1.156E-09   -1.176E-09   -1.196E-09   -1.216E-09
    -1.235E-09   -1.255E-09   -1.274E-09   -1.293E-09   -1.313E-09   -1.332E-09   -1.350E-09   -1.369E-09   -1.387E-09   -1.406E-09
    -1.424E-09   -1.442E-09   -1.460E-09   -1.478E-09   -1.495E-09   -1.513E-09   -1.530E-09   -1.548E-09   -1.565E-09   -1.582E-09
    -1.599E-09   -1.616E-09   -1.633E-09   -1.650E-09   -1.667E-09   -1.684E-09   -1.701E-09   -1.718E-09   -1.735E-09   -1.752E-09
    -1.769E-09   -1.786E-09   -1.803E-09
 Cr       Conc. = 4.24E-10
   2.48189E-09  2.12535E-09  1.61846E-09  1.14947E-09  1.01059E-09  9.55556E-10  9.28296E-10  9.13677E-10  9.05920E-10  9.02320E-10
   9.01431E-10  9.02408E-10  9.04724E-10  9.08029E-10  9.12088E-10  9.16736E-10  9.21857E-10  9.27371E-10  9.33227E-10  9.39398E-10
   9.45881E-10  9.52707E-10  9.59943E-10  9.67712E-10  9.76230E-10  9.85878E-10  9.97328E-10  1.01189E-09  1.03238E-09  1.06609E-09
   1.13886E-09  1.39207E-09  1.80493E-09  2.25037E-09  2.69943E-09  3.14728E-09  3.54762E-09  3.81676E-09  3.88301E-09  3.71828E-09
   3.31245E-09  2.66400E-09  1.90543E-09  1.46508E-09  1.33073E-09  1.27063E-09  1.23832E-09  1.21946E-09  1.20820E-09  1.20168E-09
   1.19836E-09  1.19731E-09  1.19796E-09  1.19996E-09  1.20304E-09  1.20702E-09  1.21179E-09  1.21725E-09  1.22333E-09  1.22996E-09
   1.23711E-09  1.24473E-09  1.25279E-09  1.26128E-09  1.27016E-09  1.27943E-09  1.28907E-09  1.29907E-09  1.30942E-09  1.32011E-09
   1.33114E-09  1.34250E-09  1.35419E-09  1.36620E-09  1.37852E-09  1.39117E-09  1.40412E-09  1.41739E-09  1.43097E-09  1.44485E-09
   1.45904E-09  1.47354E-09  1.48834E-09  1.50345E-09  1.51886E-09  1.53458E-09  1.55063E-09  1.56703E-09  1.58380E-09  1.60095E-09
   1.61851E-09  1.63648E-09  1.65490E-09  1.67378E-09  1.69314E-09  1.71299E-09  1.73336E-09  1.75426E-09  1.77572E-09  1.79775E-09
   1.82037E-09  1.84360E-09  1.86747E-09  1.89198E-09  1.91716E-09  1.94302E-09  1.96960E-09  1.99690E-09  2.02494E-09  2.05374E-09
   2.08333E-09  2.11372E-09  2.14492E-09  2.17685E-09  2.20933E-09  2.24220E-09  2.27529E-09  2.30843E-09  2.34145E-09  2.37417E-09
   2.40645E-09  2.43809E-09  2.46894E-09  2.49882E-09  2.52757E-09  2.55502E-09  2.58100E-09  2.60534E-09  2.62787E-09  2.64843E-09
   2.66684E-09  2.68293E-09  2.69654E-09  2.70750E-09  2.71564E-09  2.72079E-09  2.72279E-09  2.72146E-09  2.71664E-09  2.70815E-09
   2.69583E-09  2.67951E-09  2.65903E-09  2.63421E-09  2.60489E-09  2.57089E-09  2.53206E-09  2.48821E-09  2.43920E-09  2.38484E-09
   2.32498E-09  2.25945E-09  2.18810E-09  2.11077E-09  2.02729E-09  1.93753E-09  1.84135E-09  1.73861E-09  1.62921E-09  1.51307E-09
   1.39016E-09  1.26055E-09  1.12451E-09  9.82683E-10  8.36861E-10  6.92725E-10  5.77588E-10  5.29168E-10  4.90121E-10  4.41569E-10
   3.84608E-10  3.10699E-10  1.94728E-10  9.61342E-12 -2.57797E-10 -6.08335E-10 -1.04210E-09 -1.53611E-09 -1.98381E-09 -2.27743E-09
  -2.53697E-09 -2.78496E-09 -3.02681E-09 -3.26406E-09 -3.49700E-09 -3.72547E-09 -3.94904E-09 -4.16718E-09 -4.37928E-09 -4.58469E-09
  -4.78277E-09 -4.97283E-09 -5.15417E-09 -5.32609E-09 -5.48790E-09 -5.63888E-09 -5.77851E-09 -5.90689E-09 -6.02421E-09 -6.13067E-09
  -6.22649E-09 -6.31185E-09 -6.38696E-09 -6.45201E-09 -6.50722E-09 -6.55277E-09 -6.58886E-09 -6.61570E-09 -6.63348E-09 -6.64240E-09
  -6.64266E-09 -6.63446E-09 -6.61798E-09 -6.59345E-09 -6.56104E-09 -6.52096E-09 -6.47341E-09 -6.41858E-09 -6.35668E-09 -6.28789E-09
  -6.21242E-09 -6.13046E-09 -6.04222E-09 -5.94788E-09 -5.84772E-09 -5.74208E-09 -5.63135E-09 -5.51591E-09 -5.39614E-09 -5.27242E-09
  -5.14514E-09 -5.01466E-09 -4.88139E-09 -4.74568E-09 -4.60791E-09 -4.46848E-09 -4.32777E-09 -4.18615E-09 -4.04397E-09 -3.90168E-09
  -3.75961E-09 -3.61814E-09 -3.47767E-09 -3.33858E-09 -3.20122E-09 -3.06599E-09 -2.93327E-09 -2.80343E-09 -2.67687E-09 -2.55396E-09
  -2.43506E-09 -2.32058E-09 -2.21067E-09 -2.10528E-09 -2.00432E-09 -1.90770E-09 -1.81532E-09 -1.72712E-09 -1.64298E-09 -1.56283E-09
  -1.48658E-09 -1.41413E-09 -1.34542E-09 -1.28033E-09 -1.21879E-09 -1.16071E-09 -1.10598E-09 -1.05455E-09 -1.00632E-09 -9.61179E-10
  -9.19052E-10 -8.79865E-10 -8.43506E-10 -8.09898E-10 -7.78970E-10 -7.50592E-10 -7.24723E-10 -7.01246E-10 -6.80086E-10 -6.61141E-10
  -6.44345E-10 -6.29633E-10 -6.16937E-10 -6.06188E-10 -5.97330E-10 -5.90289E-10 -5.85006E-10 -5.81410E-10 -5.79438E-10 -5.79027E-10
  -5.80109E-10 -5.82619E-10 -5.86492E-10 -5.91662E-10 -5.98066E-10 -6.05635E-10 -6.14307E-10 -6.24015E-10 -6.34699E-10 -6.46281E-10
  -6.58712E-10 -6.71914E-10 -6.85826E-10 -7.00388E-10 -7.15528E-10 -7.31183E-10 -7.47290E-10 -7.63781E-10 -7.80624E-10 -7.97800E-10
  -8.15287E-10 -8.33068E-10 -8.51122E-10 -8.69429E-10 -8.87971E-10 -9.06727E-10 -9.25678E-10 -9.44805E-10 -9.64089E-10 -9.83509E-10
  -1.00305E-09 -1.02268E-09 -1.04239E-09 -1.06217E-09 -1.08198E-09 -1.10181E-09 -1.12164E-09 -1.14145E-09 -1.16123E-09 -1.18095E-09
  -1.20058E-09 -1.22013E-09 -1.23955E-09 -1.25884E-09 -1.27798E-09 -1.29694E-09 -1.31573E-09 -1.33436E-09 -1.35284E-09 -1.37116E-09
  -1.38934E-09 -1.40739E-09 -1.42531E-09 -1.44312E-09 -1.46081E-09 -1.47840E-09 -1.49589E-09 -1.51329E-09 -1.53061E-09 -1.54786E-09
  -1.56504E-09 -1.58216E-09 -1.59923E-09 -1.61625E-09 -1.63324E-09 -1.65020E-09 -1.66713E-09 -1.68405E-09 -1.70097E-09 -1.71788E-09
  -1.73481E-09 -1.75174E-09 -1.76870E-09
 GABA     Conc. = 9.91E-11
   7.32394E-10  7.40621E-10  7.48897E-10  7.57217E-10  7.65573E-10  7.73959E-10  7.82368E-10  7.90796E-10  7.99235E-10  8.07681E-10
   8.16129E-10  8.24574E-10  8.33015E-10  8.41445E-10  8.49868E-10  8.58280E-10  8.66678E-10  8.75071E-10  8.83465E-10  8.91865E-10
   9.00292E-10  9.08775E-10  9.17357E-10  9.26109E-10  9.35141E-10  9.44637E-10  9.54943E-10  9.66751E-10  9.81818E-10  1.00489E-09
   1.02830E-09  1.05224E-09  1.08948E-09  1.12999E-09  1.16449E-09  1.19867E-09  1.22940E-09  1.25116E-09  1.25924E-09  1.25308E-09
   1.24013E-09  1.22962E-09  1.20066E-09  1.16280E-09  1.14843E-09  1.13493E-09  1.11437E-09  1.10637E-09  1.10523E-09  1.10730E-09
   1.11123E-09  1.11641E-09  1.12253E-09  1.12947E-09  1.13715E-09  1.14556E-09  1.15478E-09  1.16497E-09  1.17638E-09  1.18957E-09
   1.20569E-09  1.22805E-09  1.25726E-09  1.28616E-09  1.32118E-09  1.36512E-09  1.40572E-09  1.44033E-09  1.47011E-09  1.49151E-09
   1.50048E-09  1.49496E-09  1.47922E-09  1.46469E-09  1.45146E-09  1.42654E-09  1.41330E-09  1.41854E-09  1.42013E-09  1.42484E-09
   1.43982E-09  1.45648E-09  1.47661E-09  1.50539E-09  1.53471E-09  1.56379E-09  1.59769E-09  1.63258E-09  1.66545E-09  1.69424E-09
   1.71712E-09  1.73903E-09  1.75872E-09  1.76442E-09  1.76798E-09  1.78077E-09  1.78488E-09  1.78619E-09  1.79734E-09  1.80961E-09
   1.82240E-09  1.83886E-09  1.85787E-09  1.87873E-09  1.90107E-09  1.92465E-09  1.94936E-09  1.97513E-09  2.00189E-09  2.02961E-09
   2.05828E-09  2.08786E-09  2.11836E-09  2.14967E-09  2.18162E-09  2.21402E-09  2.24670E-09  2.27947E-09  2.31216E-09  2.34459E-09
   2.37660E-09  2.40801E-09  2.43864E-09  2.46833E-09  2.49691E-09  2.52420E-09  2.55003E-09  2.57423E-09  2.59664E-09  2.61708E-09
   2.63538E-09  2.65137E-09  2.66489E-09  2.67575E-09  2.68381E-09  2.68887E-09  2.69078E-09  2.68937E-09  2.68447E-09  2.67590E-09
   2.66349E-09  2.64709E-09  2.62652E-09  2.60160E-09  2.57217E-09  2.53806E-09  2.49910E-09  2.45512E-09  2.40595E-09  2.35142E-09
   2.29136E-09  2.22560E-09  2.15397E-09  2.07632E-09  1.99246E-09  1.90224E-09  1.80549E-09  1.70206E-09  1.59178E-09  1.47451E-09
   1.35010E-09  1.21843E-09  1.07945E-09  9.33130E-10  7.79712E-10  6.20155E-10  4.59265E-10  3.09421E-10  1.56288E-10 -5.16631E-12
  -1.74038E-10 -3.51245E-10 -5.41973E-10 -7.52456E-10 -9.85770E-10 -1.24158E-09 -1.51955E-09 -1.81564E-09 -2.10712E-09 -2.35892E-09
  -2.60127E-09 -2.84010E-09 -3.07633E-09 -3.30983E-09 -3.54012E-09 -3.76662E-09 -3.98869E-09 -4.20565E-09 -4.41679E-09 -4.62144E-09
  -4.81887E-09 -5.00838E-09 -5.18927E-09 -5.36078E-09 -5.52224E-09 -5.67292E-09 -5.81229E-09 -5.94042E-09 -6.05753E-09 -6.16380E-09
  -6.25944E-09 -6.34464E-09 -6.41961E-09 -6.48453E-09 -6.53961E-09 -6.58504E-09 -6.62103E-09 -6.64777E-09 -6.66546E-09 -6.67429E-09
  -6.67447E-09 -6.66619E-09 -6.64965E-09 -6.62504E-09 -6.59257E-09 -6.55243E-09 -6.50482E-09 -6.44993E-09 -6.38797E-09 -6.31913E-09
  -6.24361E-09 -6.16160E-09 -6.07331E-09 -5.97893E-09 -5.87872E-09 -5.77304E-09 -5.66227E-09 -5.54679E-09 -5.42698E-09 -5.30323E-09
