 LCModel (Version 6.3-1R) Copyright: S.W. Provencher.          Ref.: Magn. Reson. Med. 30:672-679 (1993).                
 onepulse 25x26_ftSpec_smooth_lcm
 26 lines in following concentration table = NCONC+1
    Conc.  %SD /Cr+PCr  Metabolite                                         
    0.000 999%   0.000 Ala                                                 
    0.000 999%   0.000 Asp                                                 
 5.27E-10  63%   1.000 Cr                                                  
    0.000 999%   0.000 GABA                                                
 7.15E-10 181%   1.357 Glc                                                 
 1.45E-09  76%   2.754 Gln                                                 
 5.89E-10 156%   1.119 Glu                                                 
    0.000 999%   0.000 Glyc                                                
 2.47E-10  71%   0.470 GPC                                                 
    0.000 999%   0.000 GSH                                                 
 1.61E-09  40%   3.057 Ins                                                 
    0.000 999%   0.000 Lac                                                 
    0.000 999%   0.000 NAAG                                                
 9.21E-10  40%   1.750 NAA                                                 
    0.000 999%   0.000 PCh                                                 
    0.000 999%   0.000 PCr                                                 
    0.000 999%   0.000 PE                                                  
 2.32E-10 168%   0.440 Scyllo                                              
 4.64E-09  23%   8.806 Ser                                                 
    0.000 999%   0.000 Tau                                                 
 2.47E-10  71%   0.470 GPC+PCh                                             
 9.21E-10  40%   1.750 NAA+NAAG                                            
 1.61E-09  40%   3.057 Ins+Glyc                                            
 5.27E-10  63%   1.000 Cr+PCr                                              
 2.04E-09  37%   3.873 Glu+Gln                                             
   6 lines in following misc. output table
  FWHM = 0.101 ppm    S/N =   3                                            
  Data shift = 0.347 ppm                                                   
  Ph: -32 deg     -18.1 deg/ppm                                            
  alphaB,S = 1.7E-01,   2.2E+01                                            
   16 spline knots.   Ns = 5(1)                                            
  (11) 4 infls.   (11) 1 extrs.                                            
  363 points on ppm-axis = NY
      4.250000     4.238821     4.227641     4.216462     4.205282     4.194103     4.182923     4.171744     4.160564     4.149385
      4.138206     4.127026     4.115847     4.104667     4.093488     4.082308     4.071129     4.059949     4.048770     4.037591
      4.026411     4.015232     4.004052     3.992873     3.981693     3.970514     3.959334     3.948155     3.936975     3.925796
      3.914617     3.903437     3.892258     3.881078     3.869899     3.858719     3.847540     3.836360     3.825181     3.814002
      3.802822     3.791643     3.780463     3.769284     3.758104     3.746925     3.735745     3.724566     3.713387     3.702207
      3.691028     3.679848     3.668669     3.657489     3.646310     3.635130     3.623951     3.612772     3.601592     3.590413
      3.579233     3.568054     3.556874     3.545695     3.534515     3.523336     3.512156     3.500977     3.489798     3.478618
      3.467439     3.456259     3.445080     3.433900     3.422721     3.411541     3.400362     3.389183     3.378003     3.366824
      3.355644     3.344465     3.333285     3.322106     3.310926     3.299747     3.288568     3.277388     3.266209     3.255029
      3.243850     3.232670     3.221491     3.210311     3.199132     3.187953     3.176773     3.165594     3.154414     3.143235
      3.132055     3.120876     3.109696     3.098517     3.087337     3.076158     3.064979     3.053799     3.042620     3.031440
      3.020261     3.009081     2.997902     2.986722     2.975543     2.964364     2.953184     2.942005     2.930825     2.919646
      2.908466     2.897287     2.886107     2.874928     2.863749     2.852569     2.841390     2.830210     2.819031     2.807851
      2.796672     2.785492     2.774313     2.763134     2.751954     2.740775     2.729595     2.718416     2.707236     2.696057
      2.684877     2.673698     2.662519     2.651339     2.640160     2.628980     2.617801     2.606621     2.595442     2.584262
      2.573083     2.561903     2.550724     2.539545     2.528365     2.517186     2.506006     2.494827     2.483647     2.472468
      2.461288     2.450109     2.438930     2.427750     2.416571     2.405391     2.394212     2.383032     2.371853     2.360673
      2.349494     2.338315     2.327135     2.315956     2.304776     2.293597     2.282417     2.271238     2.260058     2.248879
      2.237700     2.226520     2.215341     2.204161     2.192982     2.181802     2.170623     2.159443     2.148264     2.137084
      2.125905     2.114726     2.103546     2.092367     2.081187     2.070008     2.058828     2.047649     2.036469     2.025290
      2.014111     2.002931     1.991752     1.980572     1.969393     1.958213     1.947034     1.935854     1.924675     1.913496
      1.902316     1.891137     1.879957     1.868778     1.857598     1.846419     1.835239     1.824060     1.812881     1.801701
      1.790522     1.779342     1.768163     1.756983     1.745804     1.734624     1.723445     1.712265     1.701086     1.689907
      1.678727     1.667548     1.656368     1.645189     1.634009     1.622830     1.611650     1.600471     1.589292     1.578112
      1.566933     1.555753     1.544574     1.533394     1.522215     1.511035     1.499856     1.488677     1.477497     1.466318
      1.455138     1.443959     1.432779     1.421600     1.410420     1.399241     1.388062     1.376882     1.365703     1.354523
      1.343344     1.332164     1.320985     1.309805     1.298626     1.287446     1.276267     1.265088     1.253908     1.242729
      1.231549     1.220370     1.209190     1.198011     1.186831     1.175652     1.164473     1.153293     1.142114     1.130934
      1.119755     1.108575     1.097396     1.086216     1.075037     1.063858     1.052678     1.041499     1.030319     1.019140
      1.007960     0.996781     0.985601     0.974422     0.963243     0.952063     0.940884     0.929704     0.918525     0.907345
      0.896166     0.884986     0.873807     0.862628     0.851448     0.840269     0.829089     0.817910     0.806730     0.795551
      0.784371     0.773192     0.762012     0.750833     0.739654     0.728474     0.717295     0.706115     0.694936     0.683756
      0.672577     0.661397     0.650218     0.639039     0.627859     0.616680     0.605500     0.594321     0.583141     0.571962
      0.560782     0.549603     0.538424     0.527244     0.516065     0.504885     0.493706     0.482526     0.471347     0.460167
      0.448988     0.437809     0.426629     0.415450     0.404270     0.393091     0.381911     0.370732     0.359552     0.348373
      0.337193     0.326014     0.314835     0.303655     0.292476     0.281296     0.270117     0.258937     0.247758     0.236578
      0.225399     0.214220     0.203040
 NY phased data points follow
   1.45709E-08  1.58503E-08  1.88235E-08  1.66884E-08  1.71346E-08  1.48791E-08  1.52228E-08  1.36472E-08  1.43515E-08  1.26029E-08
   1.35986E-08  1.29230E-08  1.39796E-08  1.33044E-08  1.50017E-08  1.46278E-08  1.56533E-08  1.40810E-08  1.57667E-08  1.42965E-08
   1.55209E-08  1.40239E-08  1.40030E-08  1.26802E-08  1.38585E-08  1.34977E-08  1.55684E-08  1.42805E-08  1.46899E-08  1.30897E-08
   1.36201E-08  1.30734E-08  1.58223E-08  1.63474E-08  1.77668E-08  1.62829E-08  1.61431E-08  1.46369E-08  1.45219E-08  1.28310E-08
   1.30422E-08  1.21160E-08  1.27847E-08  1.13441E-08  1.18980E-08  1.09102E-08  1.17020E-08  9.22310E-09  9.99547E-09  9.15849E-09
   9.57549E-09  8.95302E-09  9.94316E-09  9.39451E-09  9.80886E-09  8.27937E-09  8.39777E-09  7.83424E-09  8.50762E-09  7.72251E-09
   8.92788E-09  8.20789E-09  9.79220E-09  1.13101E-08  1.50923E-08  1.49090E-08  1.52209E-08  1.31675E-08  1.27021E-08  1.04659E-08
   1.10545E-08  9.63252E-09  9.18675E-09  8.04807E-09  8.80053E-09  7.54830E-09  8.01126E-09  6.81048E-09  7.61331E-09  1.07696E-08
   1.55954E-08  1.79695E-08  1.99191E-08  1.74655E-08  1.67797E-08  1.53682E-08  1.50515E-08  1.38663E-08  1.37410E-08  1.31146E-08
   1.33975E-08  1.21819E-08  1.22190E-08  1.13832E-08  1.08969E-08  1.00695E-08  9.99107E-09  8.92598E-09  9.98705E-09  8.27626E-09
   8.71487E-09  8.01864E-09  9.31618E-09  8.51535E-09  9.18279E-09  8.43049E-09  8.52902E-09  8.24469E-09  8.32750E-09  6.54312E-09
   7.16452E-09  5.69899E-09  5.16403E-09  5.54168E-09  6.79776E-09  6.29212E-09  6.42132E-09  6.21251E-09  6.70808E-09  5.92927E-09
   6.97443E-09  5.91984E-09  6.16394E-09  5.38814E-09  5.26778E-09  3.90088E-09  3.93831E-09  3.33168E-09  4.23443E-09  4.03701E-09
   4.97775E-09  3.92871E-09  4.29023E-09  3.80250E-09  4.54677E-09  4.44800E-09  4.06657E-09  3.28773E-09  3.73359E-09  4.01989E-09
   5.55144E-09  6.33147E-09  7.35304E-09  6.01761E-09  6.32665E-09  6.28374E-09  8.07190E-09  7.48500E-09  8.11408E-09  7.67710E-09
   7.95229E-09  7.32807E-09  8.05227E-09  7.25577E-09  7.43913E-09  7.40505E-09  8.05269E-09  7.59005E-09  7.48928E-09  8.07816E-09
   8.00299E-09  8.20633E-09  8.48910E-09  8.55372E-09  9.01116E-09  8.67949E-09  9.20248E-09  1.03897E-08  1.06960E-08  1.09392E-08
   1.51306E-08  1.98712E-08  2.31042E-08  2.21589E-08  1.94375E-08  1.62950E-08  1.48345E-08  1.25740E-08  1.22353E-08  1.01487E-08
   9.21430E-09  8.29847E-09  7.23270E-09  5.91975E-09  5.30317E-09  3.51237E-09  2.61416E-09  9.47589E-10  1.23214E-10 -1.60912E-09
  -2.57948E-09 -5.06923E-09 -6.47448E-09 -8.73936E-09 -1.02119E-08 -1.25863E-08 -1.40292E-08 -1.66239E-08 -1.81607E-08 -2.01179E-08
  -2.14622E-08 -2.27620E-08 -2.27867E-08 -2.34853E-08 -2.30288E-08 -2.22488E-08 -2.10098E-08 -1.97678E-08 -1.71197E-08 -1.56856E-08
  -1.27952E-08 -1.07238E-08 -8.24128E-09 -6.00940E-09 -3.92275E-09 -2.76290E-09 -1.36058E-09 -1.16497E-09  8.01936E-11 -1.57990E-10
  -1.32457E-10 -3.47074E-10 -7.49268E-10 -1.11332E-09 -1.43156E-09 -1.30007E-09 -1.43056E-09 -1.39803E-09 -6.19014E-10 -8.55120E-10
  -6.63381E-10 -1.00719E-09 -9.13548E-12 -8.40638E-10 -1.08707E-09 -1.25595E-09 -1.03998E-09 -1.45128E-09 -9.84052E-10 -8.28088E-10
  -5.14200E-11 -2.67430E-10  3.29115E-10 -5.20958E-10 -3.49383E-10 -1.02394E-09 -6.85652E-10 -7.86584E-10 -5.25240E-10 -9.59074E-10
  -2.84180E-10 -2.79071E-11  3.70521E-10  3.52879E-10  6.09163E-10  6.43700E-10  7.58036E-10 -6.56418E-11  3.61120E-10 -1.54127E-10
  -3.28314E-10 -6.07362E-10 -2.24198E-10 -8.56111E-10 -9.48939E-10 -4.36833E-10 -3.44083E-10 -5.69555E-10  5.14884E-10  1.42932E-10
   7.83364E-10  8.87119E-10  9.38406E-10  1.26783E-09  1.12712E-09  1.25062E-09  1.02385E-09  3.82332E-10  1.04728E-09  2.78309E-10
   6.16744E-10  2.56552E-10  1.73703E-10 -2.05637E-10 -3.35894E-10  2.68031E-10 -2.11955E-10 -2.30527E-10 -1.83610E-10  3.86503E-11
   8.74302E-11 -9.10222E-11 -1.70340E-10 -5.83803E-11  3.00489E-10 -2.74639E-10  4.26905E-10 -3.91277E-10  3.60834E-10 -1.03251E-10
   2.11533E-10 -1.32161E-10  4.08624E-10  1.90234E-10  4.99393E-10 -3.55489E-10  4.29062E-10  3.87648E-10 -8.07873E-11 -2.88938E-10
   3.17547E-10  3.12645E-11  3.32307E-10  1.79146E-10  3.83355E-10  2.57208E-10  5.25739E-10  4.20003E-10  3.73912E-10  4.78980E-10
   1.05241E-09  7.10183E-10  9.35237E-10  5.09267E-11  7.68224E-10  6.80115E-10  8.07865E-10  3.21902E-10  8.55344E-10  3.63887E-10
   9.77916E-10  1.02480E-09  8.12477E-10  8.50301E-10  1.01520E-09  1.04516E-09  1.08031E-09  8.32955E-10  6.45121E-10  7.77120E-10
   1.38478E-09  1.10439E-09  1.03079E-09  1.33438E-09  1.03894E-09  1.14440E-09  1.34657E-09  1.07583E-09  1.53505E-09  1.26401E-09
   1.07254E-09  1.34574E-09  1.59291E-09  7.86411E-10  1.58296E-09  1.26434E-09  1.55173E-09  1.44883E-09  1.83761E-09  1.39770E-09
   2.16176E-09  1.20854E-09  1.61569E-09
 NY points of the fit to the data follow
   1.41861E-08  1.66262E-08  1.78145E-08  1.61685E-08  1.54157E-08  1.58278E-08  1.58427E-08  1.48411E-08  1.36885E-08  1.34877E-08
   1.35846E-08  1.32811E-08  1.33715E-08  1.38902E-08  1.49428E-08  1.54553E-08  1.48409E-08  1.45895E-08  1.54349E-08  1.54064E-08
   1.43269E-08  1.34328E-08  1.32422E-08  1.31875E-08  1.34253E-08  1.33048E-08  1.34775E-08  1.43415E-08  1.52376E-08  1.51457E-08
   1.49948E-08  1.48526E-08  1.53128E-08  1.56339E-08  1.55061E-08  1.45585E-08  1.43476E-08  1.42647E-08  1.39937E-08  1.36100E-08
   1.33855E-08  1.33466E-08  1.29133E-08  1.17243E-08  1.10328E-08  1.05879E-08  1.02420E-08  9.95441E-09  9.71074E-09  9.50200E-09
   9.28668E-09  9.10700E-09  9.01590E-09  8.91460E-09  8.78923E-09  8.84966E-09  8.91256E-09  9.00609E-09  9.49738E-09  1.00441E-08
   1.03735E-08  1.08041E-08  1.14219E-08  1.18459E-08  1.21380E-08  1.22900E-08  1.22091E-08  1.22010E-08  1.20182E-08  1.11696E-08
   1.04709E-08  1.02052E-08  9.84945E-09  9.25349E-09  8.93280E-09  8.93893E-09  8.96896E-09  1.00317E-08  1.12578E-08  1.23278E-08
   1.36806E-08  1.53755E-08  1.66619E-08  1.71155E-08  1.70753E-08  1.68332E-08  1.65614E-08  1.61378E-08  1.40676E-08  1.24940E-08
   1.16216E-08  1.10253E-08  1.05834E-08  1.02212E-08  9.92357E-09  9.67309E-09  9.44935E-09  9.25107E-09  9.07319E-09  8.91182E-09
   8.76385E-09  8.62685E-09  8.49915E-09  8.37951E-09  8.26680E-09  8.16029E-09  8.05915E-09  7.96275E-09  7.87061E-09  7.78233E-09
   7.69757E-09  7.61600E-09  7.53736E-09  7.46138E-09  7.38775E-09  7.31611E-09  7.24623E-09  7.17782E-09  7.11062E-09  7.04440E-09
   6.97893E-09  6.91399E-09  6.84938E-09  6.78488E-09  6.72030E-09  6.65545E-09  6.59013E-09  6.52417E-09  6.45740E-09  6.38963E-09
   6.32067E-09  6.25038E-09  6.17859E-09  6.10511E-09  6.02981E-09  5.95250E-09  5.87306E-09  5.79132E-09  5.70714E-09  5.62036E-09
   5.53079E-09  5.43837E-09  5.34291E-09  5.24428E-09  5.14234E-09  5.03696E-09  4.92803E-09  4.81543E-09  4.69908E-09  4.57888E-09
   4.45483E-09  4.32686E-09  4.19502E-09  4.05938E-09  3.92012E-09  3.77749E-09  3.63196E-09  3.48421E-09  3.33536E-09  3.18712E-09
   3.04236E-09  2.90592E-09  2.78675E-09  2.70264E-09  2.69505E-09  2.88554E-09  3.80776E-09  7.48489E-09  1.10046E-08  1.35820E-08
   1.69552E-08  2.07823E-08  2.30244E-08  2.24963E-08  2.01893E-08  1.81123E-08  1.66796E-08  1.33465E-08  5.89516E-09  1.32033E-09
  -1.61845E-10 -9.47058E-10 -1.49122E-09 -1.92360E-09 -2.29358E-09 -2.62381E-09 -2.92584E-09 -3.20605E-09 -3.46806E-09 -3.71399E-09
  -3.94505E-09 -4.16187E-09 -4.36469E-09 -4.55350E-09 -4.72817E-09 -4.88839E-09 -5.03401E-09 -5.16545E-09 -5.28321E-09 -5.38778E-09
  -5.47960E-09 -5.55908E-09 -5.62663E-09 -5.68265E-09 -5.72752E-09 -5.76162E-09 -5.78531E-09 -5.79896E-09 -5.80292E-09 -5.79755E-09
  -5.78321E-09 -5.76023E-09 -5.72898E-09 -5.68979E-09 -5.64301E-09 -5.58898E-09 -5.52805E-09 -5.46053E-09 -5.38679E-09 -5.30715E-09
  -5.22195E-09 -5.13151E-09 -5.03617E-09 -4.93626E-09 -4.83211E-09 -4.72404E-09 -4.61238E-09 -4.49745E-09 -4.37957E-09 -4.25906E-09
  -4.13625E-09 -4.01143E-09 -3.88493E-09 -3.75705E-09 -3.62809E-09 -3.49837E-09 -3.36817E-09 -3.23781E-09 -3.10754E-09 -2.97770E-09
  -2.84855E-09 -2.72037E-09 -2.59344E-09 -2.46805E-09 -2.34444E-09 -2.22289E-09 -2.10366E-09 -1.98701E-09 -1.87320E-09 -1.76247E-09
  -1.65504E-09 -1.55119E-09 -1.45098E-09 -1.35434E-09 -1.26118E-09 -1.17141E-09 -1.08492E-09 -1.00164E-09 -9.21469E-10 -8.44312E-10
  -7.70084E-10 -6.98685E-10 -6.30037E-10 -5.64041E-10 -5.00618E-10 -4.39676E-10 -3.81113E-10 -3.24874E-10 -2.70858E-10 -2.18974E-10
  -1.69139E-10 -1.21285E-10 -7.53129E-11 -3.11495E-11  1.12730E-11  5.20595E-11  9.12583E-11  1.28962E-10  1.65237E-10  2.00168E-10
   2.33806E-10  2.66203E-10  2.97409E-10  3.27474E-10  3.56443E-10  3.84364E-10  4.11282E-10  4.37242E-10  4.62290E-10  4.86465E-10
   5.09811E-10  5.32369E-10  5.54179E-10  5.75280E-10  5.95708E-10  6.15501E-10  6.34694E-10  6.53321E-10  6.71414E-10  6.89010E-10
   7.06132E-10  7.22817E-10  7.39089E-10  7.54975E-10  7.70503E-10  7.85696E-10  8.00577E-10  8.15168E-10  8.29463E-10  8.43447E-10
   8.57101E-10  8.70410E-10  8.83357E-10  8.95924E-10  9.08096E-10  9.19856E-10  9.31186E-10  9.42072E-10  9.52498E-10  9.62446E-10
   9.71902E-10  9.80848E-10  9.89271E-10  9.97155E-10  1.00448E-09  1.01124E-09  1.01742E-09  1.02299E-09  1.02795E-09  1.03228E-09
   1.03596E-09  1.03899E-09  1.04134E-09  1.04301E-09  1.04398E-09  1.04423E-09  1.04375E-09  1.04252E-09  1.04053E-09  1.03775E-09
   1.03417E-09  1.02977E-09  1.02453E-09  1.01845E-09  1.01151E-09  1.00369E-09  9.94974E-10  9.85357E-10  9.74824E-10  9.63364E-10
   9.50963E-10  9.37613E-10  9.23302E-10  9.08021E-10  8.91761E-10  8.74513E-10  8.56270E-10  8.37023E-10  8.16766E-10  7.95494E-10
   7.73201E-10  7.49881E-10  7.25529E-10
 NY background values follow
     3.861E-09    3.925E-09    3.988E-09    4.050E-09    4.110E-09    4.170E-09    4.229E-09    4.287E-09    4.343E-09    4.399E-09
     4.453E-09    4.507E-09    4.559E-09    4.611E-09    4.661E-09    4.710E-09    4.758E-09    4.806E-09    4.852E-09    4.897E-09
     4.941E-09    4.984E-09    5.025E-09    5.066E-09    5.106E-09    5.144E-09    5.182E-09    5.219E-09    5.254E-09    5.288E-09
     5.321E-09    5.354E-09    5.385E-09    5.415E-09    5.444E-09    5.472E-09    5.499E-09    5.525E-09    5.550E-09    5.574E-09
     5.598E-09    5.620E-09    5.641E-09    5.662E-09    5.681E-09    5.700E-09    5.717E-09    5.734E-09    5.750E-09    5.765E-09
     5.780E-09    5.793E-09    5.806E-09    5.818E-09    5.830E-09    5.840E-09    5.850E-09    5.859E-09    5.868E-09    5.876E-09
     5.883E-09    5.889E-09    5.895E-09    5.900E-09    5.905E-09    5.908E-09    5.912E-09    5.914E-09    5.916E-09    5.917E-09
     5.917E-09    5.917E-09    5.916E-09    5.915E-09    5.912E-09    5.909E-09    5.906E-09    5.902E-09    5.897E-09    5.891E-09
     5.885E-09    5.878E-09    5.870E-09    5.862E-09    5.853E-09    5.843E-09    5.833E-09    5.822E-09    5.810E-09    5.798E-09
     5.785E-09    5.772E-09    5.758E-09    5.744E-09    5.729E-09    5.714E-09    5.698E-09    5.682E-09    5.666E-09    5.649E-09
     5.632E-09    5.615E-09    5.598E-09    5.580E-09    5.562E-09    5.544E-09    5.526E-09    5.508E-09    5.489E-09    5.471E-09
     5.453E-09    5.434E-09    5.416E-09    5.397E-09    5.379E-09    5.360E-09    5.341E-09    5.322E-09    5.302E-09    5.281E-09
     5.259E-09    5.237E-09    5.213E-09    5.189E-09    5.163E-09    5.135E-09    5.106E-09    5.075E-09    5.043E-09    5.008E-09
     4.972E-09    4.933E-09    4.892E-09    4.849E-09    4.803E-09    4.754E-09    4.702E-09    4.648E-09    4.590E-09    4.529E-09
     4.464E-09    4.396E-09    4.325E-09    4.249E-09    4.170E-09    4.086E-09    3.998E-09    3.906E-09    3.809E-09    3.707E-09
     3.601E-09    3.490E-09    3.373E-09    3.251E-09    3.124E-09    2.991E-09    2.853E-09    2.709E-09    2.558E-09    2.402E-09
     2.239E-09    2.070E-09    1.895E-09    1.712E-09    1.524E-09    1.328E-09    1.125E-09    9.147E-10    6.975E-10    4.737E-10
     2.441E-10    9.226E-12   -2.300E-10   -4.729E-10   -7.187E-10   -9.667E-10   -1.216E-09   -1.466E-09   -1.716E-09   -1.965E-09
    -2.213E-09   -2.458E-09   -2.701E-09   -2.939E-09   -3.173E-09   -3.402E-09   -3.624E-09   -3.840E-09   -4.049E-09   -4.249E-09
    -4.441E-09   -4.622E-09   -4.794E-09   -4.954E-09   -5.103E-09   -5.239E-09   -5.362E-09   -5.473E-09   -5.571E-09   -5.656E-09
    -5.730E-09   -5.793E-09   -5.844E-09   -5.885E-09   -5.914E-09   -5.934E-09   -5.943E-09   -5.943E-09   -5.934E-09   -5.916E-09
    -5.889E-09   -5.854E-09   -5.810E-09   -5.759E-09   -5.701E-09   -5.636E-09   -5.564E-09   -5.486E-09   -5.401E-09   -5.311E-09
    -5.216E-09   -5.115E-09   -5.010E-09   -4.900E-09   -4.787E-09   -4.669E-09   -4.548E-09   -4.424E-09   -4.297E-09   -4.168E-09
    -4.036E-09   -3.902E-09   -3.767E-09   -3.631E-09   -3.494E-09   -3.356E-09   -3.217E-09   -3.079E-09   -2.941E-09   -2.803E-09
    -2.666E-09   -2.530E-09   -2.396E-09   -2.263E-09   -2.132E-09   -2.003E-09   -1.876E-09   -1.752E-09   -1.632E-09   -1.514E-09
    -1.399E-09   -1.289E-09   -1.182E-09   -1.078E-09   -9.784E-10   -8.820E-10   -7.889E-10   -6.992E-10   -6.126E-10   -5.291E-10
    -4.486E-10   -3.709E-10   -2.961E-10   -2.240E-10   -1.545E-10   -8.761E-11   -2.312E-11    3.899E-11    9.883E-11    1.565E-10
     2.120E-10    2.655E-10    3.171E-10    3.668E-10    4.147E-10    4.610E-10    5.056E-10    5.486E-10    5.902E-10    6.303E-10
     6.692E-10    7.067E-10    7.430E-10    7.781E-10    8.121E-10    8.450E-10    8.768E-10    9.077E-10    9.375E-10    9.665E-10
     9.946E-10    1.022E-09    1.048E-09    1.074E-09    1.099E-09    1.123E-09    1.147E-09    1.170E-09    1.193E-09    1.214E-09
     1.236E-09    1.257E-09    1.277E-09    1.297E-09    1.317E-09    1.336E-09    1.355E-09    1.374E-09    1.392E-09    1.410E-09
     1.428E-09    1.445E-09    1.462E-09    1.478E-09    1.494E-09    1.510E-09    1.525E-09    1.539E-09    1.553E-09    1.567E-09
     1.580E-09    1.593E-09    1.604E-09    1.616E-09    1.627E-09    1.637E-09    1.646E-09    1.655E-09    1.663E-09    1.671E-09
     1.678E-09    1.684E-09    1.690E-09    1.695E-09    1.699E-09    1.702E-09    1.705E-09    1.706E-09    1.707E-09    1.708E-09
     1.707E-09    1.705E-09    1.703E-09    1.700E-09    1.696E-09    1.691E-09    1.685E-09    1.678E-09    1.670E-09    1.661E-09
     1.651E-09    1.640E-09    1.629E-09    1.616E-09    1.602E-09    1.587E-09    1.572E-09    1.555E-09    1.537E-09    1.518E-09
     1.498E-09    1.477E-09    1.455E-09
 Cr       Conc. = 5.27E-10
   5.02170E-09  5.38886E-09  5.70456E-09  5.33447E-09  5.00436E-09  4.83781E-09  4.74512E-09  4.69138E-09  4.66068E-09  4.64458E-09
   4.63817E-09  4.63828E-09  4.64276E-09  4.65006E-09  4.65904E-09  4.66874E-09  4.67839E-09  4.68730E-09  4.69481E-09  4.70023E-09
   4.70285E-09  4.70184E-09  4.69625E-09  4.68482E-09  4.66594E-09  4.63743E-09  4.59608E-09  4.53708E-09  4.45278E-09  4.33050E-09
   4.15456E-09  4.07355E-09  4.53749E-09  4.89777E-09  5.27518E-09  5.93280E-09  6.80835E-09  7.56305E-09  7.96415E-09  8.12231E-09
   8.35679E-09  8.72315E-09  8.63772E-09  7.71395E-09  7.26824E-09  7.01635E-09  6.85262E-09  6.73716E-09  6.65135E-09  6.58522E-09
   6.53286E-09  6.49044E-09  6.45550E-09  6.42624E-09  6.40147E-09  6.38010E-09  6.36149E-09  6.34513E-09  6.33054E-09  6.31737E-09
   6.30533E-09  6.29419E-09  6.28376E-09  6.27385E-09  6.26435E-09  6.25514E-09  6.24611E-09  6.23717E-09  6.22826E-09  6.21931E-09
   6.21025E-09  6.20105E-09  6.19164E-09  6.18201E-09  6.17209E-09  6.16189E-09  6.15136E-09  6.14045E-09  6.12917E-09  6.11750E-09
   6.10537E-09  6.09283E-09  6.07979E-09  6.06632E-09  6.05230E-09  6.03783E-09  6.02287E-09  6.00744E-09  5.99155E-09  5.97522E-09
   5.95848E-09  5.94132E-09  5.92378E-09  5.90586E-09  5.88761E-09  5.86900E-09  5.85010E-09  5.83091E-09  5.81146E-09  5.79178E-09
   5.77186E-09  5.75176E-09  5.73149E-09  5.71108E-09  5.69054E-09  5.66991E-09  5.64922E-09  5.62848E-09  5.60772E-09  5.58699E-09
   5.56630E-09  5.54568E-09  5.52511E-09  5.50461E-09  5.48404E-09  5.46327E-09  5.44223E-09  5.42075E-09  5.39875E-09  5.37609E-09
   5.35266E-09  5.32832E-09  5.30297E-09  5.27649E-09  5.24872E-09  5.21957E-09  5.18890E-09  5.15657E-09  5.12247E-09  5.08647E-09
   5.04841E-09  5.00819E-09  4.96567E-09  4.92070E-09  4.87318E-09  4.82293E-09  4.76986E-09  4.71383E-09  4.65469E-09  4.59231E-09
   4.52651E-09  4.45723E-09  4.38429E-09  4.30754E-09  4.22683E-09  4.14202E-09  4.05298E-09  3.95954E-09  3.86157E-09  3.75892E-09
   3.65148E-09  3.53906E-09  3.42157E-09  3.29885E-09  3.17080E-09  3.03726E-09  2.89816E-09  2.75337E-09  2.60283E-09  2.44650E-09
   2.28439E-09  2.11666E-09  1.94374E-09  1.76659E-09  1.58805E-09  1.41784E-09  1.30885E-09  1.33772E-09  1.26365E-09  1.18193E-09
   1.15304E-09  1.10551E-09  9.32891E-10  6.22348E-10  2.64646E-10 -5.04459E-11 -3.64971E-10 -8.48944E-10 -1.48049E-09 -1.82829E-09
  -2.11340E-09 -2.37832E-09 -2.63275E-09 -2.87960E-09 -3.11972E-09 -3.35319E-09 -3.57974E-09 -3.79891E-09 -4.01012E-09 -4.21279E-09
  -4.40626E-09 -4.58990E-09 -4.76302E-09 -4.92493E-09 -5.07498E-09 -5.21247E-09 -5.33695E-09 -5.44859E-09 -5.54772E-09 -5.63464E-09
  -5.70967E-09 -5.77313E-09 -5.82535E-09 -5.86663E-09 -5.89730E-09 -5.91768E-09 -5.92810E-09 -5.92888E-09 -5.92033E-09 -5.90280E-09
  -5.87661E-09 -5.84208E-09 -5.79953E-09 -5.74931E-09 -5.69173E-09 -5.62712E-09 -5.55582E-09 -5.47813E-09 -5.39441E-09 -5.30496E-09
  -5.21012E-09 -5.11021E-09 -5.00555E-09 -4.89647E-09 -4.78328E-09 -4.66632E-09 -4.54590E-09 -4.42233E-09 -4.29594E-09 -4.16704E-09
  -4.03594E-09 -3.90295E-09 -3.76839E-09 -3.63255E-09 -3.49573E-09 -3.35825E-09 -3.22039E-09 -3.08245E-09 -2.94470E-09 -2.80746E-09
  -2.67100E-09 -2.53559E-09 -2.40152E-09 -2.26907E-09 -2.13847E-09 -2.01002E-09 -1.88396E-09 -1.76056E-09 -1.64006E-09 -1.52272E-09
  -1.40875E-09 -1.29842E-09 -1.19181E-09 -1.08883E-09 -9.89394E-10 -8.93414E-10 -8.00783E-10 -7.11419E-10 -6.25220E-10 -5.42098E-10
  -4.61966E-10 -3.84720E-10 -3.10284E-10 -2.38555E-10 -1.69456E-10 -1.02893E-10 -3.87624E-11  2.29896E-11  8.24664E-11  1.39759E-10
   1.94950E-10  2.48110E-10  2.99338E-10  3.48706E-10  3.96285E-10  4.42179E-10  4.86437E-10  5.29153E-10  5.70393E-10  6.10242E-10
   6.48753E-10  6.85978E-10  7.21968E-10  7.56771E-10  7.90435E-10  8.23007E-10  8.54533E-10  8.85059E-10  9.14630E-10  9.43287E-10
   9.71073E-10  9.98030E-10  1.02420E-09  1.04962E-09  1.07432E-09  1.09835E-09  1.12175E-09  1.14453E-09  1.16675E-09  1.18843E-09
   1.20960E-09  1.23029E-09  1.25053E-09  1.27035E-09  1.28978E-09  1.30883E-09  1.32754E-09  1.34592E-09  1.36397E-09  1.38167E-09
   1.39901E-09  1.41597E-09  1.43253E-09  1.44867E-09  1.46439E-09  1.47966E-09  1.49447E-09  1.50880E-09  1.52264E-09  1.53597E-09
   1.54877E-09  1.56103E-09  1.57274E-09  1.58387E-09  1.59442E-09  1.60436E-09  1.61369E-09  1.62239E-09  1.63044E-09  1.63783E-09
   1.64455E-09  1.65058E-09  1.65590E-09  1.66051E-09  1.66439E-09  1.66752E-09  1.66990E-09  1.67149E-09  1.67229E-09  1.67227E-09
   1.67143E-09  1.66973E-09  1.66718E-09  1.66374E-09  1.65942E-09  1.65419E-09  1.64804E-09  1.64096E-09  1.63293E-09  1.62395E-09
   1.61400E-09  1.60308E-09  1.59116E-09  1.57825E-09  1.56433E-09  1.54940E-09  1.53345E-09  1.51646E-09  1.49844E-09  1.47938E-09
   1.45926E-09  1.43810E-09  1.41588E-09
 Glc      Conc. = 7.15E-10
   3.25052E-09  3.58695E-09  3.88049E-09  4.19839E-09  4.49434E-09  4.77168E-09  4.89169E-09  5.00342E-09  5.07169E-09  4.96343E-09
   4.87915E-09  4.82418E-09  4.73392E-09  4.73164E-09  4.93149E-09  5.18899E-09  5.44329E-09  5.80207E-09  6.22512E-09  6.63222E-09
   6.99184E-09  7.21311E-09  7.32220E-09  7.48644E-09  7.57081E-09  7.38789E-09  7.17703E-09  7.04210E-09  6.97482E-09  6.96952E-09
   6.94606E-09  6.88805E-09  6.87343E-09  6.86485E-09  6.78720E-09  6.71763E-09  6.68526E-09  6.63879E-09  6.57920E-09  6.53309E-09
   6.49827E-09  6.47032E-09  6.44774E-09  6.42909E-09  6.41350E-09  6.40030E-09  6.38903E-09  6.37932E-09  6.37079E-09  6.36326E-09
   6.35652E-09  6.35037E-09  6.34471E-09  6.33943E-09  6.33448E-09  6.32966E-09  6.32497E-09  6.32039E-09  6.31581E-09  6.31120E-09
   6.30651E-09  6.30169E-09  6.29670E-09  6.29150E-09  6.28607E-09  6.28039E-09  6.27442E-09  6.26813E-09  6.26150E-09  6.25452E-09
   6.24717E-09  6.23943E-09  6.23127E-09  6.22270E-09  6.21368E-09  6.20423E-09  6.19432E-09  6.18391E-09  6.17303E-09  6.16167E-09
   6.14976E-09  6.13738E-09  6.12442E-09  6.11098E-09  6.09693E-09  6.08239E-09  6.06731E-09  6.05172E-09  6.03565E-09  6.01909E-09
   6.00211E-09  5.98467E-09  5.96684E-09  5.94861E-09  5.93003E-09  5.91107E-09  5.89181E-09  5.87226E-09  5.85242E-09  5.83235E-09
   5.81203E-09  5.79152E-09  5.77083E-09  5.75000E-09  5.72904E-09  5.70798E-09  5.68686E-09  5.66568E-09  5.64449E-09  5.62332E-09
   5.60219E-09  5.58113E-09  5.56013E-09  5.53918E-09  5.51818E-09  5.49697E-09  5.47549E-09  5.45358E-09  5.43114E-09  5.40804E-09
   5.38418E-09  5.35942E-09  5.33365E-09  5.30673E-09  5.27855E-09  5.24898E-09  5.21789E-09  5.18515E-09  5.15065E-09  5.11423E-09
   5.07577E-09  5.03516E-09  4.99224E-09  4.94687E-09  4.89896E-09  4.84834E-09  4.79488E-09  4.73847E-09  4.67897E-09  4.61622E-09
   4.55006E-09  4.48043E-09  4.40714E-09  4.33004E-09  4.24900E-09  4.16387E-09  4.07450E-09  3.98076E-09  3.88249E-09  3.77956E-09
   3.67184E-09  3.55917E-09  3.44144E-09  3.31852E-09  3.19028E-09  3.05661E-09  2.91741E-09  2.77259E-09  2.62211E-09  2.46594E-09
   2.30418E-09  2.13703E-09  1.96510E-09  1.78961E-09  1.61398E-09  1.44934E-09  1.35190E-09  1.47687E-09  1.46177E-09  1.42493E-09
   1.46703E-09  1.50132E-09  1.37282E-09  1.04706E-09  6.42096E-10  2.94932E-10 -2.88745E-11 -5.64438E-10 -1.37384E-09 -1.77610E-09
  -2.07825E-09 -2.35107E-09 -2.61004E-09 -2.85986E-09 -3.10207E-09 -3.33713E-09 -3.56493E-09 -3.78513E-09 -3.99720E-09 -4.20061E-09
  -4.39474E-09 -4.57897E-09 -4.75262E-09 -4.91501E-09 -5.06551E-09 -5.20344E-09 -5.32831E-09 -5.44033E-09 -5.53981E-09 -5.62708E-09
  -5.70245E-09 -5.76623E-09 -5.81875E-09 -5.86033E-09 -5.89129E-09 -5.91196E-09 -5.92265E-09 -5.92370E-09 -5.91543E-09 -5.89815E-09
  -5.87222E-09 -5.83793E-09 -5.79563E-09 -5.74565E-09 -5.68831E-09 -5.62394E-09 -5.55286E-09 -5.47541E-09 -5.39191E-09 -5.30268E-09
  -5.20806E-09 -5.10836E-09 -5.00391E-09 -4.89504E-09 -4.78207E-09 -4.66532E-09 -4.54510E-09 -4.42173E-09 -4.29554E-09 -4.16683E-09
