 LCModel (Version 6.3-1R) Copyright: S.W. Provencher.          Ref.: Magn. Reson. Med. 30:672-679 (1993).                
 onepulse 25x24_ftSpec_smooth_lcm
 26 lines in following concentration table = NCONC+1
    Conc.  %SD /Cr+PCr  Metabolite                                         
    0.000 999%   0.000 Ala                                                 
    0.000 999%   0.000 Asp                                                 
 3.35E-10  99%   1.000 Cr                                                  
    0.000 999%   0.000 GABA                                                
 8.56E-10 118%   2.551 Glc                                                 
 9.84E-10 106%   2.933 Gln                                                 
 1.07E-09  83%   3.179 Glu                                                 
    0.000 999%   0.000 Glyc                                                
    0.000 999%   0.000 GPC                                                 
    0.000 999%   0.000 GSH                                                 
 1.23E-09  45%   3.678 Ins                                                 
    0.000 999%   0.000 Lac                                                 
    0.000 999%   0.000 NAAG                                                
 8.16E-10  43%   2.432 NAA                                                 
 1.79E-10  61%   0.534 PCh                                                 
    0.000 999%   0.000 PCr                                                 
    0.000 999%   0.000 PE                                                  
 1.59E-10 135%   0.473 Scyllo                                              
 4.21E-09  31%  12.560 Ser                                                 
    0.000 999%   0.000 Tau                                                 
 1.79E-10  61%   0.534 GPC+PCh                                             
 8.16E-10  43%   2.432 NAA+NAAG                                            
 1.23E-09  45%   3.678 Ins+Glyc                                            
 3.35E-10  99%   1.000 Cr+PCr                                              
 2.05E-09  37%   6.112 Glu+Gln                                             
   6 lines in following misc. output table
  FWHM = 0.089 ppm    S/N =   3                                            
  Data shift = 0.335 ppm                                                   
  Ph: -50 deg     -20.5 deg/ppm                                            
  alphaB,S = 1.7E-01,   7.9E+01                                            
   16 spline knots.   Ns = 5(1)                                            
  ( 6) 2 infls.   ( 5) 1 extrs.                                            
  363 points on ppm-axis = NY
      4.250000     4.238821     4.227641     4.216462     4.205282     4.194103     4.182923     4.171744     4.160564     4.149385
      4.138206     4.127026     4.115847     4.104667     4.093488     4.082308     4.071129     4.059949     4.048770     4.037591
      4.026411     4.015232     4.004052     3.992873     3.981693     3.970514     3.959334     3.948155     3.936975     3.925796
      3.914617     3.903437     3.892258     3.881078     3.869899     3.858719     3.847540     3.836360     3.825181     3.814002
      3.802822     3.791643     3.780463     3.769284     3.758104     3.746925     3.735745     3.724566     3.713387     3.702207
      3.691028     3.679848     3.668669     3.657489     3.646310     3.635130     3.623951     3.612772     3.601592     3.590413
      3.579233     3.568054     3.556874     3.545695     3.534515     3.523336     3.512156     3.500977     3.489798     3.478618
      3.467439     3.456259     3.445080     3.433900     3.422721     3.411541     3.400362     3.389183     3.378003     3.366824
      3.355644     3.344465     3.333285     3.322106     3.310926     3.299747     3.288568     3.277388     3.266209     3.255029
      3.243850     3.232670     3.221491     3.210311     3.199132     3.187953     3.176773     3.165594     3.154414     3.143235
      3.132055     3.120876     3.109696     3.098517     3.087337     3.076158     3.064979     3.053799     3.042620     3.031440
      3.020261     3.009081     2.997902     2.986722     2.975543     2.964364     2.953184     2.942005     2.930825     2.919646
      2.908466     2.897287     2.886107     2.874928     2.863749     2.852569     2.841390     2.830210     2.819031     2.807851
      2.796672     2.785492     2.774313     2.763134     2.751954     2.740775     2.729595     2.718416     2.707236     2.696057
      2.684877     2.673698     2.662519     2.651339     2.640160     2.628980     2.617801     2.606621     2.595442     2.584262
      2.573083     2.561903     2.550724     2.539545     2.528365     2.517186     2.506006     2.494827     2.483647     2.472468
      2.461288     2.450109     2.438930     2.427750     2.416571     2.405391     2.394212     2.383032     2.371853     2.360673
      2.349494     2.338315     2.327135     2.315956     2.304776     2.293597     2.282417     2.271238     2.260058     2.248879
      2.237700     2.226520     2.215341     2.204161     2.192982     2.181802     2.170623     2.159443     2.148264     2.137084
      2.125905     2.114726     2.103546     2.092367     2.081187     2.070008     2.058828     2.047649     2.036469     2.025290
      2.014111     2.002931     1.991752     1.980572     1.969393     1.958213     1.947034     1.935854     1.924675     1.913496
      1.902316     1.891137     1.879957     1.868778     1.857598     1.846419     1.835239     1.824060     1.812881     1.801701
      1.790522     1.779342     1.768163     1.756983     1.745804     1.734624     1.723445     1.712265     1.701086     1.689907
      1.678727     1.667548     1.656368     1.645189     1.634009     1.622830     1.611650     1.600471     1.589292     1.578112
      1.566933     1.555753     1.544574     1.533394     1.522215     1.511035     1.499856     1.488677     1.477497     1.466318
      1.455138     1.443959     1.432779     1.421600     1.410420     1.399241     1.388062     1.376882     1.365703     1.354523
      1.343344     1.332164     1.320985     1.309805     1.298626     1.287446     1.276267     1.265088     1.253908     1.242729
      1.231549     1.220370     1.209190     1.198011     1.186831     1.175652     1.164473     1.153293     1.142114     1.130934
      1.119755     1.108575     1.097396     1.086216     1.075037     1.063858     1.052678     1.041499     1.030319     1.019140
      1.007960     0.996781     0.985601     0.974422     0.963243     0.952063     0.940884     0.929704     0.918525     0.907345
      0.896166     0.884986     0.873807     0.862628     0.851448     0.840269     0.829089     0.817910     0.806730     0.795551
      0.784371     0.773192     0.762012     0.750833     0.739654     0.728474     0.717295     0.706115     0.694936     0.683756
      0.672577     0.661397     0.650218     0.639039     0.627859     0.616680     0.605500     0.594321     0.583141     0.571962
      0.560782     0.549603     0.538424     0.527244     0.516065     0.504885     0.493706     0.482526     0.471347     0.460167
      0.448988     0.437809     0.426629     0.415450     0.404270     0.393091     0.381911     0.370732     0.359552     0.348373
      0.337193     0.326014     0.314835     0.303655     0.292476     0.281296     0.270117     0.258937     0.247758     0.236578
      0.225399     0.214220     0.203040
 NY phased data points follow
   1.67260E-08  1.85499E-08  2.15406E-08  2.14352E-08  2.08753E-08  1.90526E-08  1.80779E-08  1.65552E-08  1.62584E-08  1.48830E-08
   1.54619E-08  1.46214E-08  1.57674E-08  1.47964E-08  1.58521E-08  1.57902E-08  1.72927E-08  1.59191E-08  1.65191E-08  1.57602E-08
   1.59776E-08  1.51010E-08  1.51345E-08  1.36632E-08  1.45367E-08  1.41512E-08  1.49892E-08  1.53054E-08  1.54732E-08  1.38637E-08
   1.43055E-08  1.32357E-08  1.47259E-08  1.52941E-08  1.71009E-08  1.66042E-08  1.66502E-08  1.45880E-08  1.43161E-08  1.22318E-08
   1.18876E-08  1.12417E-08  1.11668E-08  1.11412E-08  1.07279E-08  9.68703E-09  1.00872E-08  9.19408E-09  8.91667E-09  8.29703E-09
   8.35463E-09  8.19098E-09  8.76847E-09  8.88222E-09  9.25474E-09  8.28198E-09  8.27313E-09  7.48977E-09  7.92238E-09  7.71297E-09
   8.38923E-09  8.72509E-09  9.52891E-09  1.04818E-08  1.33107E-08  1.50813E-08  1.56603E-08  1.46972E-08  1.31647E-08  1.09168E-08
   1.03189E-08  9.52977E-09  9.19102E-09  7.76577E-09  8.41732E-09  7.41917E-09  7.32092E-09  7.59705E-09  7.75857E-09  8.56114E-09
   1.26202E-08  1.59768E-08  1.81173E-08  1.82896E-08  1.69439E-08  1.51060E-08  1.39878E-08  1.27431E-08  1.23876E-08  1.13417E-08
   1.16883E-08  1.09153E-08  1.01812E-08  9.68757E-09  9.58016E-09  8.42939E-09  8.40535E-09  7.27268E-09  7.58721E-09  7.32806E-09
   6.46619E-09  6.77922E-09  6.58344E-09  6.98296E-09  7.06430E-09  7.19671E-09  6.72637E-09  6.18575E-09  6.69289E-09  5.74156E-09
   5.39311E-09  5.03901E-09  4.24834E-09  3.49964E-09  4.46774E-09  5.16704E-09  5.24354E-09  4.99450E-09  5.42189E-09  4.78126E-09
   4.99509E-09  5.28653E-09  4.74466E-09  4.47494E-09  4.48307E-09  3.75610E-09  3.10223E-09  2.81666E-09  2.59626E-09  3.13886E-09
   3.68667E-09  3.72549E-09  3.48375E-09  3.26115E-09  3.49773E-09  3.77777E-09  3.80853E-09  3.18888E-09  3.44184E-09  2.79905E-09
   3.89505E-09  4.77275E-09  5.84732E-09  6.00124E-09  5.02403E-09  5.29089E-09  5.55546E-09  6.53187E-09  6.27476E-09  6.43192E-09
   6.75658E-09  5.97263E-09  6.59740E-09  6.56921E-09  6.24463E-09  6.14023E-09  6.46460E-09  6.70088E-09  6.61074E-09  6.53953E-09
   7.01731E-09  6.71051E-09  7.45313E-09  7.60467E-09  7.75972E-09  7.65046E-09  8.35231E-09  7.98627E-09  9.60757E-09  1.03567E-08
   1.18616E-08  1.55163E-08  1.87824E-08  2.11127E-08  2.03775E-08  1.70285E-08  1.40794E-08  1.20823E-08  1.00628E-08  9.30460E-09
   7.62697E-09  6.67164E-09  6.20072E-09  4.91088E-09  4.15718E-09  3.14230E-09  2.14888E-09  8.07519E-10  1.00181E-10 -1.13601E-09
  -1.96620E-09 -3.54311E-09 -5.42284E-09 -6.93390E-09 -8.27942E-09 -9.69521E-09 -1.16897E-08 -1.35731E-08 -1.54446E-08 -1.71643E-08
  -1.91391E-08 -2.11714E-08 -2.21460E-08 -2.27229E-08 -2.38092E-08 -2.36441E-08 -2.35758E-08 -2.28438E-08 -2.16549E-08 -1.95406E-08
  -1.80923E-08 -1.54383E-08 -1.32346E-08 -1.07756E-08 -8.31463E-09 -6.05788E-09 -3.67003E-09 -2.33825E-09 -9.91984E-10  3.93404E-10
   7.58910E-10  9.46079E-10  6.11208E-10  5.05770E-11  5.36136E-10 -6.75597E-10 -6.08780E-10 -1.46126E-09 -7.03367E-10 -4.43994E-10
  -9.40809E-11 -5.54385E-10 -3.08271E-11  2.44758E-10 -4.32187E-12 -1.01419E-09 -6.50842E-10 -7.56339E-10 -6.21351E-10 -7.51938E-10
  -2.65098E-10  4.82610E-11  1.79167E-10  4.55054E-10 -5.51292E-11 -4.22750E-11  6.75501E-11 -4.07726E-10 -1.25042E-10 -4.36934E-10
  -4.77590E-10 -4.65443E-10  2.26373E-10  2.30504E-10  4.70404E-10  4.48651E-10  1.19978E-09  8.41015E-10  7.70778E-10  5.00858E-10
   7.22761E-10 -4.16708E-10  3.27204E-11 -3.59124E-10 -5.98390E-10 -1.06153E-09 -3.97276E-11 -2.62309E-10 -2.37357E-10  3.31598E-10
   7.10001E-10  9.67487E-10  7.88415E-10  7.71716E-10  1.85487E-09  9.87443E-10  1.51707E-09  1.22183E-09  8.17702E-10  9.83821E-10
   1.05697E-09  8.37785E-10  5.15684E-10  2.53487E-10  3.15274E-10  3.50365E-10  9.97175E-10 -1.63147E-10  3.32129E-10  6.65429E-11
   4.65578E-10  5.62761E-10  5.93278E-10  3.60002E-10  8.34185E-11  3.97455E-10  3.77400E-10  5.01861E-10  2.18885E-10  7.61104E-10
   4.99998E-10 -5.95569E-11  2.51649E-10  2.03659E-10  4.36558E-10  4.99788E-10  3.83892E-10  3.39257E-10  9.09938E-10 -2.37237E-10
   3.19395E-10  1.96523E-10  6.16294E-10  4.82242E-10  9.08825E-10  2.85451E-10  8.26889E-10  7.13733E-10  7.10045E-10  3.91149E-10
   1.00176E-09  8.58377E-10  1.11597E-09  7.78701E-10  7.09089E-10  5.27434E-10  8.30376E-10  9.69553E-10  7.25249E-10  7.01756E-10
   7.07938E-10  1.44837E-09  1.36249E-09  1.01649E-09  1.35980E-09  1.28051E-09  1.37501E-09  9.02502E-10  9.99082E-10  7.12052E-10
   1.32091E-09  1.20491E-09  1.57804E-09  1.10412E-09  1.70916E-09  1.29286E-09  1.25539E-09  1.41829E-09  1.10251E-09  1.26721E-09
   1.88486E-09  1.03146E-09  1.87363E-09  1.82715E-09  1.18339E-09  1.56539E-09  1.78143E-09  1.30967E-09  1.90543E-09  1.86399E-09
   1.94423E-09  2.24497E-09  1.47034E-09
 NY points of the fit to the data follow
   1.88118E-08  1.94529E-08  1.94581E-08  1.91703E-08  1.93553E-08  1.94187E-08  1.88147E-08  1.76384E-08  1.63826E-08  1.55665E-08
   1.51100E-08  1.49028E-08  1.49888E-08  1.52589E-08  1.57244E-08  1.61061E-08  1.62506E-08  1.63463E-08  1.62718E-08  1.58233E-08
   1.53104E-08  1.49597E-08  1.46879E-08  1.43515E-08  1.41825E-08  1.41964E-08  1.43995E-08  1.46759E-08  1.48915E-08  1.50378E-08
   1.52932E-08  1.54150E-08  1.53958E-08  1.50969E-08  1.44839E-08  1.37269E-08  1.33708E-08  1.32138E-08  1.31192E-08  1.29773E-08
   1.26974E-08  1.22136E-08  1.15169E-08  1.07993E-08  1.03603E-08  1.00571E-08  9.81732E-09  9.60524E-09  9.40987E-09  9.23564E-09
   9.07245E-09  8.91712E-09  8.77984E-09  8.64800E-09  8.54248E-09  8.53218E-09  8.59083E-09  8.70967E-09  8.94559E-09  9.28020E-09
   9.61314E-09  9.97304E-09  1.04660E-08  1.10008E-08  1.14950E-08  1.18600E-08  1.20380E-08  1.20333E-08  1.17729E-08  1.13006E-08
   1.08276E-08  1.03323E-08  9.70269E-09  9.10209E-09  8.76942E-09  8.62403E-09  8.65368E-09  9.28917E-09  1.04183E-08  1.17721E-08
   1.31760E-08  1.45040E-08  1.56015E-08  1.63533E-08  1.66306E-08  1.62988E-08  1.53515E-08  1.38812E-08  1.20911E-08  1.09089E-08
   1.01834E-08  9.66194E-09  9.25703E-09  8.92008E-09  8.63892E-09  8.39531E-09  8.17647E-09  7.98163E-09  7.80595E-09  7.64556E-09
   7.49768E-09  7.36042E-09  7.23228E-09  7.11209E-09  6.99879E-09  6.89156E-09  6.78977E-09  6.69282E-09  6.60032E-09  6.51188E-09
   6.42720E-09  6.34598E-09  6.26798E-09  6.19295E-09  6.12058E-09  6.05054E-09  5.98259E-09  5.91644E-09  5.85185E-09  5.78857E-09
   5.72639E-09  5.66509E-09  5.60444E-09  5.54426E-09  5.48432E-09  5.42445E-09  5.36444E-09  5.30410E-09  5.24328E-09  5.18176E-09
   5.11936E-09  5.05593E-09  4.99127E-09  4.92521E-09  4.85759E-09  4.78823E-09  4.71697E-09  4.64365E-09  4.56810E-09  4.49015E-09
   4.40961E-09  4.32639E-09  4.24030E-09  4.15120E-09  4.05893E-09  3.96335E-09  3.86433E-09  3.76173E-09  3.65544E-09  3.54533E-09
   3.43134E-09  3.31337E-09  3.19138E-09  3.06537E-09  2.93539E-09  2.80156E-09  2.66414E-09  2.52355E-09  2.38049E-09  2.23611E-09
   2.09234E-09  1.95250E-09  1.82269E-09  1.71489E-09  1.65622E-09  1.72256E-09  2.22648E-09  4.35872E-09  7.74439E-09  1.14292E-08
   1.49919E-08  1.81936E-08  2.06445E-08  2.18084E-08  2.12307E-08  1.87396E-08  1.44258E-08  8.75964E-09  3.25446E-09  4.57850E-10
  -6.53300E-10 -1.31924E-09 -1.81050E-09 -2.21317E-09 -2.56310E-09 -2.87784E-09 -3.16681E-09 -3.43538E-09 -3.68674E-09 -3.92279E-09
  -4.14465E-09 -4.35291E-09 -4.54784E-09 -4.72945E-09 -4.89760E-09 -5.05206E-09 -5.19267E-09 -5.31982E-09 -5.43397E-09 -5.53554E-09
  -5.62492E-09 -5.70250E-09 -5.76861E-09 -5.82361E-09 -5.86783E-09 -5.90157E-09 -5.92516E-09 -5.93891E-09 -5.94312E-09 -5.93808E-09
  -5.92410E-09 -5.90145E-09 -5.87045E-09 -5.83137E-09 -5.78450E-09 -5.73014E-09 -5.66855E-09 -5.60004E-09 -5.52487E-09 -5.44333E-09
  -5.35570E-09 -5.26226E-09 -5.16328E-09 -5.05905E-09 -4.94987E-09 -4.83610E-09 -4.71809E-09 -4.59620E-09 -4.47079E-09 -4.34222E-09
  -4.21084E-09 -4.07700E-09 -3.94106E-09 -3.80335E-09 -3.66422E-09 -3.52402E-09 -3.38308E-09 -3.24176E-09 -3.10035E-09 -2.95923E-09
  -2.81872E-09 -2.67911E-09 -2.54077E-09 -2.40400E-09 -2.26910E-09 -2.13641E-09 -2.00622E-09 -1.87884E-09 -1.75458E-09 -1.63375E-09
  -1.51660E-09 -1.40347E-09 -1.29446E-09 -1.18947E-09 -1.08843E-09 -9.91241E-10 -8.97781E-10 -8.07968E-10 -7.21694E-10 -6.38866E-10
  -5.59388E-10 -4.83151E-10 -4.10072E-10 -3.40040E-10 -2.72972E-10 -2.08763E-10 -1.47304E-10 -8.85324E-11 -3.23356E-11  2.13877E-11
   7.27296E-11  1.21768E-10  1.68616E-10  2.13356E-10  2.56065E-10  2.96865E-10  3.35812E-10  3.73013E-10  4.08548E-10  4.42514E-10
   4.74973E-10  5.05988E-10  5.35617E-10  5.63919E-10  5.90949E-10  6.16766E-10  6.41425E-10  6.64983E-10  6.87495E-10  7.09013E-10
   7.29592E-10  7.49285E-10  7.68144E-10  7.86221E-10  8.03565E-10  8.20228E-10  8.36256E-10  8.51700E-10  8.66604E-10  8.81020E-10
   8.94987E-10  9.08554E-10  9.21765E-10  9.34658E-10  9.47280E-10  9.59671E-10  9.71868E-10  9.83911E-10  9.95812E-10  1.00757E-09
   1.01918E-09  1.03065E-09  1.04197E-09  1.05314E-09  1.06415E-09  1.07502E-09  1.08573E-09  1.09628E-09  1.10667E-09  1.11690E-09
   1.12696E-09  1.13686E-09  1.14658E-09  1.15614E-09  1.16552E-09  1.17472E-09  1.18373E-09  1.19257E-09  1.20121E-09  1.20966E-09
   1.21792E-09  1.22598E-09  1.23383E-09  1.24148E-09  1.24891E-09  1.25613E-09  1.26312E-09  1.26986E-09  1.27635E-09  1.28255E-09
   1.28847E-09  1.29407E-09  1.29935E-09  1.30430E-09  1.30890E-09  1.31314E-09  1.31700E-09  1.32047E-09  1.32353E-09  1.32619E-09
   1.32841E-09  1.33020E-09  1.33154E-09  1.33242E-09  1.33282E-09  1.33275E-09  1.33219E-09  1.33112E-09  1.32955E-09  1.32745E-09
   1.32483E-09  1.32168E-09  1.31798E-09
 NY background values follow
     6.275E-09    6.308E-09    6.340E-09    6.370E-09    6.399E-09    6.427E-09    6.453E-09    6.478E-09    6.502E-09    6.525E-09
     6.546E-09    6.566E-09    6.585E-09    6.602E-09    6.619E-09    6.633E-09    6.647E-09    6.660E-09    6.671E-09    6.681E-09
     6.689E-09    6.697E-09    6.703E-09    6.708E-09    6.711E-09    6.714E-09    6.715E-09    6.715E-09    6.714E-09    6.712E-09
     6.708E-09    6.703E-09    6.698E-09    6.691E-09    6.682E-09    6.673E-09    6.663E-09    6.652E-09    6.639E-09    6.626E-09
     6.612E-09    6.596E-09    6.580E-09    6.563E-09    6.545E-09    6.526E-09    6.507E-09    6.486E-09    6.465E-09    6.443E-09
     6.420E-09    6.397E-09    6.372E-09    6.348E-09    6.322E-09    6.296E-09    6.270E-09    6.243E-09    6.215E-09    6.187E-09
     6.159E-09    6.130E-09    6.100E-09    6.070E-09    6.040E-09    6.009E-09    5.978E-09    5.947E-09    5.915E-09    5.883E-09
     5.850E-09    5.818E-09    5.785E-09    5.751E-09    5.718E-09    5.684E-09    5.650E-09    5.616E-09    5.582E-09    5.547E-09
     5.512E-09    5.478E-09    5.443E-09    5.408E-09    5.372E-09    5.337E-09    5.302E-09    5.267E-09    5.232E-09    5.196E-09
     5.161E-09    5.126E-09    5.091E-09    5.057E-09    5.022E-09    4.988E-09    4.953E-09    4.920E-09    4.886E-09    4.853E-09
     4.820E-09    4.787E-09    4.755E-09    4.723E-09    4.692E-09    4.661E-09    4.631E-09    4.601E-09    4.572E-09    4.543E-09
     4.515E-09    4.488E-09    4.461E-09    4.435E-09    4.410E-09    4.385E-09    4.360E-09    4.335E-09    4.310E-09    4.285E-09
     4.260E-09    4.235E-09    4.209E-09    4.182E-09    4.154E-09    4.126E-09    4.096E-09    4.066E-09    4.034E-09    4.000E-09
     3.965E-09    3.929E-09    3.890E-09    3.849E-09    3.806E-09    3.761E-09    3.714E-09    3.663E-09    3.610E-09    3.555E-09
     3.496E-09    3.434E-09    3.368E-09    3.299E-09    3.227E-09    3.151E-09    3.071E-09    2.987E-09    2.898E-09    2.806E-09
     2.708E-09    2.607E-09    2.500E-09    2.389E-09    2.272E-09    2.151E-09    2.024E-09    1.891E-09    1.753E-09    1.609E-09
     1.459E-09    1.304E-09    1.142E-09    9.733E-10    7.985E-10    6.172E-10    4.292E-10    2.343E-10    3.251E-11   -1.756E-10
    -3.894E-10   -6.082E-10   -8.313E-10   -1.058E-09   -1.288E-09   -1.520E-09   -1.753E-09   -1.987E-09   -2.221E-09   -2.455E-09
    -2.688E-09   -2.918E-09   -3.146E-09   -3.371E-09   -3.591E-09   -3.807E-09   -4.018E-09   -4.222E-09   -4.419E-09   -4.609E-09
    -4.791E-09   -4.964E-09   -5.127E-09   -5.280E-09   -5.422E-09   -5.553E-09   -5.672E-09   -5.778E-09   -5.873E-09   -5.957E-09
    -6.029E-09   -6.090E-09   -6.141E-09   -6.181E-09   -6.211E-09   -6.232E-09   -6.242E-09   -6.244E-09   -6.236E-09   -6.219E-09
    -6.194E-09   -6.160E-09   -6.118E-09   -6.069E-09   -6.012E-09   -5.947E-09   -5.876E-09   -5.798E-09   -5.714E-09   -5.623E-09
    -5.527E-09   -5.424E-09   -5.317E-09   -5.204E-09   -5.087E-09   -4.965E-09   -4.839E-09   -4.709E-09   -4.576E-09   -4.440E-09
    -4.301E-09   -4.160E-09   -4.017E-09   -3.872E-09   -3.726E-09   -3.579E-09   -3.431E-09   -3.283E-09   -3.135E-09   -2.988E-09
    -2.841E-09   -2.695E-09   -2.550E-09   -2.407E-09   -2.266E-09   -2.127E-09   -1.991E-09   -1.858E-09   -1.728E-09   -1.601E-09
    -1.478E-09   -1.359E-09   -1.245E-09   -1.134E-09   -1.028E-09   -9.252E-10   -8.263E-10   -7.312E-10   -6.397E-10   -5.517E-10
    -4.671E-10   -3.857E-10   -3.076E-10   -2.326E-10   -1.606E-10   -9.150E-11   -2.520E-11    3.837E-11    9.931E-11    1.577E-10
     2.137E-10    2.674E-10    3.188E-10    3.681E-10    4.153E-10    4.605E-10    5.039E-10    5.455E-10    5.853E-10    6.236E-10
     6.603E-10    6.955E-10    7.293E-10    7.618E-10    7.929E-10    8.228E-10    8.515E-10    8.790E-10    9.055E-10    9.310E-10
     9.554E-10    9.790E-10    1.002E-09    1.024E-09    1.045E-09    1.065E-09    1.085E-09    1.104E-09    1.122E-09    1.140E-09
     1.158E-09    1.175E-09    1.192E-09    1.208E-09    1.224E-09    1.240E-09    1.256E-09    1.271E-09    1.286E-09    1.302E-09
     1.316E-09    1.331E-09    1.346E-09    1.360E-09    1.374E-09    1.388E-09    1.402E-09    1.416E-09    1.429E-09    1.443E-09
     1.456E-09    1.469E-09    1.482E-09    1.494E-09    1.506E-09    1.518E-09    1.530E-09    1.542E-09    1.554E-09    1.565E-09
     1.576E-09    1.587E-09    1.597E-09    1.608E-09    1.618E-09    1.628E-09    1.638E-09    1.647E-09    1.656E-09    1.665E-09
     1.673E-09    1.682E-09    1.689E-09    1.697E-09    1.704E-09    1.711E-09    1.717E-09    1.723E-09    1.729E-09    1.734E-09
     1.738E-09    1.742E-09    1.746E-09    1.749E-09    1.752E-09    1.754E-09    1.756E-09    1.757E-09    1.758E-09    1.758E-09
     1.758E-09    1.757E-09    1.755E-09
 Cr       Conc. = 3.35E-10
   7.43652E-09  7.50561E-09  7.38517E-09  7.10706E-09  6.92344E-09  6.82443E-09  6.76402E-09  6.72434E-09  6.69693E-09  6.67720E-09
   6.66244E-09  6.65082E-09  6.64116E-09  6.63254E-09  6.62430E-09  6.61590E-09  6.60690E-09  6.59690E-09  6.58552E-09  6.57238E-09
   6.55710E-09  6.53921E-09  6.51822E-09  6.49344E-09  6.46404E-09  6.42895E-09  6.38653E-09  6.33450E-09  6.26937E-09  6.18567E-09
   6.07710E-09  5.99009E-09  6.10178E-09  6.35973E-09  6.70797E-09  7.12439E-09  7.59096E-09  8.06372E-09  8.47279E-09  8.74449E-09
   8.82035E-09  8.65039E-09  8.22618E-09  7.72611E-09  7.46323E-09  7.29590E-09  7.17406E-09  7.07792E-09  6.99783E-09  6.92852E-09
   6.86679E-09  6.81051E-09  6.75833E-09  6.70925E-09  6.66266E-09  6.61783E-09  6.57447E-09  6.53232E-09  6.49110E-09  6.45063E-09
   6.41074E-09  6.37133E-09  6.33228E-09  6.29350E-09  6.25495E-09  6.21659E-09  6.17833E-09  6.14017E-09  6.10207E-09  6.06400E-09
   6.02596E-09  5.98793E-09  5.94990E-09  5.91186E-09  5.87380E-09  5.83574E-09  5.79767E-09  5.75957E-09  5.72146E-09  5.68338E-09
   5.64524E-09  5.60716E-09  5.56904E-09  5.53099E-09  5.49292E-09  5.45492E-09  5.41699E-09  5.37914E-09  5.34139E-09  5.30377E-09
   5.26631E-09  5.22901E-09  5.19192E-09  5.15503E-09  5.11840E-09  5.08202E-09  5.04594E-09  5.01018E-09  4.97475E-09  4.93971E-09
   4.90504E-09  4.87079E-09  4.83699E-09  4.80366E-09  4.77082E-09  4.73850E-09  4.70674E-09  4.67553E-09  4.64493E-09  4.61496E-09
   4.58565E-09  4.55701E-09  4.52904E-09  4.50174E-09  4.47497E-09  4.44858E-09  4.42249E-09  4.39654E-09  4.37061E-09  4.34458E-09
   4.31832E-09  4.29168E-09  4.26456E-09  4.23681E-09  4.20829E-09  4.17888E-09  4.14843E-09  4.11681E-09  4.08389E-09  4.04952E-09
   4.01355E-09  3.97587E-09  3.93631E-09  3.89473E-09  3.85102E-09  3.80499E-09  3.75652E-09  3.70548E-09  3.65172E-09  3.59507E-09
   3.53537E-09  3.47254E-09  3.40639E-09  3.33679E-09  3.26360E-09  3.18665E-09  3.10583E-09  3.02096E-09  2.93192E-09  2.83856E-09
   2.74073E-09  2.63830E-09  2.53111E-09  2.41904E-09  2.30195E-09  2.17969E-09  2.05216E-09  1.91920E-09  1.78073E-09  1.63664E-09
   1.48686E-09  1.33139E-09  1.17036E-09  1.00411E-09  8.33758E-10  6.63035E-10  5.10618E-10  4.21541E-10  3.52990E-10  2.79904E-10
   1.94131E-10  8.76390E-11 -5.52936E-11 -2.53350E-10 -5.18974E-10 -8.53465E-10 -1.24979E-09 -1.68250E-09 -2.07947E-09 -2.36206E-09
  -2.61565E-09 -2.85814E-09 -3.09384E-09 -3.32395E-09 -3.54864E-09 -3.76772E-09 -3.98075E-09 -4.18723E-09 -4.38655E-09 -4.57812E-09
  -4.76131E-09 -4.93548E-09 -5.09997E-09 -5.25411E-09 -5.39727E-09 -5.52878E-09 -5.64817E-09 -5.75558E-09 -5.85126E-09 -5.93547E-09
  -6.00846E-09 -6.07049E-09 -6.12182E-09 -6.16271E-09 -6.19341E-09 -6.21419E-09 -6.22531E-09 -6.22703E-09 -6.21962E-09 -6.20334E-09
  -6.17847E-09 -6.14525E-09 -6.10397E-09 -6.05489E-09 -5.99828E-09 -5.93441E-09 -5.86355E-09 -5.78597E-09 -5.70193E-09 -5.61172E-09
  -5.51559E-09 -5.41382E-09 -5.30668E-09 -5.19444E-09 -5.07739E-09 -4.95589E-09 -4.83029E-09 -4.70093E-09 -4.56818E-09 -4.43239E-09
  -4.29390E-09 -4.15305E-09 -4.01021E-09 -3.86571E-09 -3.71987E-09 -3.57307E-09 -3.42562E-09 -3.27788E-09 -3.13013E-09 -2.98276E-09
  -2.83607E-09 -2.69037E-09 -2.54601E-09 -2.40330E-09 -2.26253E-09 -2.12403E-09 -1.98811E-09 -1.85507E-09 -1.72522E-09 -1.59885E-09
  -1.47623E-09 -1.35770E-09 -1.24333E-09 -1.13306E-09 -1.02679E-09 -9.24416E-10 -8.25834E-10 -7.30952E-10 -6.39662E-10 -5.51869E-10
  -4.67477E-10 -3.86376E-10 -3.08482E-10 -2.33683E-10 -1.61895E-10 -9.30133E-11 -2.69255E-11  3.64291E-11  9.71653E-11  1.55385E-10
   2.11180E-10  2.64631E-10  3.15848E-10  3.64917E-10  4.11916E-10  4.56966E-10  5.00123E-10  5.41497E-10  5.81167E-10  6.19230E-10
   6.55751E-10  6.90791E-10  7.24409E-10  7.56666E-10  7.87616E-10  8.17319E-10  8.45830E-10  8.73207E-10  8.99505E-10  9.24776E-10
   9.49076E-10  9.72459E-10  9.94976E-10  1.01668E-09  1.03762E-09  1.05785E-09  1.07741E-09  1.09637E-09  1.11475E-09  1.13261E-09
   1.15000E-09  1.16696E-09  1.18353E-09  1.19976E-09  1.21569E-09  1.23137E-09  1.24682E-09  1.26209E-09  1.27719E-09  1.29213E-09
   1.30689E-09  1.32148E-09  1.33590E-09  1.35014E-09  1.36421E-09  1.37810E-09  1.39181E-09  1.40534E-09  1.41868E-09  1.43184E-09
   1.44481E-09  1.45759E-09  1.47018E-09  1.48257E-09  1.49476E-09  1.50675E-09  1.51854E-09  1.53012E-09  1.54149E-09  1.55265E-09
   1.56359E-09  1.57431E-09  1.58480E-09  1.59506E-09  1.60510E-09  1.61490E-09  1.62444E-09  1.63372E-09  1.64272E-09  1.65142E-09
   1.65981E-09  1.66787E-09  1.67559E-09  1.68296E-09  1.68995E-09  1.69657E-09  1.70279E-09  1.70859E-09  1.71398E-09  1.71894E-09
   1.72345E-09  1.72750E-09  1.73108E-09  1.73419E-09  1.73681E-09  1.73892E-09  1.74053E-09  1.74162E-09  1.74218E-09  1.74221E-09
   1.74169E-09  1.74062E-09  1.73898E-09
 Glc      Conc. = 8.56E-10
   5.86303E-09  6.21450E-09  6.59562E-09  6.99664E-09  7.34233E-09  7.59425E-09  7.70000E-09  7.70155E-09  7.57924E-09  7.37969E-09
   7.22036E-09  7.10215E-09  7.01739E-09  7.00854E-09  7.12769E-09  7.36715E-09  7.71385E-09  8.15669E-09  8.62886E-09  9.08860E-09
   9.50830E-09  9.80927E-09  9.93054E-09  9.88075E-09  9.64625E-09  9.30006E-09  9.02867E-09  8.86136E-09  8.76777E-09  8.70667E-09
   8.63035E-09  8.54332E-09  8.46486E-09  8.36656E-09  8.24054E-09  8.12842E-09  8.02399E-09  7.90925E-09  7.80033E-09  7.70833E-09
   7.62837E-09  7.55639E-09  7.49050E-09  7.42919E-09  7.37151E-09  7.31671E-09  7.26427E-09  7.21376E-09  7.16477E-09  7.11710E-09
   7.07053E-09  7.02482E-09  6.97990E-09  6.93560E-09  6.89193E-09  6.84862E-09  6.80569E-09  6.76314E-09  6.72086E-09  6.67882E-09
   6.63697E-09  6.59529E-09  6.55374E-09  6.51228E-09  6.47090E-09  6.42961E-09  6.38836E-09  6.34715E-09  6.30597E-09  6.26482E-09
   6.22367E-09  6.18256E-09  6.14146E-09  6.10037E-09  6.05929E-09  6.01825E-09  5.97723E-09  5.93621E-09  5.89523E-09  5.85431E-09
   5.81340E-09  5.77257E-09  5.73175E-09  5.69105E-09  5.65036E-09  5.60980E-09  5.56934E-09  5.52901E-09  5.48884E-09  5.44882E-09
   5.40901E-09  5.36940E-09  5.33004E-09  5.29092E-09  5.25210E-09  5.21356E-09  5.17537E-09  5.13753E-09  5.10006E-09  5.06301E-09
   5.02636E-09  4.99018E-09  4.95447E-09  4.91926E-09  4.88458E-09  4.85044E-09  4.81689E-09  4.78393E-09  4.75160E-09  4.71992E-09
   4.68894E-09  4.65866E-09  4.62907E-09  4.60017E-09  4.57182E-09  4.54388E-09  4.51625E-09  4.48880E-09  4.46139E-09  4.43389E-09
   4.40619E-09  4.37813E-09  4.34961E-09  4.32047E-09  4.29059E-09  4.25983E-09  4.22805E-09  4.19512E-09  4.16090E-09  4.12526E-09
   4.08803E-09  4.04910E-09  4.00831E-09  3.96551E-09  3.92059E-09  3.87337E-09  3.82374E-09  3.77153E-09  3.71662E-09  3.65884E-09
   3.59802E-09  3.53407E-09  3.46683E-09  3.39615E-09  3.32188E-09  3.24389E-09  3.16202E-09  3.07613E-09  2.98609E-09  2.89173E-09
   2.79294E-09  2.68957E-09  2.58148E-09  2.46854E-09  2.35062E-09  2.22761E-09  2.09940E-09  1.96588E-09  1.82702E-09  1.68275E-09
   1.53316E-09  1.37842E-09  1.21903E-09  1.05606E-09  8.92345E-10  7.36606E-10  6.29590E-10  6.99086E-10  8.37871E-10  9.77010E-10
   1.09338E-09  1.16644E-09  1.15577E-09  1.01191E-09  7.00049E-10  2.14415E-10 -4.29914E-10 -1.17533E-09 -1.84740E-09 -2.21591E-09
  -2.50433E-09 -2.76587E-09 -3.01375E-09 -3.25239E-09 -3.48345E-09 -3.70750E-09 -3.92456E-09 -4.13438E-09 -4.33655E-09 -4.53059E-09
  -4.71596E-09 -4.89207E-09 -5.05831E-09 -5.21405E-09 -5.35868E-09 -5.49155E-09 -5.61221E-09 -5.72081E-09 -5.81762E-09 -5.90290E-09
  -5.97691E-09 -6.03991E-09 -6.09216E-09 -6.13394E-09 -6.16550E-09 -6.18711E-09 -6.19903E-09 -6.20154E-09 -6.19488E-09 -6.17934E-09
  -6.15517E-09 -6.12266E-09 -6.08206E-09 -6.03364E-09 -5.97768E-09 -5.91445E-09 -5.84422E-09 -5.76724E-09 -5.68381E-09 -5.59419E-09
  -5.49864E-09 -5.39744E-09 -5.29086E-09 -5.17917E-09 -5.06266E-09 -4.94170E-09 -4.81662E-09 -4.68779E-09 -4.55555E-09 -4.42026E-09
