 LCModel (Version 6.3-1R) Copyright: S.W. Provencher.          Ref.: Magn. Reson. Med. 30:672-679 (1993).                
 onepulse 25x28_ftSpec_smooth_lcm
 26 lines in following concentration table = NCONC+1
    Conc.  %SD /Cr+PCr  Metabolite                                         
    0.000 999%   0.000 Ala                                                 
 5.99E-11 999%   0.226 Asp                                                 
    0.000 999%   0.000 Cr                                                  
    0.000 999%   0.000 GABA                                                
 6.65E-10 172%   2.511 Glc                                                 
 1.80E-09  48%   6.805 Gln                                                 
    0.000 999%   0.000 Glu                                                 
    0.000 999%   0.000 Glyc                                                
 1.34E-10 416%   0.507 GPC                                                 
 8.76E-11 791%   0.331 GSH                                                 
 1.58E-09  44%   5.953 Ins                                                 
    0.000 999%   0.000 Lac                                                 
 3.88E-10 114%   1.466 NAAG                                                
 9.38E-11 611%   0.354 NAA                                                 
    0.000 999%   0.000 PCh                                                 
 2.65E-10 177%   1.000 PCr                                                 
 5.81E-10 619%   2.195 PE                                                  
 1.52E-10 207%   0.574 Scyllo                                              
 4.07E-09  60%  15.367 Ser                                                 
    0.000 999%   0.000 Tau                                                 
 1.34E-10 416%   0.507 GPC+PCh                                             
 4.82E-10  70%   1.820 NAA+NAAG                                            
 1.58E-09  44%   5.953 Ins+Glyc                                            
 2.65E-10 177%   1.000 Cr+PCr                                              
 1.80E-09  48%   6.805 Glu+Gln                                             
   6 lines in following misc. output table
  FWHM = 0.101 ppm    S/N =   3                                            
  Data shift = 0.380 ppm                                                   
  Ph: -43 deg     -36.3 deg/ppm                                            
  alphaB,S = 8.0E-01,   5.1E+01                                            
    8 spline knots.   Ns = 5(1)                                            
  (10) 4 infls.   ( 5) 1 extrs.                                            
  363 points on ppm-axis = NY
      4.250000     4.238821     4.227641     4.216462     4.205282     4.194103     4.182923     4.171744     4.160564     4.149385
      4.138206     4.127026     4.115847     4.104667     4.093488     4.082308     4.071129     4.059949     4.048770     4.037591
      4.026411     4.015232     4.004052     3.992873     3.981693     3.970514     3.959334     3.948155     3.936975     3.925796
      3.914617     3.903437     3.892258     3.881078     3.869899     3.858719     3.847540     3.836360     3.825181     3.814002
      3.802822     3.791643     3.780463     3.769284     3.758104     3.746925     3.735745     3.724566     3.713387     3.702207
      3.691028     3.679848     3.668669     3.657489     3.646310     3.635130     3.623951     3.612772     3.601592     3.590413
      3.579233     3.568054     3.556874     3.545695     3.534515     3.523336     3.512156     3.500977     3.489798     3.478618
      3.467439     3.456259     3.445080     3.433900     3.422721     3.411541     3.400362     3.389183     3.378003     3.366824
      3.355644     3.344465     3.333285     3.322106     3.310926     3.299747     3.288568     3.277388     3.266209     3.255029
      3.243850     3.232670     3.221491     3.210311     3.199132     3.187953     3.176773     3.165594     3.154414     3.143235
      3.132055     3.120876     3.109696     3.098517     3.087337     3.076158     3.064979     3.053799     3.042620     3.031440
      3.020261     3.009081     2.997902     2.986722     2.975543     2.964364     2.953184     2.942005     2.930825     2.919646
      2.908466     2.897287     2.886107     2.874928     2.863749     2.852569     2.841390     2.830210     2.819031     2.807851
      2.796672     2.785492     2.774313     2.763134     2.751954     2.740775     2.729595     2.718416     2.707236     2.696057
      2.684877     2.673698     2.662519     2.651339     2.640160     2.628980     2.617801     2.606621     2.595442     2.584262
      2.573083     2.561903     2.550724     2.539545     2.528365     2.517186     2.506006     2.494827     2.483647     2.472468
      2.461288     2.450109     2.438930     2.427750     2.416571     2.405391     2.394212     2.383032     2.371853     2.360673
      2.349494     2.338315     2.327135     2.315956     2.304776     2.293597     2.282417     2.271238     2.260058     2.248879
      2.237700     2.226520     2.215341     2.204161     2.192982     2.181802     2.170623     2.159443     2.148264     2.137084
      2.125905     2.114726     2.103546     2.092367     2.081187     2.070008     2.058828     2.047649     2.036469     2.025290
      2.014111     2.002931     1.991752     1.980572     1.969393     1.958213     1.947034     1.935854     1.924675     1.913496
      1.902316     1.891137     1.879957     1.868778     1.857598     1.846419     1.835239     1.824060     1.812881     1.801701
      1.790522     1.779342     1.768163     1.756983     1.745804     1.734624     1.723445     1.712265     1.701086     1.689907
      1.678727     1.667548     1.656368     1.645189     1.634009     1.622830     1.611650     1.600471     1.589292     1.578112
      1.566933     1.555753     1.544574     1.533394     1.522215     1.511035     1.499856     1.488677     1.477497     1.466318
      1.455138     1.443959     1.432779     1.421600     1.410420     1.399241     1.388062     1.376882     1.365703     1.354523
      1.343344     1.332164     1.320985     1.309805     1.298626     1.287446     1.276267     1.265088     1.253908     1.242729
      1.231549     1.220370     1.209190     1.198011     1.186831     1.175652     1.164473     1.153293     1.142114     1.130934
      1.119755     1.108575     1.097396     1.086216     1.075037     1.063858     1.052678     1.041499     1.030319     1.019140
      1.007960     0.996781     0.985601     0.974422     0.963243     0.952063     0.940884     0.929704     0.918525     0.907345
      0.896166     0.884986     0.873807     0.862628     0.851448     0.840269     0.829089     0.817910     0.806730     0.795551
      0.784371     0.773192     0.762012     0.750833     0.739654     0.728474     0.717295     0.706115     0.694936     0.683756
      0.672577     0.661397     0.650218     0.639039     0.627859     0.616680     0.605500     0.594321     0.583141     0.571962
      0.560782     0.549603     0.538424     0.527244     0.516065     0.504885     0.493706     0.482526     0.471347     0.460167
      0.448988     0.437809     0.426629     0.415450     0.404270     0.393091     0.381911     0.370732     0.359552     0.348373
      0.337193     0.326014     0.314835     0.303655     0.292476     0.281296     0.270117     0.258937     0.247758     0.236578
      0.225399     0.214220     0.203040
 NY phased data points follow
   1.38486E-08  1.48750E-08  1.21426E-08  1.32977E-08  1.15682E-08  1.29979E-08  1.06157E-08  1.21902E-08  1.07371E-08  1.23988E-08
   1.12661E-08  1.33337E-08  1.22337E-08  1.40915E-08  1.16564E-08  1.36168E-08  1.16748E-08  1.33415E-08  1.14461E-08  1.22429E-08
   1.05502E-08  1.18178E-08  1.09344E-08  1.31967E-08  1.12354E-08  1.21896E-08  1.03171E-08  1.16098E-08  1.05606E-08  1.31862E-08
   1.31801E-08  1.47321E-08  1.29919E-08  1.32504E-08  1.17506E-08  1.21407E-08  1.06407E-08  1.13693E-08  1.02306E-08  1.06672E-08
   9.43697E-09  1.04066E-08  9.25902E-09  1.04049E-08  8.11671E-09  9.05308E-09  7.84313E-09  8.49776E-09  7.76528E-09  8.84821E-09
   7.63645E-09  8.61355E-09  6.99343E-09  7.26998E-09  6.37138E-09  7.34084E-09  6.46516E-09  7.61562E-09  6.45106E-09  7.83158E-09
   8.21284E-09  1.15819E-08  1.12785E-08  1.17038E-08  1.01723E-08  1.03323E-08  8.58385E-09  9.14375E-09  7.64216E-09  7.89379E-09
   6.36894E-09  7.16616E-09  6.00619E-09  6.32803E-09  4.88830E-09  5.41416E-09  7.53166E-09  1.13234E-08  1.34762E-08  1.56032E-08
   1.39810E-08  1.36213E-08  1.28464E-08  1.27281E-08  1.18934E-08  1.19690E-08  1.13156E-08  1.15343E-08  1.10080E-08  1.09908E-08
   1.00252E-08  1.01242E-08  9.30429E-09  9.47222E-09  8.31991E-09  9.10772E-09  8.11719E-09  8.01168E-09  7.72631E-09  8.54424E-09
   8.18310E-09  8.53704E-09  8.18973E-09  8.24652E-09  8.10331E-09  8.27697E-09  6.64328E-09  7.06407E-09  6.00050E-09  5.63192E-09
   5.67789E-09  6.46277E-09  6.07563E-09  6.37429E-09  5.90371E-09  6.19495E-09  5.84189E-09  6.30013E-09  5.91012E-09  6.06450E-09
   5.42417E-09  5.04585E-09  4.10664E-09  4.02719E-09  3.41948E-09  3.70278E-09  3.46674E-09  3.84789E-09  3.28483E-09  3.19057E-09
   3.02802E-09  3.02469E-09  3.59899E-09  3.47205E-09  2.25682E-09  2.64999E-09  2.76688E-09  3.74818E-09  4.51321E-09  5.62247E-09
   5.15367E-09  5.16919E-09  5.13198E-09  6.44330E-09  6.91759E-09  7.32323E-09  7.19258E-09  7.55884E-09  7.27644E-09  7.41403E-09
   7.68719E-09  7.14973E-09  7.44710E-09  7.49817E-09  8.17614E-09  7.34055E-09  8.03955E-09  7.90157E-09  8.10609E-09  8.37501E-09
   8.51499E-09  8.76777E-09  8.49053E-09  8.18173E-09  9.48338E-09  9.40994E-09  9.24387E-09  1.11446E-08  1.56554E-08  1.98847E-08
   2.13779E-08  2.07928E-08  1.96840E-08  1.89603E-08  1.80808E-08  1.78704E-08  1.67437E-08  1.59509E-08  1.54951E-08  1.47597E-08
   1.40623E-08  1.34134E-08  1.24211E-08  1.17409E-08  1.04719E-08  9.41994E-09  7.80918E-09  6.81876E-09  5.22988E-09  3.25207E-09
   1.82303E-09 -2.95462E-10 -2.66631E-09 -4.33867E-09 -6.51687E-09 -9.28902E-09 -1.09503E-08 -1.28150E-08 -1.40317E-08 -1.51889E-08
  -1.59202E-08 -1.62837E-08 -1.59327E-08 -1.53513E-08 -1.47555E-08 -1.30957E-08 -1.15470E-08 -1.02857E-08 -8.35511E-09 -7.24046E-09
  -5.72492E-09 -4.31009E-09 -3.28512E-09 -2.51356E-09 -2.00988E-09 -1.76869E-09 -1.33339E-09 -1.79306E-09 -1.35045E-09 -1.60416E-09
  -1.77309E-09 -1.78268E-09 -1.57443E-09 -1.68090E-09 -1.39183E-09 -1.78185E-09 -1.86366E-09 -1.66578E-09 -1.87202E-09 -1.32790E-09
  -7.37894E-10 -1.24503E-09 -9.83201E-10 -1.25144E-09 -1.71566E-09 -1.99008E-09 -1.46665E-09 -1.51002E-09 -7.99559E-10 -6.04392E-10
  -6.98367E-10 -8.92584E-10 -1.21988E-09 -1.73750E-09 -1.22630E-09 -1.53547E-09 -1.00626E-09 -1.17260E-09 -7.25484E-10 -7.23460E-10
  -5.01165E-10 -4.76296E-10 -4.52524E-10 -3.20046E-10 -6.34872E-10 -8.28014E-10 -5.01307E-10 -1.12234E-09 -9.05096E-10 -1.10361E-09
  -7.49706E-10 -1.46253E-09 -9.02360E-10 -1.42507E-09 -1.16479E-09 -1.03597E-09 -6.39871E-10 -1.17730E-09 -1.24351E-10 -7.21445E-10
  -1.35206E-10 -3.37907E-10  7.88074E-11  1.44223E-10 -1.92476E-10 -1.77386E-10 -5.72048E-12 -5.99038E-10 -1.85985E-10 -6.03060E-10
  -6.37003E-11 -1.18500E-09 -8.34825E-10 -9.82655E-10 -7.04465E-10 -1.37355E-09 -9.52311E-10 -1.21619E-09 -1.01092E-09 -1.43402E-09
  -1.28879E-09 -1.02000E-09 -1.20839E-09 -1.12063E-09 -9.27082E-10 -1.24026E-09 -1.25794E-09 -1.24026E-09 -9.84972E-10 -1.21760E-09
  -9.41522E-10 -6.92026E-10 -1.09062E-09 -1.20949E-09 -4.34539E-10 -1.07593E-09 -1.13435E-09 -1.27107E-09 -7.95942E-10 -1.26202E-09
  -1.05891E-09 -1.52183E-09 -1.07683E-09 -1.75216E-09 -1.15115E-09 -1.07571E-09 -1.53924E-09 -1.27360E-09 -1.11925E-09 -1.08410E-09
  -1.23696E-09 -1.69668E-09 -7.73900E-10 -1.74050E-09 -1.00734E-09 -1.82481E-09 -1.01229E-09 -1.93744E-09 -1.09165E-09 -1.70248E-09
  -1.43104E-09 -1.79961E-09 -1.51781E-09 -1.79697E-09 -1.09312E-09 -1.72897E-09 -1.69127E-09 -2.01877E-09 -1.44975E-09 -2.06347E-09
  -1.39655E-09 -1.90897E-09 -1.60485E-09 -1.92514E-09 -1.68189E-09 -1.65550E-09 -1.53826E-09 -2.10545E-09 -1.49135E-09 -1.59818E-09
  -1.83392E-09 -2.09628E-09 -1.57775E-09 -2.11668E-09 -1.65090E-09 -2.14456E-09 -2.01605E-09 -2.52716E-09 -1.81578E-09 -2.54467E-09
  -1.77691E-09 -2.03334E-09 -1.68433E-09
 NY points of the fit to the data follow
   1.35251E-08  1.40764E-08  1.36919E-08  1.32001E-08  1.30633E-08  1.30028E-08  1.24884E-08  1.15712E-08  1.08351E-08  1.06878E-08
   1.09962E-08  1.14912E-08  1.19868E-08  1.24375E-08  1.28576E-08  1.30756E-08  1.31253E-08  1.32073E-08  1.30615E-08  1.23669E-08
   1.16367E-08  1.11782E-08  1.08559E-08  1.06465E-08  1.08036E-08  1.13170E-08  1.20382E-08  1.26723E-08  1.29681E-08  1.29489E-08
   1.29726E-08  1.29158E-08  1.28716E-08  1.27505E-08  1.23800E-08  1.18171E-08  1.13381E-08  1.09344E-08  1.06452E-08  1.04431E-08
   1.02579E-08  9.98358E-09  9.52773E-09  8.98590E-09  8.60723E-09  8.29167E-09  8.01862E-09  7.75748E-09  7.51988E-09  7.32703E-09
   7.16247E-09  7.02337E-09  6.88569E-09  6.74721E-09  6.74511E-09  6.99244E-09  7.27942E-09  7.67839E-09  8.26803E-09  8.88071E-09
   9.38437E-09  9.81220E-09  1.01334E-08  1.03023E-08  1.02341E-08  9.94011E-09  9.58583E-09  9.18307E-09  8.58254E-09  8.07896E-09
   7.76793E-09  7.63825E-09  7.69786E-09  7.85129E-09  8.10202E-09  8.53129E-09  9.35558E-09  1.04944E-08  1.16911E-08  1.26811E-08
   1.33421E-08  1.36500E-08  1.36692E-08  1.36473E-08  1.35069E-08  1.29789E-08  1.21504E-08  1.11950E-08  1.04494E-08  9.91880E-09
   9.53335E-09  9.23027E-09  8.97944E-09  8.76473E-09  8.57400E-09  8.40458E-09  8.25593E-09  8.12132E-09  7.99332E-09  7.87020E-09
   7.76066E-09  7.66368E-09  7.57103E-09  7.48062E-09  7.39622E-09  7.31718E-09  7.24245E-09  7.17128E-09  7.10290E-09  7.03692E-09
   6.97305E-09  6.91092E-09  6.85024E-09  6.79076E-09  6.73226E-09  6.67452E-09  6.61737E-09  6.56063E-09  6.50414E-09  6.44780E-09
   6.39141E-09  6.33492E-09  6.27817E-09  6.22108E-09  6.16354E-09  6.10545E-09  6.04671E-09  5.98729E-09  5.92706E-09  5.86595E-09
   5.80390E-09  5.74082E-09  5.67667E-09  5.61136E-09  5.54484E-09  5.47703E-09  5.40792E-09  5.33739E-09  5.26543E-09  5.19196E-09
   5.11695E-09  5.04035E-09  4.96212E-09  4.88219E-09  4.80055E-09  4.71715E-09  4.63200E-09  4.54514E-09  4.45666E-09  4.36665E-09
   4.27519E-09  4.18243E-09  4.08850E-09  3.99362E-09  3.89802E-09  3.80208E-09  3.70626E-09  3.61127E-09  3.51816E-09  3.42858E-09
   3.34519E-09  3.27270E-09  3.21986E-09  3.20489E-09  3.27166E-09  3.55415E-09  4.66754E-09  8.97825E-09  1.44436E-08  1.89349E-08
   2.14975E-08  2.22777E-08  2.20242E-08  2.13953E-08  2.04935E-08  1.87700E-08  1.54274E-08  1.03572E-08  5.30219E-09  3.50089E-09
   2.74537E-09  2.29485E-09  1.97381E-09  1.72057E-09  1.50764E-09  1.32088E-09  1.15225E-09  9.96852E-10  8.51474E-10  7.14011E-10
   5.83002E-10  4.57366E-10  3.36365E-10  2.19430E-10  1.06169E-10 -3.75261E-12 -1.10577E-10 -2.14440E-10 -3.15490E-10 -4.13842E-10
  -5.09546E-10 -6.02651E-10 -6.93179E-10 -7.81157E-10 -8.66596E-10 -9.49467E-10 -1.02978E-09 -1.10751E-09 -1.18265E-09 -1.25513E-09
  -1.32498E-09 -1.39212E-09 -1.45654E-09 -1.51820E-09 -1.57708E-09 -1.63311E-09 -1.68626E-09 -1.73652E-09 -1.78382E-09 -1.82822E-09
  -1.86978E-09 -1.90858E-09 -1.94467E-09 -1.97813E-09 -2.00901E-09 -2.03739E-09 -2.06334E-09 -2.08691E-09 -2.10816E-09 -2.12717E-09
  -2.14401E-09 -2.15873E-09 -2.17139E-09 -2.18207E-09 -2.19082E-09 -2.19770E-09 -2.20280E-09 -2.20615E-09 -2.20783E-09 -2.20789E-09
  -2.20641E-09 -2.20344E-09 -2.19905E-09 -2.19329E-09 -2.18621E-09 -2.17790E-09 -2.16840E-09 -2.15778E-09 -2.14610E-09 -2.13340E-09
  -2.11977E-09 -2.10523E-09 -2.08988E-09 -2.07373E-09 -2.05686E-09 -2.03935E-09 -2.02122E-09 -2.00254E-09 -1.98335E-09 -1.96372E-09
  -1.94370E-09 -1.92334E-09 -1.90270E-09 -1.88181E-09 -1.86074E-09 -1.83953E-09 -1.81824E-09 -1.79690E-09 -1.77556E-09 -1.75429E-09
  -1.73311E-09 -1.71207E-09 -1.69122E-09 -1.67059E-09 -1.65025E-09 -1.63021E-09 -1.61053E-09 -1.59124E-09 -1.57238E-09 -1.55398E-09
  -1.53610E-09 -1.51876E-09 -1.50199E-09 -1.48582E-09 -1.47029E-09 -1.45544E-09 -1.44129E-09 -1.42785E-09 -1.41518E-09 -1.40329E-09
  -1.39219E-09 -1.38192E-09 -1.37242E-09 -1.36368E-09 -1.35567E-09 -1.34836E-09 -1.34172E-09 -1.33573E-09 -1.33036E-09 -1.32558E-09
  -1.32137E-09 -1.31770E-09 -1.31454E-09 -1.31187E-09 -1.30966E-09 -1.30789E-09 -1.30653E-09 -1.30557E-09 -1.30496E-09 -1.30470E-09
  -1.30475E-09 -1.30508E-09 -1.30570E-09 -1.30655E-09 -1.30763E-09 -1.30890E-09 -1.31036E-09 -1.31197E-09 -1.31372E-09 -1.31558E-09
  -1.31754E-09 -1.31956E-09 -1.32164E-09 -1.32376E-09 -1.32589E-09 -1.32801E-09 -1.33011E-09 -1.33217E-09 -1.33418E-09 -1.33611E-09
  -1.33795E-09 -1.33968E-09 -1.34129E-09 -1.34275E-09 -1.34407E-09 -1.34522E-09 -1.34619E-09 -1.34695E-09 -1.34752E-09 -1.34786E-09
  -1.34797E-09 -1.34783E-09 -1.34744E-09 -1.34678E-09 -1.34584E-09 -1.34463E-09 -1.34311E-09 -1.34130E-09 -1.33917E-09 -1.33673E-09
  -1.33396E-09 -1.33085E-09 -1.32741E-09 -1.32363E-09 -1.31950E-09 -1.31501E-09 -1.31018E-09 -1.30498E-09 -1.29942E-09 -1.29350E-09
  -1.28721E-09 -1.28056E-09 -1.27355E-09
 NY background values follow
     2.537E-09    2.584E-09    2.631E-09    2.677E-09    2.723E-09    2.768E-09    2.812E-09    2.856E-09    2.899E-09    2.942E-09
     2.984E-09    3.025E-09    3.066E-09    3.107E-09    3.146E-09    3.186E-09    3.224E-09    3.262E-09    3.300E-09    3.336E-09
     3.373E-09    3.408E-09    3.444E-09    3.478E-09    3.512E-09    3.546E-09    3.579E-09    3.611E-09    3.643E-09    3.674E-09
     3.705E-09    3.735E-09    3.765E-09    3.794E-09    3.822E-09    3.850E-09    3.878E-09    3.905E-09    3.932E-09    3.958E-09
     3.984E-09    4.009E-09    4.034E-09    4.058E-09    4.082E-09    4.105E-09    4.128E-09    4.151E-09    4.173E-09    4.195E-09
     4.216E-09    4.237E-09    4.257E-09    4.278E-09    4.298E-09    4.317E-09    4.336E-09    4.355E-09    4.374E-09    4.392E-09
     4.410E-09    4.428E-09    4.445E-09    4.462E-09    4.479E-09    4.496E-09    4.512E-09    4.528E-09    4.545E-09    4.560E-09
     4.576E-09    4.592E-09    4.607E-09    4.622E-09    4.637E-09    4.652E-09    4.667E-09    4.682E-09    4.696E-09    4.710E-09
     4.724E-09    4.738E-09    4.751E-09    4.764E-09    4.777E-09    4.790E-09    4.802E-09    4.813E-09    4.825E-09    4.835E-09
     4.846E-09    4.856E-09    4.865E-09    4.874E-09    4.882E-09    4.890E-09    4.897E-09    4.903E-09    4.909E-09    4.914E-09
     4.918E-09    4.922E-09    4.925E-09    4.927E-09    4.928E-09    4.928E-09    4.928E-09    4.926E-09    4.923E-09    4.920E-09
     4.915E-09    4.910E-09    4.903E-09    4.895E-09    4.886E-09    4.876E-09    4.865E-09    4.852E-09    4.838E-09    4.823E-09
     4.807E-09    4.789E-09    4.770E-09    4.749E-09    4.727E-09    4.703E-09    4.678E-09    4.651E-09    4.622E-09    4.592E-09
     4.560E-09    4.527E-09    4.492E-09    4.455E-09    4.416E-09    4.376E-09    4.333E-09    4.289E-09    4.243E-09    4.194E-09
     4.144E-09    4.092E-09    4.038E-09    3.982E-09    3.923E-09    3.863E-09    3.800E-09    3.735E-09    3.668E-09    3.599E-09
     3.529E-09    3.456E-09    3.382E-09    3.306E-09    3.228E-09    3.149E-09    3.068E-09    2.986E-09    2.902E-09    2.817E-09
     2.731E-09    2.644E-09    2.555E-09    2.466E-09    2.375E-09    2.284E-09    2.192E-09    2.099E-09    2.005E-09    1.911E-09
     1.816E-09    1.720E-09    1.625E-09    1.529E-09    1.433E-09    1.336E-09    1.240E-09    1.143E-09    1.047E-09    9.505E-10
     8.544E-10    7.585E-10    6.630E-10    5.680E-10    4.734E-10    3.794E-10    2.861E-10    1.934E-10    1.016E-10    1.065E-11
    -7.936E-11   -1.684E-10   -2.563E-10   -3.431E-10   -4.286E-10   -5.129E-10   -5.958E-10   -6.772E-10   -7.572E-10   -8.356E-10
    -9.123E-10   -9.873E-10   -1.061E-09   -1.132E-09   -1.202E-09   -1.269E-09   -1.335E-09   -1.398E-09   -1.459E-09   -1.518E-09
    -1.575E-09   -1.629E-09   -1.681E-09   -1.731E-09   -1.778E-09   -1.823E-09   -1.864E-09   -1.904E-09   -1.940E-09   -1.974E-09
    -2.005E-09   -2.034E-09   -2.060E-09   -2.083E-09   -2.105E-09   -2.123E-09   -2.140E-09   -2.154E-09   -2.167E-09   -2.177E-09
    -2.185E-09   -2.191E-09   -2.195E-09   -2.197E-09   -2.197E-09   -2.196E-09   -2.193E-09   -2.189E-09   -2.182E-09   -2.175E-09
    -2.165E-09   -2.155E-09   -2.143E-09   -2.130E-09   -2.115E-09   -2.100E-09   -2.083E-09   -2.065E-09   -2.047E-09   -2.027E-09
    -2.007E-09   -1.985E-09   -1.963E-09   -1.941E-09   -1.917E-09   -1.893E-09   -1.869E-09   -1.844E-09   -1.818E-09   -1.792E-09
    -1.766E-09   -1.740E-09   -1.713E-09   -1.686E-09   -1.659E-09   -1.632E-09   -1.605E-09   -1.578E-09   -1.551E-09   -1.524E-09
    -1.497E-09   -1.470E-09   -1.444E-09   -1.418E-09   -1.392E-09   -1.367E-09   -1.342E-09   -1.317E-09   -1.293E-09   -1.270E-09
    -1.247E-09   -1.224E-09   -1.203E-09   -1.182E-09   -1.161E-09   -1.141E-09   -1.122E-09   -1.104E-09   -1.087E-09   -1.070E-09
    -1.054E-09   -1.040E-09   -1.026E-09   -1.012E-09   -9.998E-10   -9.880E-10   -9.769E-10   -9.666E-10   -9.569E-10   -9.478E-10
    -9.393E-10   -9.314E-10   -9.241E-10   -9.172E-10   -9.109E-10   -9.051E-10   -8.997E-10   -8.947E-10   -8.901E-10   -8.859E-10
    -8.820E-10   -8.785E-10   -8.753E-10   -8.723E-10   -8.696E-10   -8.672E-10   -8.649E-10   -8.629E-10   -8.610E-10   -8.592E-10
    -8.576E-10   -8.561E-10   -8.546E-10   -8.533E-10   -8.519E-10   -8.506E-10   -8.494E-10   -8.481E-10   -8.467E-10   -8.454E-10
    -8.439E-10   -8.424E-10   -8.408E-10   -8.391E-10   -8.372E-10   -8.353E-10   -8.331E-10   -8.308E-10   -8.284E-10   -8.257E-10
    -8.228E-10   -8.197E-10   -8.164E-10   -8.128E-10   -8.090E-10   -8.049E-10   -8.006E-10   -7.960E-10   -7.911E-10   -7.859E-10
    -7.804E-10   -7.746E-10   -7.685E-10   -7.621E-10   -7.554E-10   -7.483E-10   -7.409E-10   -7.332E-10   -7.251E-10   -7.167E-10
    -7.079E-10   -6.989E-10   -6.894E-10
 Asp      Conc. = 5.99E-11
   2.57383E-09  2.62446E-09  2.67132E-09  2.71723E-09  2.76139E-09  2.80266E-09  2.84274E-09  2.87968E-09  2.91771E-09  2.95636E-09
   2.99522E-09  3.03403E-09  3.07267E-09  3.11106E-09  3.14912E-09  3.18674E-09  3.22390E-09  3.26059E-09  3.29677E-09  3.33244E-09
   3.36757E-09  3.40217E-09  3.43622E-09  3.46971E-09  3.50262E-09  3.53498E-09  3.56675E-09  3.59795E-09  3.62855E-09  3.65855E-09
   3.68796E-09  3.71674E-09  3.74490E-09  3.77246E-09  3.79943E-09  3.82606E-09  3.85369E-09  3.88238E-09  3.91282E-09  3.94294E-09
   3.97058E-09  3.99473E-09  4.01630E-09  4.04083E-09  4.06844E-09  4.10601E-09  4.14647E-09  4.18151E-09  4.21320E-09  4.24511E-09
   4.27938E-09  4.31418E-09  4.34673E-09  4.37167E-09  4.38555E-09  4.39514E-09  4.40339E-09  4.42070E-09  4.43828E-09  4.45130E-09
   4.46394E-09  4.47766E-09  4.49125E-09  4.50608E-09  4.52252E-09  4.53771E-09  4.55004E-09  4.56279E-09  4.57602E-09  4.58955E-09
   4.60324E-09  4.61704E-09  4.63093E-09  4.64482E-09  4.65873E-09  4.67261E-09  4.68641E-09  4.70011E-09  4.71368E-09  4.72709E-09
   4.74032E-09  4.75333E-09  4.76611E-09  4.77862E-09  4.79085E-09  4.80276E-09  4.81434E-09  4.82555E-09  4.83638E-09  4.84679E-09
   4.85676E-09  4.86627E-09  4.87527E-09  4.88378E-09  4.89172E-09  4.89908E-09  4.90585E-09  4.91199E-09  4.91747E-09  4.92227E-09
   4.92635E-09  4.92968E-09  4.93224E-09  4.93400E-09  4.93492E-09  4.93498E-09  4.93414E-09  4.93239E-09  4.92968E-09  4.92596E-09
   4.92125E-09  4.91548E-09  4.90862E-09  4.90065E-09  4.89153E-09  4.88124E-09  4.86975E-09  4.85701E-09  4.84299E-09  4.82768E-09
   4.81101E-09  4.79298E-09  4.77354E-09  4.75267E-09  4.73033E-09  4.70648E-09  4.68108E-09  4.65414E-09  4.62559E-09  4.59540E-09
   4.56355E-09  4.52999E-09  4.49472E-09  4.45768E-09  4.41884E-09  4.37815E-09  4.33565E-09  4.29123E-09  4.24489E-09  4.19659E-09
   4.14632E-09  4.09403E-09  4.03970E-09  3.98328E-09  3.92476E-09  3.86411E-09  3.80132E-09  3.73644E-09  3.66953E-09  3.60066E-09
   3.52987E-09  3.45725E-09  3.38284E-09  3.30672E-09  3.22895E-09  3.14960E-09  3.06873E-09  2.98642E-09  2.90274E-09  2.81777E-09
   2.73158E-09  2.64429E-09  2.55600E-09  2.46690E-09  2.37736E-09  2.28836E-09  2.20455E-09  2.14017E-09  2.08068E-09  2.01363E-09
   1.93400E-09  1.84332E-09  1.74645E-09  1.64726E-09  1.54608E-09  1.43926E-09  1.32203E-09  1.19455E-09  1.06888E-09  9.63759E-10
   8.63990E-10  7.66121E-10  6.69303E-10  5.73311E-10  4.78047E-10  3.83504E-10  2.89716E-10  1.96746E-10  1.04601E-10  1.33684E-11
  -7.68753E-11 -1.66099E-10 -2.54214E-10 -3.41163E-10 -4.26855E-10 -5.11247E-10 -5.94278E-10 -6.75842E-10 -7.55890E-10 -8.34373E-10
  -9.11206E-10 -9.86326E-10 -1.05966E-09 -1.13115E-09 -1.20075E-09 -1.26835E-09 -1.33392E-09 -1.39740E-09 -1.45873E-09 -1.51781E-09
  -1.57463E-09 -1.62910E-09 -1.68117E-09 -1.73079E-09 -1.77791E-09 -1.82245E-09 -1.86436E-09 -1.90362E-09 -1.94015E-09 -1.97399E-09
  -2.00519E-09 -2.03382E-09 -2.05993E-09 -2.08358E-09 -2.10482E-09 -2.12373E-09 -2.14035E-09 -2.15474E-09 -2.16696E-09 -2.17707E-09
  -2.18514E-09 -2.19122E-09 -2.19537E-09 -2.19764E-09 -2.19811E-09 -2.19683E-09 -2.19386E-09 -2.18925E-09 -2.18307E-09 -2.17538E-09
  -2.16623E-09 -2.15569E-09 -2.14382E-09 -2.13067E-09 -2.11630E-09 -2.10077E-09 -2.08414E-09 -2.06646E-09 -2.04781E-09 -2.02821E-09
  -2.00776E-09 -1.98647E-09 -1.96445E-09 -1.94170E-09 -1.91830E-09 -1.89432E-09 -1.86980E-09 -1.84478E-09 -1.81933E-09 -1.79349E-09
  -1.76733E-09 -1.74089E-09 -1.71423E-09 -1.68739E-09 -1.66041E-09 -1.63336E-09 -1.60628E-09 -1.57920E-09 -1.55219E-09 -1.52530E-09
  -1.49855E-09 -1.47199E-09 -1.44568E-09 -1.41963E-09 -1.39393E-09 -1.36857E-09 -1.34362E-09 -1.31912E-09 -1.29509E-09 -1.27157E-09
  -1.24861E-09 -1.22624E-09 -1.20449E-09 -1.18338E-09 -1.16295E-09 -1.14325E-09 -1.12429E-09 -1.10608E-09 -1.08869E-09 -1.07211E-09
  -1.05638E-09 -1.04151E-09 -1.02745E-09 -1.01419E-09 -1.00170E-09 -9.89955E-10 -9.78913E-10 -9.68560E-10 -9.58863E-10 -9.49796E-10
  -9.41335E-10 -9.33448E-10 -9.26116E-10 -9.19307E-10 -9.12995E-10 -9.07157E-10 -9.01769E-10 -8.96805E-10 -8.92237E-10 -8.88042E-10
  -8.84198E-10 -8.80677E-10 -8.77462E-10 -8.74522E-10 -8.71840E-10 -8.69390E-10 -8.67152E-10 -8.65100E-10 -8.63217E-10 -8.61480E-10
  -8.59870E-10 -8.58358E-10 -8.56936E-10 -8.55579E-10 -8.54265E-10 -8.52974E-10 -8.51697E-10 -8.50408E-10 -8.49093E-10 -8.47729E-10
  -8.46307E-10 -8.44805E-10 -8.43206E-10 -8.41498E-10 -8.39668E-10 -8.37697E-10 -8.35574E-10 -8.33282E-10 -8.30814E-10 -8.28144E-10
  -8.25277E-10 -8.22188E-10 -8.18875E-10 -8.15324E-10 -8.11516E-10 -8.07458E-10 -8.03128E-10 -7.98526E-10 -7.93635E-10 -7.88454E-10
  -7.82976E-10 -7.77189E-10 -7.71092E-10 -7.64677E-10 -7.57942E-10 -7.50878E-10 -7.43489E-10 -7.35763E-10 -7.27701E-10 -7.19304E-10
  -7.10564E-10 -7.01485E-10 -6.92068E-10
 Glc      Conc. = 6.65E-10
   2.07771E-09  2.38381E-09  2.66349E-09  2.92685E-09  3.14577E-09  3.32956E-09  3.44547E-09  3.50954E-09  3.49225E-09  3.39068E-09
   3.29595E-09  3.22253E-09  3.16819E-09  3.17681E-09  3.32873E-09  3.62566E-09  4.01537E-09  4.43478E-09  4.79197E-09  5.06480E-09
   5.30406E-09  5.51067E-09  5.65580E-09  5.73026E-09  5.68079E-09  5.51212E-09  5.35572E-09  5.26306E-09  5.22391E-09  5.21218E-09
   5.18958E-09  5.15624E-09  5.13154E-09  5.09520E-09  5.03739E-09  4.99050E-09  4.95394E-09  4.90924E-09  4.86434E-09  4.83086E-09
   4.80622E-09  4.78760E-09  4.77369E-09  4.76340E-09  4.75604E-09  4.75107E-09  4.74810E-09  4.74677E-09  4.74683E-09  4.74807E-09
   4.75031E-09  4.75342E-09  4.75726E-09  4.76174E-09  4.76678E-09  4.77228E-09  4.77820E-09  4.78450E-09  4.79108E-09  4.79795E-09
   4.80508E-09  4.81241E-09  4.81993E-09  4.82762E-09  4.83548E-09  4.84346E-09  4.85158E-09  4.85979E-09  4.86812E-09  4.87656E-09
   4.88509E-09  4.89370E-09  4.90243E-09  4.91123E-09  4.92012E-09  4.92905E-09  4.93801E-09  4.94696E-09  4.95588E-09  4.96474E-09
   4.97352E-09  4.98218E-09  4.99070E-09  4.99906E-09  5.00722E-09  5.01516E-09  5.02286E-09  5.03027E-09  5.03739E-09  5.04417E-09
   5.05058E-09  5.05662E-09  5.06222E-09  5.06740E-09  5.07208E-09  5.07625E-09  5.07990E-09  5.08298E-09  5.08545E-09  5.08731E-09
   5.08850E-09  5.08901E-09  5.08879E-09  5.08783E-09  5.08608E-09  5.08352E-09  5.08010E-09  5.07583E-09  5.07063E-09  5.06447E-09
   5.05737E-09  5.04923E-09  5.04006E-09  5.02981E-09  5.01845E-09  5.00595E-09  4.99228E-09  4.97740E-09  4.96127E-09  4.94389E-09
   4.92517E-09  4.90513E-09  4.88370E-09  4.86087E-09  4.83660E-09  4.81085E-09  4.78356E-09  4.75477E-09  4.72438E-09  4.69238E-09
   4.65875E-09  4.62342E-09  4.58639E-09  4.54763E-09  4.50708E-09  4.46470E-09  4.42052E-09  4.37445E-09  4.32648E-09  4.27655E-09
   4.22467E-09  4.17078E-09  4.11487E-09  4.05688E-09  3.99681E-09  3.93462E-09  3.87030E-09  3.80391E-09  3.73550E-09  3.66514E-09
   3.59289E-09  3.51882E-09  3.44299E-09  3.36549E-09  3.28637E-09  3.20573E-09  3.12366E-09  3.04027E-09  2.95568E-09  2.87006E-09
   2.78365E-09  2.69684E-09  2.61026E-09  2.52524E-09  2.44494E-09  2.37915E-09  2.37492E-09  2.59511E-09  2.88159E-09  3.09290E-09
   3.16997E-09  3.12748E-09  3.01832E-09  2.88604E-09  2.73468E-09  2.52411E-09  2.19991E-09  1.75963E-09  1.33189E-09  1.13328E-09
   9.95249E-10  8.76119E-10  7.65489E-10  6.59649E-10  5.56914E-10  4.56444E-10  3.57792E-10  2.60723E-10  1.65050E-10  7.07248E-11
  -2.22692E-11 -1.13969E-10 -2.04338E-10 -2.93359E-10 -3.80968E-10 -4.67147E-10 -5.51855E-10 -6.34999E-10 -7.16544E-10 -7.96452E-10
  -8.74644E-10 -9.51067E-10 -1.02565E-09 -1.09835E-09 -1.16911E-09 -1.23784E-09 -1.30450E-09 -1.36904E-09 -1.43139E-09 -1.49147E-09
  -1.54928E-09 -1.60470E-09 -1.65771E-09 -1.70824E-09 -1.75625E-09 -1.80166E-09 -1.84444E-09 -1.88454E-09 -1.92189E-09 -1.95654E-09
  -1.98854E-09 -2.01796E-09 -2.04485E-09 -2.06926E-09 -2.09125E-09 -2.11090E-09 -2.12824E-09 -2.14335E-09 -2.15628E-09 -2.16709E-09
