 LCModel (Version 6.3-1R) Copyright: S.W. Provencher.          Ref.: Magn. Reson. Med. 30:672-679 (1993).                
 onepulse 25x21_ftSpec_smooth_lcm
 26 lines in following concentration table = NCONC+1
    Conc.  %SD /Cr+PCr  Metabolite                                         
 1.36E-10 274%   5.101 Ala                                                 
 7.08E-10 128%  26.472 Asp                                                 
    0.000 999%   0.000 Cr                                                  
 2.92E-09  37% 109.056 GABA                                                
 2.14E-09  30%  80.188 Glc                                                 
    0.000 999%   0.000 Gln                                                 
 3.59E-10 258%  13.413 Glu                                                 
    0.000 999%   0.000 Glyc                                                
 1.73E-10  61%   6.470 GPC                                                 
 8.45E-11 548%   3.162 GSH                                                 
 3.89E-10 111%  14.557 Ins                                                 
    0.000 999%   0.000 Lac                                                 
    0.000 999%   0.000 NAAG                                                
 1.11E-09  31%  41.568 NAA                                                 
    0.000 999%   0.000 PCh                                                 
 2.67E-11 999%   1.000 PCr                                                 
    0.000 999%   0.000 PE                                                  
    0.000 999%   0.000 Scyllo                                              
 4.71E-10 227%  17.609 Ser                                                 
    0.000 999%   0.000 Tau                                                 
 1.73E-10  61%   6.470 GPC+PCh                                             
 1.11E-09  31%  41.568 NAA+NAAG                                            
 3.89E-10 111%  14.557 Ins+Glyc                                            
 2.67E-11 999%   1.000 Cr+PCr                                              
 3.59E-10 258%  13.413 Glu+Gln                                             
   6 lines in following misc. output table
  FWHM = 0.089 ppm    S/N =   3                                            
  Data shift = 0.335 ppm                                                   
  Ph:  36 deg      15.2 deg/ppm                                            
  alphaB,S = 1.8E-01,   8.3E+01                                            
   16 spline knots.   Ns = 5(1)                                            
  ( 7) 2 infls.   ( 5) 1 extrs.                                            
  363 points on ppm-axis = NY
      4.250000     4.238821     4.227641     4.216462     4.205282     4.194103     4.182923     4.171744     4.160564     4.149385
      4.138206     4.127026     4.115847     4.104667     4.093488     4.082308     4.071129     4.059949     4.048770     4.037591
      4.026411     4.015232     4.004052     3.992873     3.981693     3.970514     3.959334     3.948155     3.936975     3.925796
      3.914617     3.903437     3.892258     3.881078     3.869899     3.858719     3.847540     3.836360     3.825181     3.814002
      3.802822     3.791643     3.780463     3.769284     3.758104     3.746925     3.735745     3.724566     3.713387     3.702207
      3.691028     3.679848     3.668669     3.657489     3.646310     3.635130     3.623951     3.612772     3.601592     3.590413
      3.579233     3.568054     3.556874     3.545695     3.534515     3.523336     3.512156     3.500977     3.489798     3.478618
      3.467439     3.456259     3.445080     3.433900     3.422721     3.411541     3.400362     3.389183     3.378003     3.366824
      3.355644     3.344465     3.333285     3.322106     3.310926     3.299747     3.288568     3.277388     3.266209     3.255029
      3.243850     3.232670     3.221491     3.210311     3.199132     3.187953     3.176773     3.165594     3.154414     3.143235
      3.132055     3.120876     3.109696     3.098517     3.087337     3.076158     3.064979     3.053799     3.042620     3.031440
      3.020261     3.009081     2.997902     2.986722     2.975543     2.964364     2.953184     2.942005     2.930825     2.919646
      2.908466     2.897287     2.886107     2.874928     2.863749     2.852569     2.841390     2.830210     2.819031     2.807851
      2.796672     2.785492     2.774313     2.763134     2.751954     2.740775     2.729595     2.718416     2.707236     2.696057
      2.684877     2.673698     2.662519     2.651339     2.640160     2.628980     2.617801     2.606621     2.595442     2.584262
      2.573083     2.561903     2.550724     2.539545     2.528365     2.517186     2.506006     2.494827     2.483647     2.472468
      2.461288     2.450109     2.438930     2.427750     2.416571     2.405391     2.394212     2.383032     2.371853     2.360673
      2.349494     2.338315     2.327135     2.315956     2.304776     2.293597     2.282417     2.271238     2.260058     2.248879
      2.237700     2.226520     2.215341     2.204161     2.192982     2.181802     2.170623     2.159443     2.148264     2.137084
      2.125905     2.114726     2.103546     2.092367     2.081187     2.070008     2.058828     2.047649     2.036469     2.025290
      2.014111     2.002931     1.991752     1.980572     1.969393     1.958213     1.947034     1.935854     1.924675     1.913496
      1.902316     1.891137     1.879957     1.868778     1.857598     1.846419     1.835239     1.824060     1.812881     1.801701
      1.790522     1.779342     1.768163     1.756983     1.745804     1.734624     1.723445     1.712265     1.701086     1.689907
      1.678727     1.667548     1.656368     1.645189     1.634009     1.622830     1.611650     1.600471     1.589292     1.578112
      1.566933     1.555753     1.544574     1.533394     1.522215     1.511035     1.499856     1.488677     1.477497     1.466318
      1.455138     1.443959     1.432779     1.421600     1.410420     1.399241     1.388062     1.376882     1.365703     1.354523
      1.343344     1.332164     1.320985     1.309805     1.298626     1.287446     1.276267     1.265088     1.253908     1.242729
      1.231549     1.220370     1.209190     1.198011     1.186831     1.175652     1.164473     1.153293     1.142114     1.130934
      1.119755     1.108575     1.097396     1.086216     1.075037     1.063858     1.052678     1.041499     1.030319     1.019140
      1.007960     0.996781     0.985601     0.974422     0.963243     0.952063     0.940884     0.929704     0.918525     0.907345
      0.896166     0.884986     0.873807     0.862628     0.851448     0.840269     0.829089     0.817910     0.806730     0.795551
      0.784371     0.773192     0.762012     0.750833     0.739654     0.728474     0.717295     0.706115     0.694936     0.683756
      0.672577     0.661397     0.650218     0.639039     0.627859     0.616680     0.605500     0.594321     0.583141     0.571962
      0.560782     0.549603     0.538424     0.527244     0.516065     0.504885     0.493706     0.482526     0.471347     0.460167
      0.448988     0.437809     0.426629     0.415450     0.404270     0.393091     0.381911     0.370732     0.359552     0.348373
      0.337193     0.326014     0.314835     0.303655     0.292476     0.281296     0.270117     0.258937     0.247758     0.236578
      0.225399     0.214220     0.203040
 NY phased data points follow
   1.21400E-08  1.43522E-08  1.59234E-08  1.77432E-08  1.72817E-08  1.66934E-08  1.55134E-08  1.54127E-08  1.36339E-08  1.39276E-08
   1.26522E-08  1.22839E-08  1.31548E-08  1.28965E-08  1.25623E-08  1.36634E-08  1.42554E-08  1.40566E-08  1.39904E-08  1.41277E-08
   1.33818E-08  1.34560E-08  1.31482E-08  1.25742E-08  1.25952E-08  1.27723E-08  1.24445E-08  1.40662E-08  1.36384E-08  1.29469E-08
   1.25353E-08  1.26976E-08  1.35960E-08  1.39888E-08  1.57673E-08  1.58032E-08  1.60698E-08  1.45330E-08  1.33748E-08  1.22113E-08
   1.17344E-08  1.14444E-08  1.04776E-08  1.09426E-08  1.00601E-08  9.94417E-09  9.63206E-09  8.94321E-09  8.53343E-09  8.17891E-09
   7.51024E-09  8.24401E-09  8.36909E-09  8.72938E-09  8.57621E-09  8.00563E-09  7.79640E-09  7.70520E-09  6.62682E-09  7.35778E-09
   7.33931E-09  7.91293E-09  7.97511E-09  9.85995E-09  1.16793E-08  1.41463E-08  1.53768E-08  1.51589E-08  1.36535E-08  1.19521E-08
   1.08383E-08  1.04214E-08  8.68544E-09  8.30909E-09  8.27437E-09  7.25039E-09  6.51557E-09  7.22637E-09  7.30365E-09  8.62911E-09
   1.13398E-08  1.43470E-08  1.60574E-08  1.59954E-08  1.57972E-08  1.42837E-08  1.32142E-08  1.21466E-08  1.22492E-08  1.12870E-08
   1.11315E-08  1.05858E-08  9.96608E-09  9.25691E-09  9.25177E-09  8.81726E-09  7.84247E-09  7.71182E-09  7.59176E-09  6.85143E-09
   7.07890E-09  6.81431E-09  6.71602E-09  6.61295E-09  6.89656E-09  6.97897E-09  6.48993E-09  6.57098E-09  6.06983E-09  5.79887E-09
   5.46910E-09  5.13254E-09  4.26199E-09  3.79318E-09  4.81049E-09  5.21448E-09  5.32959E-09  4.66400E-09  5.29094E-09  4.82940E-09
   5.49052E-09  5.45984E-09  5.39039E-09  4.72792E-09  4.82633E-09  3.68750E-09  3.82164E-09  2.81265E-09  2.75761E-09  3.10490E-09
   3.83602E-09  3.58419E-09  3.63621E-09  3.71627E-09  3.74761E-09  3.59652E-09  3.29823E-09  3.26886E-09  3.24008E-09  2.84714E-09
   3.39047E-09  4.34078E-09  4.74055E-09  4.95918E-09  4.80795E-09  4.84599E-09  4.84571E-09  5.79635E-09  5.66848E-09  5.64276E-09
   6.20655E-09  5.50046E-09  5.82960E-09  6.12063E-09  5.40924E-09  5.76794E-09  5.83096E-09  5.79538E-09  6.10929E-09  6.40333E-09
   6.56723E-09  6.49037E-09  6.66094E-09  6.99570E-09  6.49610E-09  6.46671E-09  6.83936E-09  7.32678E-09  8.38683E-09  1.01312E-08
   1.18326E-08  1.46865E-08  1.67774E-08  1.81121E-08  1.71157E-08  1.49457E-08  1.19182E-08  1.02880E-08  8.42342E-09  7.44981E-09
   6.10235E-09  5.38646E-09  4.60949E-09  3.71895E-09  2.80774E-09  1.69979E-09  1.12980E-09  1.19815E-10 -3.13880E-10 -1.57117E-09
  -2.87457E-09 -3.61351E-09 -5.01477E-09 -6.44875E-09 -7.13077E-09 -8.99269E-09 -1.08597E-08 -1.23088E-08 -1.45636E-08 -1.60293E-08
  -1.78400E-08 -1.90954E-08 -2.04652E-08 -2.13077E-08 -2.21902E-08 -2.21366E-08 -2.29012E-08 -2.14799E-08 -2.06811E-08 -1.88409E-08
  -1.74945E-08 -1.45302E-08 -1.22216E-08 -1.04135E-08 -7.93220E-09 -5.26103E-09 -3.54991E-09 -1.85361E-09  6.20450E-11  1.07291E-09
   1.44627E-09  1.83600E-09  1.20924E-09  9.99620E-10  9.00291E-10 -5.66084E-10 -5.83142E-10 -7.05412E-10 -7.54162E-10  6.75394E-11
   3.36825E-10  1.36792E-10 -3.17201E-10  7.95109E-10  1.28599E-11 -6.07871E-10 -5.94447E-10 -3.89460E-10 -6.88028E-10 -7.70505E-11
  -1.29453E-10 -1.26682E-10  5.27652E-10  2.40987E-10 -8.46749E-11  3.27679E-10  2.23899E-11 -3.45220E-10 -2.58617E-10 -1.70186E-10
  -3.92273E-10 -1.52947E-10  1.37281E-10  8.28212E-11  1.33022E-10  7.77227E-10  5.19592E-10  6.94906E-10  9.68121E-10  4.33946E-10
   5.68457E-10 -2.60158E-10 -9.17604E-11 -7.43583E-10 -5.73070E-10 -4.83949E-10 -1.34584E-10 -2.20555E-10 -1.36004E-10  4.63547E-10
   8.25404E-10  7.91066E-10  9.69884E-10  1.00033E-09  1.12842E-09  1.01244E-09  1.35679E-09  7.28512E-10  5.86396E-10  9.12572E-10
   4.90035E-10  2.54383E-10  2.79322E-10  5.49901E-10  1.75637E-10  2.89595E-10  3.98265E-10  2.43790E-10  1.84416E-10 -9.74300E-11
   8.84414E-10  3.77467E-10  3.90356E-10  3.29776E-10  5.77629E-10  1.02699E-10  1.09163E-09  5.46278E-10  1.66932E-10 -5.48774E-11
   2.40918E-10 -4.50438E-10  3.89225E-10  4.11427E-10  4.76243E-10  6.41315E-10  1.69904E-10  5.43344E-10  6.40377E-10  6.12191E-11
   2.60468E-10  6.83682E-10  5.09101E-10  7.80968E-10  4.61100E-10  5.74025E-10  9.34394E-10  5.24880E-10  6.43543E-10  7.95400E-10
   1.06669E-09  5.74415E-10  5.07595E-10  7.20890E-10  1.21310E-09  5.75197E-10  1.04636E-09  9.81444E-10  8.52757E-10  2.25087E-10
   1.69490E-09  1.16547E-09  7.87124E-10  1.13874E-09  1.48513E-09  1.62965E-09  1.37293E-09  8.96464E-10  1.09308E-09  1.26398E-09
   7.47541E-10  1.53182E-09  1.78069E-09  1.81325E-09  9.75373E-10  1.78256E-09  1.22265E-09  1.14040E-09  1.46780E-09  1.41131E-09
   1.99474E-09  1.73031E-09  2.02005E-09  1.61436E-09  1.73056E-09  1.58769E-09  2.12550E-09  1.47439E-09  2.14020E-09  1.96991E-09
   1.98360E-09  1.78981E-09  1.87390E-09
 NY points of the fit to the data follow
   1.46923E-08  1.50122E-08  1.52912E-08  1.55863E-08  1.56729E-08  1.54843E-08  1.50111E-08  1.43480E-08  1.37336E-08  1.31359E-08
   1.27978E-08  1.26710E-08  1.26590E-08  1.27470E-08  1.29675E-08  1.33395E-08  1.38474E-08  1.43969E-08  1.47745E-08  1.49213E-08
   1.49532E-08  1.47366E-08  1.41823E-08  1.35220E-08  1.29050E-08  1.23860E-08  1.21909E-08  1.24729E-08  1.29617E-08  1.35531E-08
   1.38791E-08  1.38927E-08  1.39596E-08  1.38976E-08  1.36650E-08  1.38097E-08  1.41662E-08  1.43110E-08  1.41180E-08  1.36408E-08
   1.29836E-08  1.22631E-08  1.11415E-08  1.00524E-08  9.53429E-09  9.04521E-09  8.49998E-09  8.26152E-09  8.21756E-09  8.26404E-09
   8.34521E-09  8.38664E-09  8.37155E-09  8.27488E-09  8.13751E-09  8.04820E-09  8.03655E-09  8.09965E-09  8.11533E-09  8.09996E-09
   8.18423E-09  8.51302E-09  9.12915E-09  9.83639E-09  1.07739E-08  1.17925E-08  1.25677E-08  1.31012E-08  1.34245E-08  1.34156E-08
   1.30491E-08  1.22853E-08  1.12523E-08  1.02713E-08  9.35589E-09  8.41585E-09  8.10420E-09  8.73520E-09  9.67804E-09  1.08853E-08
   1.22483E-08  1.34636E-08  1.44538E-08  1.51389E-08  1.52351E-08  1.46875E-08  1.35925E-08  1.20748E-08  1.06471E-08  1.01885E-08
   1.00333E-08  9.93362E-09  9.72501E-09  9.24468E-09  8.79618E-09  8.45044E-09  7.90193E-09  7.39117E-09  7.07964E-09  6.79208E-09
   6.57633E-09  6.44695E-09  6.36856E-09  6.34628E-09  6.35037E-09  6.35495E-09  6.34311E-09  6.30307E-09  6.22614E-09  6.11037E-09
   5.96753E-09  5.82861E-09  5.71859E-09  5.58246E-09  5.45232E-09  5.37983E-09  5.32648E-09  5.28100E-09  5.23944E-09  5.19996E-09
   5.16155E-09  5.12354E-09  5.08546E-09  5.04693E-09  5.00768E-09  4.96748E-09  4.92612E-09  4.88344E-09  4.83929E-09  4.79354E-09
   4.74602E-09  4.69665E-09  4.64531E-09  4.59188E-09  4.53627E-09  4.47838E-09  4.41812E-09  4.35541E-09  4.29016E-09  4.22230E-09
   4.15174E-09  4.07844E-09  4.00231E-09  3.92330E-09  3.84134E-09  3.75641E-09  3.66849E-09  3.57754E-09  3.48357E-09  3.38658E-09
   3.28665E-09  3.18385E-09  3.07832E-09  2.97027E-09  2.85997E-09  2.74784E-09  2.63447E-09  2.52067E-09  2.40772E-09  2.29742E-09
   2.19266E-09  2.09808E-09  2.02180E-09  1.97910E-09  2.00348E-09  2.18680E-09  2.90493E-09  5.02940E-09  8.02812E-09  1.12140E-08
   1.42087E-08  1.67093E-08  1.83528E-08  1.87641E-08  1.76531E-08  1.48894E-08  1.06234E-08  5.54483E-09  1.23306E-09 -6.15695E-10
  -1.36295E-09 -1.82356E-09 -2.17353E-09 -2.46811E-09 -2.72994E-09 -2.96982E-09 -3.19335E-09 -3.40359E-09 -3.60221E-09 -3.79010E-09
  -3.96767E-09 -4.13505E-09 -4.29213E-09 -4.43866E-09 -4.57436E-09 -4.69883E-09 -4.81180E-09 -4.91353E-09 -5.00437E-09 -5.08461E-09
  -5.15457E-09 -5.21453E-09 -5.26478E-09 -5.30557E-09 -5.33720E-09 -5.35990E-09 -5.37394E-09 -5.37958E-09 -5.37707E-09 -5.36666E-09
  -5.34860E-09 -5.32313E-09 -5.29050E-09 -5.25097E-09 -5.20476E-09 -5.15213E-09 -5.09331E-09 -5.02855E-09 -4.95810E-09 -4.88219E-09
  -4.80106E-09 -4.71495E-09 -4.62411E-09 -4.52877E-09 -4.42920E-09 -4.32568E-09 -4.21851E-09 -4.10799E-09 -3.99441E-09 -3.87808E-09
  -3.75929E-09 -3.63833E-09 -3.51551E-09 -3.39112E-09 -3.26544E-09 -3.13879E-09 -3.01145E-09 -2.88374E-09 -2.75590E-09 -2.62830E-09
  -2.50119E-09 -2.37486E-09 -2.24963E-09 -2.12580E-09 -2.00362E-09 -1.88342E-09 -1.76549E-09 -1.65012E-09 -1.53761E-09 -1.42826E-09
  -1.32233E-09 -1.22017E-09 -1.12186E-09 -1.02734E-09 -9.36527E-10 -8.49330E-10 -7.65645E-10 -6.85393E-10 -6.08473E-10 -5.34798E-10
  -4.64282E-10 -3.96818E-10 -3.32333E-10 -2.70722E-10 -2.11904E-10 -1.55783E-10 -1.02250E-10 -5.12518E-11 -2.67680E-12  4.35740E-11
   8.75895E-11  1.29445E-10  1.69254E-10  2.07096E-10  2.43050E-10  2.77240E-10  3.09721E-10  3.40604E-10  3.69971E-10  3.97926E-10
   4.24530E-10  4.49841E-10  4.73919E-10  4.96819E-10  5.18593E-10  5.39302E-10  5.58999E-10  5.77744E-10  5.95590E-10  6.12592E-10
   6.28810E-10  6.44296E-10  6.59110E-10  6.73305E-10  6.86937E-10  7.00064E-10  7.12741E-10  7.25023E-10  7.36964E-10  7.48628E-10
   7.60060E-10  7.71324E-10  7.82474E-10  7.93561E-10  8.04646E-10  8.15783E-10  8.27027E-10  8.38434E-10  8.50022E-10  8.61798E-10
   8.73765E-10  8.85926E-10  8.98285E-10  9.10847E-10  9.23614E-10  9.36591E-10  9.49781E-10  9.63188E-10  9.76816E-10  9.90669E-10
   1.00475E-09  1.01906E-09  1.03361E-09  1.04840E-09  1.06343E-09  1.07871E-09  1.09424E-09  1.11002E-09  1.12606E-09  1.14236E-09
   1.15893E-09  1.17577E-09  1.19288E-09  1.21027E-09  1.22793E-09  1.24588E-09  1.26411E-09  1.28259E-09  1.30132E-09  1.32029E-09
   1.33948E-09  1.35888E-09  1.37847E-09  1.39825E-09  1.41820E-09  1.43831E-09  1.45857E-09  1.47895E-09  1.49946E-09  1.52008E-09
   1.54078E-09  1.56157E-09  1.58243E-09  1.60335E-09  1.62431E-09  1.64530E-09  1.66630E-09  1.68731E-09  1.70832E-09  1.72930E-09
   1.75025E-09  1.77116E-09  1.79201E-09
 NY background values follow
     5.148E-09    5.129E-09    5.109E-09    5.090E-09    5.071E-09    5.052E-09    5.033E-09    5.014E-09    4.995E-09    4.975E-09
     4.957E-09    4.938E-09    4.919E-09    4.900E-09    4.881E-09    4.863E-09    4.845E-09    4.826E-09    4.808E-09    4.790E-09
     4.772E-09    4.755E-09    4.737E-09    4.720E-09    4.703E-09    4.686E-09    4.669E-09    4.653E-09    4.637E-09    4.621E-09
     4.605E-09    4.590E-09    4.574E-09    4.559E-09    4.545E-09    4.531E-09    4.517E-09    4.503E-09    4.490E-09    4.477E-09
     4.465E-09    4.452E-09    4.441E-09    4.429E-09    4.419E-09    4.408E-09    4.398E-09    4.389E-09    4.380E-09    4.371E-09
     4.363E-09    4.355E-09    4.348E-09    4.342E-09    4.336E-09    4.330E-09    4.325E-09    4.321E-09    4.317E-09    4.314E-09
     4.311E-09    4.309E-09    4.307E-09    4.306E-09    4.305E-09    4.304E-09    4.304E-09    4.304E-09    4.305E-09    4.306E-09
     4.307E-09    4.308E-09    4.310E-09    4.312E-09    4.314E-09    4.316E-09    4.319E-09    4.322E-09    4.325E-09    4.328E-09
     4.331E-09    4.334E-09    4.337E-09    4.341E-09    4.344E-09    4.347E-09    4.350E-09    4.354E-09    4.357E-09    4.360E-09
     4.362E-09    4.365E-09    4.367E-09    4.369E-09    4.371E-09    4.372E-09    4.373E-09    4.374E-09    4.374E-09    4.373E-09
     4.372E-09    4.371E-09    4.369E-09    4.366E-09    4.363E-09    4.359E-09    4.354E-09    4.348E-09    4.342E-09    4.334E-09
     4.326E-09    4.317E-09    4.307E-09    4.296E-09    4.284E-09    4.271E-09    4.256E-09    4.241E-09    4.223E-09    4.205E-09
     4.185E-09    4.163E-09    4.139E-09    4.114E-09    4.086E-09    4.057E-09    4.026E-09    3.992E-09    3.957E-09    3.919E-09
     3.879E-09    3.836E-09    3.791E-09    3.743E-09    3.692E-09    3.639E-09    3.583E-09    3.524E-09    3.462E-09    3.397E-09
     3.329E-09    3.258E-09    3.183E-09    3.105E-09    3.023E-09    2.938E-09    2.849E-09    2.756E-09    2.660E-09    2.559E-09
     2.455E-09    2.346E-09    2.234E-09    2.117E-09    1.995E-09    1.870E-09    1.739E-09    1.604E-09    1.465E-09    1.320E-09
     1.171E-09    1.017E-09    8.576E-10    6.932E-10    5.236E-10    3.486E-10    1.683E-10   -1.755E-11   -2.088E-10   -4.052E-10
    -6.059E-10   -8.105E-10   -1.018E-09   -1.229E-09   -1.441E-09   -1.655E-09   -1.870E-09   -2.085E-09   -2.300E-09   -2.514E-09
    -2.726E-09   -2.937E-09   -3.144E-09   -3.349E-09   -3.549E-09   -3.745E-09   -3.936E-09   -4.121E-09   -4.301E-09   -4.473E-09
    -4.638E-09   -4.794E-09   -4.943E-09   -5.082E-09   -5.211E-09   -5.330E-09   -5.438E-09   -5.535E-09   -5.622E-09   -5.699E-09
    -5.766E-09   -5.823E-09   -5.871E-09   -5.909E-09   -5.938E-09   -5.959E-09   -5.971E-09   -5.975E-09   -5.971E-09   -5.959E-09
    -5.939E-09   -5.912E-09   -5.878E-09   -5.837E-09   -5.790E-09   -5.736E-09   -5.676E-09   -5.610E-09   -5.539E-09   -5.462E-09
    -5.380E-09   -5.293E-09   -5.201E-09   -5.105E-09   -5.004E-09   -4.900E-09   -4.792E-09   -4.680E-09   -4.566E-09   -4.449E-09
    -4.329E-09   -4.208E-09   -4.084E-09   -3.959E-09   -3.833E-09   -3.705E-09   -3.577E-09   -3.449E-09   -3.320E-09   -3.192E-09
    -3.064E-09   -2.937E-09   -2.812E-09   -2.687E-09   -2.564E-09   -2.443E-09   -2.325E-09   -2.209E-09   -2.096E-09   -1.986E-09
    -1.880E-09   -1.777E-09   -1.678E-09   -1.583E-09   -1.492E-09   -1.404E-09   -1.320E-09   -1.239E-09   -1.161E-09   -1.087E-09
    -1.016E-09   -9.483E-10   -8.833E-10   -8.213E-10   -7.620E-10   -7.054E-10   -6.514E-10   -5.999E-10   -5.509E-10   -5.042E-10
    -4.597E-10   -4.174E-10   -3.772E-10   -3.389E-10   -3.025E-10   -2.679E-10   -2.350E-10   -2.037E-10   -1.739E-10   -1.455E-10
    -1.185E-10   -9.282E-11   -6.834E-11   -4.504E-11   -2.287E-11   -1.772E-12    1.831E-11    3.744E-11    5.567E-11    7.306E-11
     8.965E-11    1.055E-10    1.207E-10    1.353E-10    1.493E-10    1.628E-10    1.758E-10    1.884E-10    2.007E-10    2.127E-10
     2.245E-10    2.361E-10    2.476E-10    2.591E-10    2.705E-10    2.820E-10    2.936E-10    3.053E-10    3.172E-10    3.293E-10
     3.416E-10    3.541E-10    3.668E-10    3.797E-10    3.928E-10    4.061E-10    4.196E-10    4.333E-10    4.473E-10    4.614E-10
     4.758E-10    4.905E-10    5.053E-10    5.204E-10    5.358E-10    5.514E-10    5.672E-10    5.833E-10    5.996E-10    6.162E-10
     6.331E-10    6.502E-10    6.677E-10    6.853E-10    7.033E-10    7.216E-10    7.401E-10    7.589E-10    7.779E-10    7.971E-10
     8.166E-10    8.363E-10    8.562E-10    8.763E-10    8.965E-10    9.169E-10    9.375E-10    9.581E-10    9.789E-10    9.998E-10
     1.021E-09    1.042E-09    1.063E-09    1.084E-09    1.105E-09    1.127E-09    1.148E-09    1.169E-09    1.191E-09    1.212E-09
     1.233E-09    1.254E-09    1.275E-09
 Ala      Conc. = 1.36E-10
   5.23405E-09  5.22746E-09  5.21762E-09  5.20515E-09  5.18973E-09  5.17124E-09  5.14819E-09  5.11848E-09  5.08986E-09  5.06322E-09
   5.02860E-09  4.99541E-09  4.96912E-09  4.94149E-09  4.91458E-09  4.89078E-09  4.86872E-09  4.84777E-09  4.82759E-09  4.80799E-09
   4.78885E-09  4.77011E-09  4.75173E-09  4.73368E-09  4.71591E-09  4.69846E-09  4.68130E-09  4.66440E-09  4.64780E-09  4.63149E-09
   4.61548E-09  4.59975E-09  4.58434E-09  4.56925E-09  4.55447E-09  4.54003E-09  4.52594E-09  4.51221E-09  4.49883E-09  4.48582E-09
   4.47321E-09  4.46098E-09  4.44917E-09  4.43777E-09  4.42681E-09  4.41628E-09  4.40620E-09  4.39660E-09  4.38745E-09  4.37879E-09
   4.37065E-09  4.36299E-09  4.35586E-09  4.34927E-09  4.34326E-09  4.33775E-09  4.33280E-09  4.32844E-09  4.32463E-09  4.32135E-09
   4.31857E-09  4.31628E-09  4.31447E-09  4.31310E-09  4.31216E-09  4.31163E-09  4.31149E-09  4.31172E-09  4.31231E-09  4.31322E-09
   4.31444E-09  4.31596E-09  4.31774E-09  4.31979E-09  4.32206E-09  4.32456E-09  4.32725E-09  4.33012E-09  4.33316E-09  4.33635E-09
   4.33965E-09  4.34308E-09  4.34659E-09  4.35021E-09  4.35388E-09  4.35763E-09  4.36141E-09  4.36522E-09  4.36905E-09  4.37288E-09
   4.37675E-09  4.38065E-09  4.38468E-09  4.38892E-09  4.39356E-09  4.39891E-09  4.40559E-09  4.41485E-09  4.42971E-09  4.46006E-09
   4.52520E-09  4.59599E-09  4.66721E-09  4.76171E-09  4.85998E-09  4.94246E-09  4.99607E-09  5.01172E-09  4.98273E-09  4.90872E-09
   4.80281E-09  4.69688E-09  4.61641E-09  4.50678E-09  4.40047E-09  4.34946E-09  4.31567E-09  4.28814E-09  4.26308E-09  4.23879E-09
   4.21437E-09  4.18927E-09  4.16313E-09  4.13568E-09  4.10671E-09  4.07607E-09  4.04361E-09  4.00920E-09  3.97274E-09  3.93412E-09
   3.89324E-09  3.85000E-09  3.80431E-09  3.75608E-09  3.70523E-09  3.65167E-09  3.59531E-09  3.53608E-09  3.47389E-09  3.40865E-09
   3.34027E-09  3.26869E-09  3.19381E-09  3.11554E-09  3.03380E-09  2.94850E-09  2.85955E-09  2.76687E-09  2.67036E-09  2.56995E-09
   2.46555E-09  2.35707E-09  2.24444E-09  2.12756E-09  2.00637E-09  1.88077E-09  1.75071E-09  1.61609E-09  1.47687E-09  1.33298E-09
   1.18438E-09  1.03107E-09  8.73123E-10  7.10669E-10  5.44233E-10  3.75329E-10  2.10692E-10  6.73517E-11 -6.99391E-11 -2.10943E-10
  -3.60277E-10 -5.22181E-10 -7.02240E-10 -9.06011E-10 -1.13738E-09 -1.39749E-09 -1.68260E-09 -1.97936E-09 -2.25854E-09 -2.48998E-09
  -2.70902E-09 -2.92271E-09 -3.13235E-09 -3.33800E-09 -3.53938E-09 -3.73605E-09 -3.92750E-09 -4.11321E-09 -4.29258E-09 -4.46507E-09
  -4.63009E-09 -4.78708E-09 -4.93544E-09 -5.07456E-09 -5.20389E-09 -5.32284E-09 -5.43097E-09 -5.52843E-09 -5.61545E-09 -5.69228E-09
  -5.75915E-09 -5.81630E-09 -5.86398E-09 -5.90242E-09 -5.93186E-09 -5.95253E-09 -5.96468E-09 -5.96855E-09 -5.96438E-09 -5.95240E-09
  -5.93285E-09 -5.90597E-09 -5.87200E-09 -5.83118E-09 -5.78374E-09 -5.72994E-09 -5.66999E-09 -5.60414E-09 -5.53263E-09 -5.45570E-09
  -5.37358E-09 -5.28652E-09 -5.19475E-09 -5.09851E-09 -4.99806E-09 -4.89368E-09 -4.78568E-09 -4.67434E-09 -4.55997E-09 -4.44286E-09
  -4.32331E-09 -4.20160E-09 -4.07805E-09 -3.95294E-09 -3.82656E-09 -3.69922E-09 -3.57121E-09 -3.44282E-09 -3.31434E-09 -3.18608E-09
  -3.05834E-09 -2.93139E-09 -2.80555E-09 -2.68110E-09 -2.55833E-09 -2.43754E-09 -2.31903E-09 -2.20309E-09 -2.09001E-09 -1.98010E-09
  -1.87363E-09 -1.77092E-09 -1.67207E-09 -1.57703E-09 -1.48569E-09 -1.39797E-09 -1.31378E-09 -1.23302E-09 -1.15560E-09 -1.08143E-09
  -1.01042E-09 -9.42476E-10 -8.77513E-10 -8.15427E-10 -7.56142E-10 -6.99557E-10 -6.45564E-10 -5.94112E-10 -5.45086E-10 -4.98389E-10
  -4.53932E-10 -4.11639E-10 -3.71397E-10 -3.33125E-10 -2.96746E-10 -2.62134E-10 -2.29236E-10 -1.97938E-10 -1.68160E-10 -1.39798E-10
  -1.12790E-10 -8.70773E-11 -6.26030E-11 -3.93087E-11 -1.71438E-11  3.95374E-12  2.40355E-11  4.31617E-11  6.13874E-11  7.87658E-11
   9.53561E-11  1.11213E-10  1.26394E-10  1.40955E-10  1.54949E-10  1.68436E-10  1.81470E-10  1.94108E-10  2.06402E-10  2.18416E-10
   2.30196E-10  2.41806E-10  2.53300E-10  2.64728E-10  2.76152E-10  2.87627E-10  2.99206E-10  3.10947E-10  3.22867E-10  3.34973E-10
   3.47267E-10  3.59755E-10  3.72438E-10  3.85323E-10  3.98411E-10  4.11707E-10  4.25215E-10  4.38938E-10  4.52881E-10  4.67047E-10
   4.81439E-10  4.96062E-10  5.10920E-10  5.26016E-10  5.41353E-10  5.56936E-10  5.72769E-10  5.88855E-10  6.05197E-10  6.21800E-10
   6.38668E-10  6.55804E-10  6.73212E-10  6.90895E-10  7.08857E-10  7.27102E-10  7.45618E-10  7.64395E-10  7.83419E-10  8.02678E-10
   8.22158E-10  8.41846E-10  8.61731E-10  8.81799E-10  9.02038E-10  9.22433E-10  9.42975E-10  9.63648E-10  9.84441E-10  1.00534E-09
   1.02633E-09  1.04741E-09  1.06855E-09  1.08975E-09  1.11099E-09  1.13226E-09  1.15355E-09  1.17485E-09  1.19614E-09  1.21740E-09
   1.23864E-09  1.25983E-09  1.28096E-09
 Asp      Conc. = 7.08E-10
   6.01033E-09  5.90347E-09  5.78986E-09  5.66851E-09  5.54500E-09  5.40921E-09  5.29300E-09  5.19260E-09  5.13163E-09  5.08725E-09
   5.05148E-09  5.02097E-09  4.99403E-09  4.96950E-09  4.94626E-09  4.92390E-09  4.90238E-09  4.88161E-09  4.86151E-09  4.84201E-09
   4.82308E-09  4.80468E-09  4.78682E-09  4.76950E-09  4.75273E-09  4.73657E-09  4.72106E-09  4.70626E-09  4.69230E-09  4.67931E-09
   4.66751E-09  4.65721E-09  4.64889E-09  4.64335E-09  4.64203E-09  4.64812E-09  4.66988E-09  4.70205E-09  4.74805E-09  4.79242E-09
   4.82630E-09  4.84777E-09  4.86474E-09  4.90010E-09  4.95461E-09  5.05941E-09  5.17221E-09  5.27754E-09  5.40924E-09  5.54552E-09
   5.65913E-09  5.70023E-09  5.65040E-09  5.50648E-09  5.30405E-09  5.12281E-09  4.98499E-09  4.93233E-09  4.85555E-09  4.75510E-09
   4.69661E-09  4.66512E-09  4.63895E-09  4.62523E-09  4.61071E-09  4.57303E-09  4.51869E-09  4.48477E-09  4.46225E-09  4.44619E-09
   4.43427E-09  4.42527E-09  4.41841E-09  4.41320E-09  4.40929E-09  4.40645E-09  4.40449E-09  4.40323E-09  4.40259E-09  4.40247E-09
   4.40276E-09  4.40344E-09  4.40440E-09  4.40563E-09  4.40704E-09  4.40863E-09  4.41031E-09  4.41204E-09  4.41378E-09  4.41547E-09
   4.41708E-09  4.41855E-09  4.41985E-09  4.42093E-09  4.42176E-09  4.42228E-09  4.42247E-09  4.42229E-09  4.42168E-09  4.42064E-09
   4.41909E-09  4.41702E-09  4.41439E-09  4.41116E-09  4.40728E-09  4.40273E-09  4.39748E-09  4.39147E-09  4.38468E-09  4.37707E-09
   4.36862E-09  4.35927E-09  4.34897E-09  4.33770E-09  4.32537E-09  4.31188E-09  4.29717E-09  4.28114E-09  4.26373E-09  4.24485E-09
   4.22442E-09  4.20236E-09  4.17859E-09  4.15304E-09  4.12562E-09  4.09625E-09  4.06486E-09  4.03136E-09  3.99569E-09  3.95775E-09
   3.91746E-09  3.87475E-09  3.82955E-09  3.78176E-09  3.73133E-09  3.67815E-09  3.62216E-09  3.56328E-09  3.50144E-09  3.43655E-09
   3.36851E-09  3.29729E-09  3.22277E-09  3.14489E-09  3.06355E-09  2.97867E-09  2.89018E-09  2.79800E-09  2.70204E-09  2.60223E-09
   2.49850E-09  2.39077E-09  2.27899E-09  2.16308E-09  2.04301E-09  1.91872E-09  1.79019E-09  1.65741E-09  1.52043E-09  1.37930E-09
   1.23419E-09  1.08543E-09  9.33622E-10  7.79911E-10  6.26923E-10  4.81589E-10  3.70562E-10  3.93656E-10  4.79922E-10  5.72101E-10
   6.41742E-10  6.64854E-10  6.10520E-10  4.46971E-10  1.50421E-10 -2.89487E-10 -8.59849E-10 -1.50232E-09 -2.07787E-09 -2.40145E-09
  -2.65132E-09 -2.87948E-09 -3.09718E-09 -3.30781E-09 -3.51245E-09 -3.71137E-09 -3.90444E-09 -4.09132E-09 -4.27157E-09 -4.44473E-09
  -4.61027E-09 -4.76767E-09 -4.91635E-09 -5.05573E-09 -5.18526E-09 -5.30437E-09 -5.41263E-09 -5.51020E-09 -5.59731E-09 -5.67421E-09
  -5.74114E-09 -5.79834E-09 -5.84606E-09 -5.88453E-09 -5.91399E-09 -5.93469E-09 -5.94686E-09 -5.95075E-09 -5.94658E-09 -5.93461E-09
  -5.91507E-09 -5.88820E-09 -5.85423E-09 -5.81342E-09 -5.76598E-09 -5.71218E-09 -5.65223E-09 -5.58638E-09 -5.51487E-09 -5.43795E-09
  -5.35583E-09 -5.26877E-09 -5.17700E-09 -5.08075E-09 -4.98030E-09 -4.87593E-09 -4.76793E-09 -4.65659E-09 -4.54222E-09 -4.42511E-09
