 LCModel (Version 6.3-1R) Copyright: S.W. Provencher.          Ref.: Magn. Reson. Med. 30:672-679 (1993).                
 onepulse 25x20_ftSpec_smooth_lcm
 26 lines in following concentration table = NCONC+1
    Conc.  %SD /Cr+PCr  Metabolite                                         
 1.10E-10 323%   2.098 Ala                                                 
 7.34E-10 118%  14.053 Asp                                                 
    0.000 999%   0.000 Cr                                                  
 2.84E-09  36%  54.422 GABA                                                
 2.00E-09  31%  38.379 Glc                                                 
    0.000 999%   0.000 Gln                                                 
 3.80E-10 229%   7.279 Glu                                                 
    0.000 999%   0.000 Glyc                                                
 1.66E-10  60%   3.174 GPC                                                 
 5.06E-11 876%   0.968 GSH                                                 
 3.44E-10 118%   6.595 Ins                                                 
    0.000 999%   0.000 Lac                                                 
    0.000 999%   0.000 NAAG                                                
 1.04E-09  31%  19.857 NAA                                                 
    0.000 999%   0.000 PCh                                                 
 5.22E-11 944%   1.000 PCr                                                 
    0.000 999%   0.000 PE                                                  
    0.000 999%   0.000 Scyllo                                              
 4.48E-10 254%   8.582 Ser                                                 
    0.000 999%   0.000 Tau                                                 
 1.66E-10  60%   3.174 GPC+PCh                                             
 1.04E-09  31%  19.857 NAA+NAAG                                            
 3.44E-10 118%   6.595 Ins+Glyc                                            
 5.22E-11 944%   1.000 Cr+PCr                                              
 3.80E-10 229%   7.279 Glu+Gln                                             
   6 lines in following misc. output table
  FWHM = 0.089 ppm    S/N =   3                                            
  Data shift = 0.335 ppm                                                   
  Ph:  41 deg      16.6 deg/ppm                                            
  alphaB,S = 1.8E-01,   8.3E+01                                            
   16 spline knots.   Ns = 5(1)                                            
  ( 7) 2 infls.   ( 5) 1 extrs.                                            
  363 points on ppm-axis = NY
      4.250000     4.238821     4.227641     4.216462     4.205282     4.194103     4.182923     4.171744     4.160564     4.149385
      4.138206     4.127026     4.115847     4.104667     4.093488     4.082308     4.071129     4.059949     4.048770     4.037591
      4.026411     4.015232     4.004052     3.992873     3.981693     3.970514     3.959334     3.948155     3.936975     3.925796
      3.914617     3.903437     3.892258     3.881078     3.869899     3.858719     3.847540     3.836360     3.825181     3.814002
      3.802822     3.791643     3.780463     3.769284     3.758104     3.746925     3.735745     3.724566     3.713387     3.702207
      3.691028     3.679848     3.668669     3.657489     3.646310     3.635130     3.623951     3.612772     3.601592     3.590413
      3.579233     3.568054     3.556874     3.545695     3.534515     3.523336     3.512156     3.500977     3.489798     3.478618
      3.467439     3.456259     3.445080     3.433900     3.422721     3.411541     3.400362     3.389183     3.378003     3.366824
      3.355644     3.344465     3.333285     3.322106     3.310926     3.299747     3.288568     3.277388     3.266209     3.255029
      3.243850     3.232670     3.221491     3.210311     3.199132     3.187953     3.176773     3.165594     3.154414     3.143235
      3.132055     3.120876     3.109696     3.098517     3.087337     3.076158     3.064979     3.053799     3.042620     3.031440
      3.020261     3.009081     2.997902     2.986722     2.975543     2.964364     2.953184     2.942005     2.930825     2.919646
      2.908466     2.897287     2.886107     2.874928     2.863749     2.852569     2.841390     2.830210     2.819031     2.807851
      2.796672     2.785492     2.774313     2.763134     2.751954     2.740775     2.729595     2.718416     2.707236     2.696057
      2.684877     2.673698     2.662519     2.651339     2.640160     2.628980     2.617801     2.606621     2.595442     2.584262
      2.573083     2.561903     2.550724     2.539545     2.528365     2.517186     2.506006     2.494827     2.483647     2.472468
      2.461288     2.450109     2.438930     2.427750     2.416571     2.405391     2.394212     2.383032     2.371853     2.360673
      2.349494     2.338315     2.327135     2.315956     2.304776     2.293597     2.282417     2.271238     2.260058     2.248879
      2.237700     2.226520     2.215341     2.204161     2.192982     2.181802     2.170623     2.159443     2.148264     2.137084
      2.125905     2.114726     2.103546     2.092367     2.081187     2.070008     2.058828     2.047649     2.036469     2.025290
      2.014111     2.002931     1.991752     1.980572     1.969393     1.958213     1.947034     1.935854     1.924675     1.913496
      1.902316     1.891137     1.879957     1.868778     1.857598     1.846419     1.835239     1.824060     1.812881     1.801701
      1.790522     1.779342     1.768163     1.756983     1.745804     1.734624     1.723445     1.712265     1.701086     1.689907
      1.678727     1.667548     1.656368     1.645189     1.634009     1.622830     1.611650     1.600471     1.589292     1.578112
      1.566933     1.555753     1.544574     1.533394     1.522215     1.511035     1.499856     1.488677     1.477497     1.466318
      1.455138     1.443959     1.432779     1.421600     1.410420     1.399241     1.388062     1.376882     1.365703     1.354523
      1.343344     1.332164     1.320985     1.309805     1.298626     1.287446     1.276267     1.265088     1.253908     1.242729
      1.231549     1.220370     1.209190     1.198011     1.186831     1.175652     1.164473     1.153293     1.142114     1.130934
      1.119755     1.108575     1.097396     1.086216     1.075037     1.063858     1.052678     1.041499     1.030319     1.019140
      1.007960     0.996781     0.985601     0.974422     0.963243     0.952063     0.940884     0.929704     0.918525     0.907345
      0.896166     0.884986     0.873807     0.862628     0.851448     0.840269     0.829089     0.817910     0.806730     0.795551
      0.784371     0.773192     0.762012     0.750833     0.739654     0.728474     0.717295     0.706115     0.694936     0.683756
      0.672577     0.661397     0.650218     0.639039     0.627859     0.616680     0.605500     0.594321     0.583141     0.571962
      0.560782     0.549603     0.538424     0.527244     0.516065     0.504885     0.493706     0.482526     0.471347     0.460167
      0.448988     0.437809     0.426629     0.415450     0.404270     0.393091     0.381911     0.370732     0.359552     0.348373
      0.337193     0.326014     0.314835     0.303655     0.292476     0.281296     0.270117     0.258937     0.247758     0.236578
      0.225399     0.214220     0.203040
 NY phased data points follow
   1.27801E-08  1.48486E-08  1.60093E-08  1.76610E-08  1.67438E-08  1.60897E-08  1.49684E-08  1.46392E-08  1.28981E-08  1.36735E-08
   1.17463E-08  1.19739E-08  1.25652E-08  1.23441E-08  1.22244E-08  1.31049E-08  1.33815E-08  1.32666E-08  1.30564E-08  1.33158E-08
   1.25289E-08  1.27977E-08  1.24296E-08  1.19372E-08  1.18291E-08  1.20460E-08  1.18046E-08  1.35444E-08  1.26759E-08  1.23162E-08
   1.18037E-08  1.23091E-08  1.29500E-08  1.36798E-08  1.50667E-08  1.51023E-08  1.48750E-08  1.33210E-08  1.21999E-08  1.12017E-08
   1.08345E-08  1.03743E-08  9.51091E-09  9.84808E-09  8.99441E-09  9.19828E-09  8.74567E-09  8.31976E-09  7.58271E-09  7.51162E-09
   7.03564E-09  7.75401E-09  7.63756E-09  8.11818E-09  7.96649E-09  7.33494E-09  7.00765E-09  7.15386E-09  6.02541E-09  6.92246E-09
   6.81817E-09  7.42489E-09  7.82069E-09  9.85590E-09  1.13564E-08  1.39764E-08  1.49574E-08  1.43320E-08  1.27838E-08  1.13631E-08
   1.00629E-08  9.64104E-09  7.91365E-09  7.71812E-09  7.46533E-09  6.60938E-09  6.01526E-09  6.83909E-09  6.90635E-09  8.50178E-09
   1.10240E-08  1.38061E-08  1.52588E-08  1.50562E-08  1.46159E-08  1.32795E-08  1.22226E-08  1.12508E-08  1.13319E-08  1.04357E-08
   1.02004E-08  9.61177E-09  8.85442E-09  8.31129E-09  8.40085E-09  8.04920E-09  6.90687E-09  7.23905E-09  6.70913E-09  6.19750E-09
   6.60684E-09  5.85120E-09  6.41396E-09  5.95213E-09  6.25698E-09  6.04621E-09  5.91008E-09  5.91181E-09  5.35453E-09  5.32849E-09
   4.87209E-09  4.55725E-09  3.59009E-09  3.58278E-09  4.56353E-09  4.84929E-09  4.77088E-09  4.13931E-09  5.01281E-09  4.70068E-09
   5.46598E-09  5.27200E-09  5.27121E-09  4.29702E-09  4.59421E-09  3.28044E-09  3.78706E-09  2.33988E-09  2.71054E-09  2.89584E-09
   3.83659E-09  3.40029E-09  3.42085E-09  3.45983E-09  3.76886E-09  3.25250E-09  2.87772E-09  2.96862E-09  3.08487E-09  2.63182E-09
   3.32932E-09  3.96729E-09  4.33816E-09  4.56963E-09  4.74520E-09  4.52280E-09  4.74810E-09  5.48084E-09  5.60947E-09  5.46745E-09
   5.99147E-09  5.32138E-09  5.57123E-09  5.84038E-09  5.05689E-09  5.53826E-09  5.48052E-09  5.37288E-09  6.08062E-09  6.17397E-09
   6.40828E-09  6.22321E-09  6.19052E-09  6.52815E-09  5.89757E-09  5.83725E-09  6.36539E-09  6.97383E-09  8.03169E-09  9.75827E-09
   1.17382E-08  1.41315E-08  1.65022E-08  1.74067E-08  1.64649E-08  1.44082E-08  1.17584E-08  1.00726E-08  8.16738E-09  7.43121E-09
   6.22960E-09  5.55275E-09  4.78266E-09  3.80519E-09  3.22190E-09  1.97670E-09  1.51788E-09  5.87515E-10  2.86709E-10 -8.68196E-10
  -2.18291E-09 -2.80714E-09 -3.92839E-09 -5.69664E-09 -5.99771E-09 -8.18183E-09 -9.62434E-09 -1.12306E-08 -1.32682E-08 -1.47154E-08
  -1.64107E-08 -1.77462E-08 -1.89167E-08 -2.00554E-08 -2.07527E-08 -2.08906E-08 -2.13145E-08 -2.00785E-08 -1.94615E-08 -1.79926E-08
  -1.63981E-08 -1.38569E-08 -1.13173E-08 -1.00346E-08 -7.60905E-09 -5.31760E-09 -3.68881E-09 -1.87953E-09 -8.50368E-11  7.88385E-10
   1.15797E-09  1.28737E-09  9.52041E-10  7.99614E-10  2.77388E-10 -8.87179E-10 -7.12727E-10 -7.90267E-10 -8.99814E-10 -1.20093E-10
   2.63057E-10 -1.32324E-11 -3.92163E-10  5.85857E-10 -1.74584E-10 -5.11435E-10 -8.85214E-10 -6.78953E-10 -8.19359E-10  5.21823E-12
  -3.34753E-10 -1.89206E-10  4.07524E-10  8.12013E-11 -4.62965E-11  2.16609E-10 -1.87476E-10 -6.40299E-10 -3.79396E-10 -2.40999E-10
  -5.18930E-10 -3.12131E-10  1.41096E-10  1.03841E-11  9.35977E-11  7.08887E-10  3.43868E-10  4.66441E-10  7.73547E-10  5.36617E-10
   1.61218E-10 -3.02317E-10 -1.13774E-10 -9.34025E-10 -7.30560E-10 -5.71633E-10 -1.92654E-10 -5.32448E-10 -2.03183E-10  1.50368E-10
   7.68181E-10  6.84016E-10  1.14739E-09  8.43421E-10  8.59990E-10  9.62450E-10  1.16015E-09  4.52370E-10  6.30588E-10  8.18753E-10
   3.20009E-10  7.98996E-11  2.05638E-10  5.31759E-10 -8.30192E-11 -4.59659E-11  1.41022E-10  1.40414E-10  2.23408E-10 -3.23218E-10
   8.09540E-10  1.34306E-10  2.67230E-10  1.81322E-10  7.73482E-10 -2.41279E-10  1.08896E-09  4.92213E-10  1.14467E-12 -3.97918E-10
   2.93254E-10 -5.34319E-10  1.60107E-10  3.29165E-10  1.90849E-10  5.69621E-10 -1.14928E-10  2.41596E-10  4.08670E-10  5.85372E-11
   1.19936E-10  5.07614E-10  2.47001E-10  5.24725E-10  3.02460E-10  6.96326E-10  6.83243E-10  2.93370E-10  3.67068E-10  6.44414E-10
   9.92502E-10  2.82991E-10  2.86108E-10  5.61361E-10  1.04278E-09  4.94998E-10  6.98606E-10  5.55644E-10  6.29882E-10  3.20646E-11
   1.66334E-09  8.45508E-10  4.36895E-10  8.39725E-10  1.16797E-09  1.22224E-09  1.18425E-09  6.40412E-10  1.02179E-09  1.04096E-09
   4.13165E-10  1.15741E-09  1.49814E-09  1.51178E-09  4.03661E-10  1.41240E-09  9.70362E-10  8.15256E-10  1.12181E-09  1.01481E-09
   1.62241E-09  1.37204E-09  1.45780E-09  1.27199E-09  1.44819E-09  1.34300E-09  1.75378E-09  1.26133E-09  1.69461E-09  1.76895E-09
   1.54545E-09  1.40164E-09  1.55597E-09
 NY points of the fit to the data follow
   1.50839E-08  1.51902E-08  1.52703E-08  1.53736E-08  1.52744E-08  1.49307E-08  1.43621E-08  1.36862E-08  1.30993E-08  1.25702E-08
   1.22981E-08  1.22078E-08  1.22158E-08  1.23145E-08  1.25373E-08  1.28946E-08  1.33644E-08  1.38393E-08  1.41241E-08  1.41854E-08
   1.41230E-08  1.38164E-08  1.32230E-08  1.25972E-08  1.20517E-08  1.16422E-08  1.15675E-08  1.19121E-08  1.24048E-08  1.29422E-08
   1.31936E-08  1.31765E-08  1.32308E-08  1.31603E-08  1.29574E-08  1.31356E-08  1.34435E-08  1.34878E-08  1.31789E-08  1.25932E-08
   1.18480E-08  1.10487E-08  9.90300E-09  8.89238E-09  8.47437E-09  8.07040E-09  7.62847E-09  7.49337E-09  7.52898E-09  7.62643E-09
   7.73925E-09  7.79689E-09  7.78999E-09  7.69981E-09  7.57377E-09  7.50174E-09  7.51303E-09  7.59832E-09  7.64287E-09  7.67698E-09
   7.83433E-09  8.23897E-09  8.90596E-09  9.64374E-09  1.05863E-08  1.15530E-08  1.22456E-08  1.26892E-08  1.29010E-08  1.27746E-08
   1.22986E-08  1.14597E-08  1.04046E-08  9.45193E-09  8.58414E-09  7.74270E-09  7.56589E-09  8.26430E-09  9.21320E-09  1.03944E-08
   1.16813E-08  1.27800E-08  1.36276E-08  1.41518E-08  1.41071E-08  1.34779E-08  1.23722E-08  1.09242E-08  9.63127E-09  9.27681E-09
   9.16004E-09  9.07373E-09  8.86165E-09  8.38988E-09  7.96589E-09  7.63449E-09  7.10885E-09  6.63797E-09  6.36038E-09  6.10161E-09
   5.90873E-09  5.79757E-09  5.73392E-09  5.71688E-09  5.72070E-09  5.72419E-09  5.71388E-09  5.68071E-09  5.61816E-09  5.52530E-09
   5.41267E-09  5.30550E-09  5.22149E-09  5.11728E-09  5.02020E-09  4.96898E-09  4.93198E-09  4.90044E-09  4.87135E-09  4.84333E-09
   4.81562E-09  4.78774E-09  4.75932E-09  4.73008E-09  4.69979E-09  4.66829E-09  4.63542E-09  4.60104E-09  4.56506E-09  4.52734E-09
   4.48777E-09  4.44627E-09  4.40275E-09  4.35711E-09  4.30928E-09  4.25916E-09  4.20670E-09  4.15181E-09  4.09443E-09  4.03450E-09
   3.97193E-09  3.90670E-09  3.83871E-09  3.76792E-09  3.69427E-09  3.61773E-09  3.53827E-09  3.45587E-09  3.37051E-09  3.28222E-09
   3.19103E-09  3.09702E-09  3.00031E-09  2.90108E-09  2.79959E-09  2.69618E-09  2.59142E-09  2.48605E-09  2.38122E-09  2.27861E-09
   2.18087E-09  2.09234E-09  2.02056E-09  1.97982E-09  2.00154E-09  2.17204E-09  2.84513E-09  4.85606E-09  7.72621E-09  1.08078E-08
   1.37214E-08  1.61569E-08  1.77585E-08  1.81728E-08  1.71415E-08  1.45461E-08  1.05128E-08  5.67440E-09  1.52860E-09 -2.66265E-10
  -9.97101E-10 -1.44707E-09 -1.78778E-09 -2.07356E-09 -2.32685E-09 -2.55845E-09 -2.77402E-09 -2.97670E-09 -3.16822E-09 -3.34956E-09
  -3.52121E-09 -3.68335E-09 -3.83594E-09 -3.97880E-09 -4.11169E-09 -4.23429E-09 -4.34635E-09 -4.44813E-09 -4.53992E-09 -4.62201E-09
  -4.69466E-09 -4.75813E-09 -4.81267E-09 -4.85851E-09 -4.89589E-09 -4.92504E-09 -4.94617E-09 -4.95951E-09 -4.96527E-09 -4.96366E-09
  -4.95491E-09 -4.93922E-09 -4.91679E-09 -4.88785E-09 -4.85259E-09 -4.81123E-09 -4.76397E-09 -4.71101E-09 -4.65257E-09 -4.58884E-09
  -4.52002E-09 -4.44633E-09 -4.36797E-09 -4.28514E-09 -4.19806E-09 -4.10703E-09 -4.01231E-09 -3.91419E-09 -3.81295E-09 -3.70889E-09
  -3.60228E-09 -3.49340E-09 -3.38254E-09 -3.26998E-09 -3.15600E-09 -3.04089E-09 -2.92492E-09 -2.80839E-09 -2.69155E-09 -2.57473E-09
  -2.45818E-09 -2.34219E-09 -2.22704E-09 -2.11303E-09 -2.00040E-09 -1.88947E-09 -1.78051E-09 -1.67380E-09 -1.56963E-09 -1.46829E-09
  -1.37002E-09 -1.27515E-09 -1.18379E-09 -1.09586E-09 -1.01131E-09 -9.30038E-10 -8.51970E-10 -7.77032E-10 -7.05135E-10 -6.36205E-10
  -5.70166E-10 -5.06925E-10 -4.46417E-10 -3.88550E-10 -3.33256E-10 -2.80448E-10 -2.30031E-10 -1.81962E-10 -1.36140E-10 -9.24788E-11
  -5.09003E-11 -1.13403E-11  2.63020E-11  6.20968E-11  9.61110E-11  1.28456E-10  1.59177E-10  1.88375E-10  2.16119E-10  2.42501E-10
   2.67577E-10  2.91399E-10  3.14023E-10  3.35501E-10  3.55878E-10  3.75214E-10  3.93555E-10  4.10958E-10  4.27472E-10  4.43148E-10
   4.58040E-10  4.72198E-10  4.85677E-10  4.98526E-10  5.10797E-10  5.22544E-10  5.33817E-10  5.44669E-10  5.55148E-10  5.65316E-10
   5.75211E-10  5.84896E-10  5.94420E-10  6.03829E-10  6.13182E-10  6.22528E-10  6.31918E-10  6.41407E-10  6.51010E-10  6.60736E-10
   6.70589E-10  6.80576E-10  6.90700E-10  7.00968E-10  7.11384E-10  7.21955E-10  7.32685E-10  7.43581E-10  7.54646E-10  7.65887E-10
   7.77308E-10  7.88915E-10  8.00714E-10  8.12709E-10  8.24907E-10  8.37311E-10  8.49928E-10  8.62764E-10  8.75821E-10  8.89107E-10
   9.02628E-10  9.16387E-10  9.30391E-10  9.44644E-10  9.59152E-10  9.73920E-10  9.88938E-10  1.00420E-09  1.01968E-09  1.03539E-09
   1.05130E-09  1.06741E-09  1.08370E-09  1.10016E-09  1.11678E-09  1.13356E-09  1.15047E-09  1.16751E-09  1.18466E-09  1.20192E-09
   1.21927E-09  1.23670E-09  1.25420E-09  1.27176E-09  1.28937E-09  1.30702E-09  1.32469E-09  1.34237E-09  1.36006E-09  1.37774E-09
   1.39540E-09  1.41302E-09  1.43060E-09
 NY background values follow
     4.871E-09    4.851E-09    4.832E-09    4.812E-09    4.792E-09    4.773E-09    4.753E-09    4.734E-09    4.714E-09    4.695E-09
     4.676E-09    4.657E-09    4.638E-09    4.619E-09    4.600E-09    4.581E-09    4.563E-09    4.545E-09    4.526E-09    4.509E-09
     4.491E-09    4.473E-09    4.456E-09    4.439E-09    4.422E-09    4.405E-09    4.389E-09    4.372E-09    4.357E-09    4.341E-09
     4.326E-09    4.311E-09    4.296E-09    4.282E-09    4.268E-09    4.254E-09    4.241E-09    4.228E-09    4.215E-09    4.203E-09
     4.191E-09    4.180E-09    4.169E-09    4.159E-09    4.149E-09    4.139E-09    4.130E-09    4.122E-09    4.114E-09    4.106E-09
     4.100E-09    4.093E-09    4.087E-09    4.082E-09    4.078E-09    4.074E-09    4.070E-09    4.067E-09    4.065E-09    4.064E-09
     4.062E-09    4.062E-09    4.062E-09    4.062E-09    4.063E-09    4.064E-09    4.066E-09    4.068E-09    4.070E-09    4.073E-09
     4.076E-09    4.079E-09    4.083E-09    4.087E-09    4.091E-09    4.095E-09    4.099E-09    4.104E-09    4.109E-09    4.113E-09
     4.118E-09    4.123E-09    4.128E-09    4.133E-09    4.138E-09    4.142E-09    4.147E-09    4.152E-09    4.156E-09    4.161E-09
     4.165E-09    4.168E-09    4.172E-09    4.175E-09    4.178E-09    4.181E-09    4.183E-09    4.184E-09    4.186E-09    4.186E-09
     4.186E-09    4.186E-09    4.185E-09    4.183E-09    4.181E-09    4.178E-09    4.174E-09    4.169E-09    4.164E-09    4.158E-09
     4.151E-09    4.143E-09    4.134E-09    4.124E-09    4.113E-09    4.101E-09    4.087E-09    4.073E-09    4.057E-09    4.039E-09
     4.020E-09    4.000E-09    3.978E-09    3.954E-09    3.928E-09    3.901E-09    3.871E-09    3.840E-09    3.806E-09    3.771E-09
     3.733E-09    3.693E-09    3.650E-09    3.606E-09    3.558E-09    3.508E-09    3.456E-09    3.400E-09    3.342E-09    3.281E-09
     3.218E-09    3.151E-09    3.081E-09    3.008E-09    2.931E-09    2.852E-09    2.768E-09    2.682E-09    2.592E-09    2.498E-09
     2.400E-09    2.298E-09    2.193E-09    2.084E-09    1.970E-09    1.852E-09    1.730E-09    1.604E-09    1.473E-09    1.338E-09
     1.198E-09    1.053E-09    9.039E-10    7.497E-10    5.905E-10    4.263E-10    2.571E-10    8.259E-11   -9.707E-11   -2.815E-10
    -4.702E-10   -6.625E-10   -8.580E-10   -1.056E-09   -1.256E-09   -1.458E-09   -1.661E-09   -1.864E-09   -2.067E-09   -2.269E-09
    -2.470E-09   -2.669E-09   -2.866E-09   -3.060E-09   -3.251E-09   -3.438E-09   -3.620E-09   -3.797E-09   -3.969E-09   -4.135E-09
    -4.294E-09   -4.445E-09   -4.589E-09   -4.725E-09   -4.852E-09   -4.969E-09   -5.077E-09   -5.175E-09   -5.263E-09   -5.342E-09
    -5.413E-09   -5.474E-09   -5.527E-09   -5.571E-09   -5.607E-09   -5.634E-09   -5.654E-09   -5.667E-09   -5.671E-09   -5.669E-09
    -5.660E-09   -5.643E-09   -5.620E-09   -5.591E-09   -5.555E-09   -5.513E-09   -5.465E-09   -5.412E-09   -5.353E-09   -5.289E-09
    -5.220E-09   -5.146E-09   -5.068E-09   -4.985E-09   -4.898E-09   -4.806E-09   -4.711E-09   -4.613E-09   -4.512E-09   -4.408E-09
    -4.301E-09   -4.192E-09   -4.081E-09   -3.969E-09   -3.854E-09   -3.739E-09   -3.623E-09   -3.507E-09   -3.390E-09   -3.273E-09
    -3.156E-09   -3.040E-09   -2.925E-09   -2.811E-09   -2.699E-09   -2.588E-09   -2.479E-09   -2.372E-09   -2.268E-09   -2.166E-09
    -2.068E-09   -1.973E-09   -1.882E-09   -1.794E-09   -1.709E-09   -1.628E-09   -1.550E-09   -1.475E-09   -1.403E-09   -1.334E-09
    -1.268E-09   -1.205E-09   -1.144E-09   -1.086E-09   -1.031E-09   -9.783E-10   -9.279E-10   -8.798E-10   -8.339E-10   -7.902E-10
    -7.486E-10   -7.091E-10   -6.714E-10   -6.355E-10   -6.015E-10   -5.691E-10   -5.384E-10   -5.091E-10   -4.813E-10   -4.549E-10
    -4.298E-10   -4.059E-10   -3.832E-10   -3.617E-10   -3.413E-10   -3.219E-10   -3.035E-10   -2.860E-10   -2.694E-10   -2.537E-10
    -2.387E-10   -2.245E-10   -2.109E-10   -1.980E-10   -1.857E-10   -1.738E-10   -1.625E-10   -1.515E-10   -1.410E-10   -1.307E-10
    -1.207E-10   -1.109E-10   -1.013E-10   -9.181E-11   -8.235E-11   -7.290E-11   -6.340E-11   -5.380E-11   -4.408E-11   -3.424E-11
    -2.426E-11   -1.416E-11   -3.906E-12    6.490E-12    1.704E-11    2.774E-11    3.861E-11    4.964E-11    6.085E-11    7.223E-11
     8.380E-11    9.556E-11    1.075E-10    1.197E-10    1.320E-10    1.446E-10    1.574E-10    1.704E-10    1.836E-10    1.971E-10
     2.107E-10    2.247E-10    2.389E-10    2.533E-10    2.680E-10    2.830E-10    2.982E-10    3.136E-10    3.293E-10    3.452E-10
     3.613E-10    3.777E-10    3.942E-10    4.108E-10    4.277E-10    4.447E-10    4.618E-10    4.791E-10    4.964E-10    5.139E-10
     5.315E-10    5.492E-10    5.669E-10    5.847E-10    6.026E-10    6.205E-10    6.384E-10    6.564E-10    6.743E-10    6.923E-10
     7.102E-10    7.281E-10    7.459E-10
 Ala      Conc. = 1.10E-10
   4.95281E-09  4.94140E-09  4.92721E-09  4.91072E-09  4.89177E-09  4.87030E-09  4.84499E-09  4.81528E-09  4.78748E-09  4.76041E-09
   4.72769E-09  4.69793E-09  4.67319E-09  4.64729E-09  4.62264E-09  4.60054E-09  4.57978E-09  4.55988E-09  4.54057E-09  4.52172E-09
   4.50326E-09  4.48514E-09  4.46734E-09  4.44985E-09  4.43263E-09  4.41573E-09  4.39910E-09  4.38277E-09  4.36673E-09  4.35100E-09
   4.33558E-09  4.32048E-09  4.30571E-09  4.29128E-09  4.27720E-09  4.26349E-09  4.25015E-09  4.23720E-09  4.22465E-09  4.21250E-09
   4.20077E-09  4.18947E-09  4.17863E-09  4.16823E-09  4.15831E-09  4.14885E-09  4.13990E-09  4.13146E-09  4.12352E-09  4.11612E-09
   4.10926E-09  4.10294E-09  4.09720E-09  4.09203E-09  4.08750E-09  4.08351E-09  4.08014E-09  4.07740E-09  4.07525E-09  4.07367E-09
   4.07263E-09  4.07212E-09  4.07212E-09  4.07258E-09  4.07350E-09  4.07486E-09  4.07662E-09  4.07877E-09  4.08128E-09  4.08413E-09
   4.08730E-09  4.09077E-09  4.09450E-09  4.09849E-09  4.10270E-09  4.10714E-09  4.11175E-09  4.11653E-09  4.12145E-09  4.12650E-09
   4.13164E-09  4.13689E-09  4.14219E-09  4.14757E-09  4.15295E-09  4.15839E-09  4.16382E-09  4.16925E-09  4.17467E-09  4.18006E-09
   4.18546E-09  4.19088E-09  4.19639E-09  4.20206E-09  4.20809E-09  4.21473E-09  4.22256E-09  4.23263E-09  4.24751E-09  4.27525E-09
   4.32966E-09  4.38771E-09  4.44612E-09  4.52125E-09  4.59710E-09  4.65841E-09  4.69521E-09  4.70087E-09  4.67070E-09  4.60517E-09
   4.51602E-09  4.42925E-09  4.36295E-09  4.27410E-09  4.19033E-09  4.15063E-09  4.12377E-09  4.10121E-09  4.08009E-09  4.05913E-09
   4.03767E-09  4.01527E-09  3.99169E-09  3.96672E-09  3.94020E-09  3.91200E-09  3.88201E-09  3.85013E-09  3.81627E-09  3.78034E-09
   3.74225E-09  3.70192E-09  3.65928E-09  3.61423E-09  3.56673E-09  3.51667E-09  3.46400E-09  3.40864E-09  3.35052E-09  3.28955E-09
   3.22565E-09  3.15877E-09  3.08881E-09  3.01569E-09  2.93932E-09  2.85962E-09  2.77651E-09  2.68989E-09  2.59970E-09  2.50583E-09
   2.40822E-09  2.30678E-09  2.20143E-09  2.09208E-09  1.97867E-09  1.86110E-09  1.73931E-09  1.61322E-09  1.48277E-09  1.34789E-09
   1.20854E-09  1.06469E-09  9.16391E-10  7.63722E-10  6.07085E-10  4.47663E-10  2.90788E-10  1.50008E-10  1.36566E-11 -1.25989E-10
  -2.72855E-10 -4.30553E-10 -6.03569E-10 -7.96167E-10 -1.01108E-09 -1.24910E-09 -1.50744E-09 -1.77568E-09 -2.03044E-09 -2.24705E-09
  -2.45361E-09 -2.65572E-09 -2.85438E-09 -3.04962E-09 -3.24111E-09 -3.42845E-09 -3.61118E-09 -3.78878E-09 -3.96073E-09 -4.12652E-09
  -4.28560E-09 -4.43746E-09 -4.58154E-09 -4.71729E-09 -4.84419E-09 -4.96170E-09 -5.06941E-09 -5.16744E-09 -5.25599E-09 -5.33527E-09
  -5.40547E-09 -5.46679E-09 -5.51944E-09 -5.56361E-09 -5.59952E-09 -5.62735E-09 -5.64732E-09 -5.65962E-09 -5.66446E-09 -5.66203E-09
  -5.65254E-09 -5.63618E-09 -5.61316E-09 -5.58369E-09 -5.54795E-09 -5.50616E-09 -5.45850E-09 -5.40520E-09 -5.34644E-09 -5.28242E-09
  -5.21335E-09 -5.13943E-09 -5.06086E-09 -4.97784E-09 -4.89060E-09 -4.79941E-09 -4.70456E-09 -4.60631E-09 -4.50497E-09 -4.40081E-09
  -4.29411E-09 -4.18515E-09 -4.07423E-09 -3.96161E-09 -3.84757E-09 -3.73241E-09 -3.61639E-09 -3.49983E-09 -3.38295E-09 -3.26610E-09
  -3.14953E-09 -3.03351E-09 -2.91834E-09 -2.80431E-09 -2.69167E-09 -2.58072E-09 -2.47175E-09 -2.36502E-09 -2.26084E-09 -2.15949E-09
  -2.06121E-09 -1.96633E-09 -1.87496E-09 -1.78703E-09 -1.70246E-09 -1.62118E-09 -1.54310E-09 -1.46815E-09 -1.39624E-09 -1.32730E-09
  -1.26125E-09 -1.19799E-09 -1.13747E-09 -1.07958E-09 -1.02427E-09 -9.71444E-10 -9.21006E-10 -8.72914E-10 -8.27068E-10 -7.83381E-10
  -7.41775E-10 -7.02186E-10 -6.64513E-10 -6.28686E-10 -5.94638E-10 -5.62256E-10 -5.31497E-10 -5.02259E-10 -4.74473E-10 -4.48046E-10
  -4.22924E-10 -3.99053E-10 -3.76379E-10 -3.54848E-10 -3.34416E-10 -3.15022E-10 -2.96622E-10 -2.79158E-10 -2.62579E-10 -2.46837E-10
  -2.31877E-10 -2.17647E-10 -2.04096E-10 -1.91171E-10 -1.78822E-10 -1.66995E-10 -1.55640E-10 -1.44703E-10 -1.34136E-10 -1.23879E-10
  -1.13891E-10 -1.04111E-10 -9.44893E-11 -8.49805E-11 -7.55250E-11 -6.60729E-11 -5.65750E-11 -4.69761E-11 -3.72597E-11 -2.74183E-11
  -1.74467E-11 -7.33963E-12  2.90792E-12  1.33022E-11  2.38477E-11  3.45501E-11  4.54147E-11  5.64468E-11  6.76514E-11  7.90347E-11
   9.06006E-11  1.02356E-10  1.14306E-10  1.26454E-10  1.38807E-10  1.51370E-10  1.64149E-10  1.77149E-10  1.90374E-10  2.03831E-10
   2.17524E-10  2.31460E-10  2.45643E-10  2.60078E-10  2.74771E-10  2.89726E-10  3.04935E-10  3.20388E-10  3.36072E-10  3.51977E-10
   3.68091E-10  3.84403E-10  4.00901E-10  4.17575E-10  4.34413E-10  4.51404E-10  4.68535E-10  4.85797E-10  5.03178E-10  5.20666E-10
   5.38250E-10  5.55919E-10  5.73661E-10  5.91466E-10  6.09321E-10  6.27216E-10  6.45140E-10  6.63080E-10  6.81026E-10  6.98966E-10
   7.16889E-10  7.34784E-10  7.52639E-10
 Asp      Conc. = 7.34E-10
   5.74219E-09  5.61135E-09  5.48095E-09  5.34518E-09  5.21362E-09  5.07445E-09  4.96042E-09  4.86836E-09  4.81653E-09  4.77988E-09
   4.75061E-09  4.72564E-09  4.70349E-09  4.68312E-09  4.66354E-09  4.64449E-09  4.62604E-09  4.60818E-09  4.59085E-09  4.57403E-09
   4.55771E-09  4.54191E-09  4.52664E-09  4.51194E-09  4.49784E-09  4.48444E-09  4.47178E-09  4.45998E-09  4.44919E-09  4.43959E-09
   4.43146E-09  4.42515E-09  4.42124E-09  4.42063E-09  4.42494E-09  4.43750E-09  4.46627E-09  4.50479E-09  4.55592E-09  4.60334E-09
   4.63874E-09  4.66134E-09  4.68083E-09  4.71998E-09  4.78100E-09  4.89141E-09  5.00655E-09  5.11190E-09  5.24074E-09  5.36559E-09
   5.45934E-09  5.47342E-09  5.39407E-09  5.22373E-09  5.00371E-09  4.81449E-09  4.67764E-09  4.62669E-09  4.54808E-09  4.44830E-09
   4.39574E-09  4.36917E-09  4.34692E-09  4.33696E-09  4.32414E-09  4.28706E-09  4.23497E-09  4.20536E-09  4.18742E-09  4.17583E-09
   4.16819E-09  4.16326E-09  4.16028E-09  4.15879E-09  4.15844E-09  4.15901E-09  4.16031E-09  4.16221E-09  4.16460E-09  4.16740E-09
   4.17051E-09  4.17390E-09  4.17748E-09  4.18123E-09  4.18507E-09  4.18899E-09  4.19293E-09  4.19683E-09  4.20067E-09  4.20439E-09
   4.20796E-09  4.21133E-09  4.21447E-09  4.21733E-09  4.21990E-09  4.22210E-09  4.22394E-09  4.22535E-09  4.22631E-09  4.22680E-09
   4.22674E-09  4.22614E-09  4.22494E-09  4.22312E-09  4.22064E-09  4.21745E-09  4.21355E-09  4.20888E-09  4.20342E-09  4.19712E-09
   4.18997E-09  4.18192E-09  4.17293E-09  4.16295E-09  4.15193E-09  4.13976E-09  4.12641E-09  4.11177E-09  4.09580E-09  4.07840E-09
   4.05952E-09  4.03907E-09  4.01700E-09  3.99322E-09  3.96767E-09  3.94028E-09  3.91096E-09  3.87967E-09  3.84631E-09  3.81083E-09
   3.77315E-09  3.73319E-09  3.69090E-09  3.64619E-09  3.59900E-09  3.54925E-09  3.49688E-09  3.44183E-09  3.38401E-09  3.32336E-09
   3.25978E-09  3.19324E-09  3.12363E-09  3.05089E-09  2.97493E-09  2.89566E-09  2.81302E-09  2.72692E-09  2.63729E-09  2.54405E-09
   2.44714E-09  2.34648E-09  2.24202E-09  2.13369E-09  2.02144E-09  1.90524E-09  1.78506E-09  1.66088E-09  1.53277E-09  1.40078E-09
   1.26508E-09  1.12600E-09  9.84158E-10  8.40703E-10  6.98275E-10  5.63813E-10  4.63732E-10  5.00574E-10  6.06641E-10  7.22916E-10
   8.17753E-10  8.64334E-10  8.30027E-10  6.82543E-10  3.99248E-10 -3.00932E-11 -5.94316E-10 -1.23657E-09 -1.81592E-09 -2.13721E-09
  -2.37913E-09 -2.59802E-09 -2.80615E-09 -3.00728E-09 -3.20270E-09 -3.39278E-09 -3.57747E-09 -3.75654E-09 -3.92960E-09 -4.09623E-09
  -4.25598E-09 -4.40836E-09 -4.55286E-09 -4.68895E-09 -4.81612E-09 -4.93384E-09 -5.04174E-09 -5.13991E-09 -5.22858E-09 -5.30795E-09
  -5.37823E-09 -5.43962E-09 -5.49232E-09 -5.53653E-09 -5.57247E-09 -5.60033E-09 -5.62032E-09 -5.63263E-09 -5.63748E-09 -5.63506E-09
  -5.62557E-09 -5.60921E-09 -5.58619E-09 -5.55671E-09 -5.52096E-09 -5.47916E-09 -5.43150E-09 -5.37818E-09 -5.31941E-09 -5.25539E-09
  -5.18631E-09 -5.11237E-09 -5.03379E-09 -4.95076E-09 -4.86350E-09 -4.77230E-09 -4.67743E-09 -4.57918E-09 -4.47782E-09 -4.37365E-09
