 LCModel (Version 6.3-1R) Copyright: S.W. Provencher.          Ref.: Magn. Reson. Med. 30:672-679 (1993).                
 onepulse 25x22_ftSpec_smooth_lcm
 26 lines in following concentration table = NCONC+1
    Conc.  %SD /Cr+PCr  Metabolite                                         
    0.000 999%   0.000 Ala                                                 
    0.000 999%   0.000 Asp                                                 
 4.45E-10  78%   1.000 Cr                                                  
    0.000 999%   0.000 GABA                                                
 9.53E-10 120%   2.140 Glc                                                 
 1.24E-09  91%   2.780 Gln                                                 
 1.00E-09  94%   2.254 Glu                                                 
    0.000 999%   0.000 Glyc                                                
    0.000 999%   0.000 GPC                                                 
    0.000 999%   0.000 GSH                                                 
 1.27E-09  50%   2.862 Ins                                                 
    0.000 999%   0.000 Lac                                                 
    0.000 999%   0.000 NAAG                                                
 7.17E-10  51%   1.612 NAA                                                 
 2.37E-10  48%   0.532 PCh                                                 
    0.000 999%   0.000 PCr                                                 
    0.000 999%   0.000 PE                                                  
 1.52E-10 168%   0.341 Scyllo                                              
 4.11E-09  31%   9.228 Ser                                                 
    0.000 999%   0.000 Tau                                                 
 2.37E-10  48%   0.532 GPC+PCh                                             
 7.17E-10  51%   1.612 NAA+NAAG                                            
 1.27E-09  50%   2.862 Ins+Glyc                                            
 4.45E-10  78%   1.000 Cr+PCr                                              
 2.24E-09  33%   5.034 Glu+Gln                                             
   6 lines in following misc. output table
  FWHM = 0.112 ppm    S/N =   3                                            
  Data shift = 0.347 ppm                                                   
  Ph: -37 deg     -17.2 deg/ppm                                            
  alphaB,S = 1.8E-01,   2.3E+01                                            
   16 spline knots.   Ns = 5(1)                                            
  (12) 2 infls.   (11) 1 extrs.                                            
  363 points on ppm-axis = NY
      4.250000     4.238821     4.227641     4.216462     4.205282     4.194103     4.182923     4.171744     4.160564     4.149385
      4.138206     4.127026     4.115847     4.104667     4.093488     4.082308     4.071129     4.059949     4.048770     4.037591
      4.026411     4.015232     4.004052     3.992873     3.981693     3.970514     3.959334     3.948155     3.936975     3.925796
      3.914617     3.903437     3.892258     3.881078     3.869899     3.858719     3.847540     3.836360     3.825181     3.814002
      3.802822     3.791643     3.780463     3.769284     3.758104     3.746925     3.735745     3.724566     3.713387     3.702207
      3.691028     3.679848     3.668669     3.657489     3.646310     3.635130     3.623951     3.612772     3.601592     3.590413
      3.579233     3.568054     3.556874     3.545695     3.534515     3.523336     3.512156     3.500977     3.489798     3.478618
      3.467439     3.456259     3.445080     3.433900     3.422721     3.411541     3.400362     3.389183     3.378003     3.366824
      3.355644     3.344465     3.333285     3.322106     3.310926     3.299747     3.288568     3.277388     3.266209     3.255029
      3.243850     3.232670     3.221491     3.210311     3.199132     3.187953     3.176773     3.165594     3.154414     3.143235
      3.132055     3.120876     3.109696     3.098517     3.087337     3.076158     3.064979     3.053799     3.042620     3.031440
      3.020261     3.009081     2.997902     2.986722     2.975543     2.964364     2.953184     2.942005     2.930825     2.919646
      2.908466     2.897287     2.886107     2.874928     2.863749     2.852569     2.841390     2.830210     2.819031     2.807851
      2.796672     2.785492     2.774313     2.763134     2.751954     2.740775     2.729595     2.718416     2.707236     2.696057
      2.684877     2.673698     2.662519     2.651339     2.640160     2.628980     2.617801     2.606621     2.595442     2.584262
      2.573083     2.561903     2.550724     2.539545     2.528365     2.517186     2.506006     2.494827     2.483647     2.472468
      2.461288     2.450109     2.438930     2.427750     2.416571     2.405391     2.394212     2.383032     2.371853     2.360673
      2.349494     2.338315     2.327135     2.315956     2.304776     2.293597     2.282417     2.271238     2.260058     2.248879
      2.237700     2.226520     2.215341     2.204161     2.192982     2.181802     2.170623     2.159443     2.148264     2.137084
      2.125905     2.114726     2.103546     2.092367     2.081187     2.070008     2.058828     2.047649     2.036469     2.025290
      2.014111     2.002931     1.991752     1.980572     1.969393     1.958213     1.947034     1.935854     1.924675     1.913496
      1.902316     1.891137     1.879957     1.868778     1.857598     1.846419     1.835239     1.824060     1.812881     1.801701
      1.790522     1.779342     1.768163     1.756983     1.745804     1.734624     1.723445     1.712265     1.701086     1.689907
      1.678727     1.667548     1.656368     1.645189     1.634009     1.622830     1.611650     1.600471     1.589292     1.578112
      1.566933     1.555753     1.544574     1.533394     1.522215     1.511035     1.499856     1.488677     1.477497     1.466318
      1.455138     1.443959     1.432779     1.421600     1.410420     1.399241     1.388062     1.376882     1.365703     1.354523
      1.343344     1.332164     1.320985     1.309805     1.298626     1.287446     1.276267     1.265088     1.253908     1.242729
      1.231549     1.220370     1.209190     1.198011     1.186831     1.175652     1.164473     1.153293     1.142114     1.130934
      1.119755     1.108575     1.097396     1.086216     1.075037     1.063858     1.052678     1.041499     1.030319     1.019140
      1.007960     0.996781     0.985601     0.974422     0.963243     0.952063     0.940884     0.929704     0.918525     0.907345
      0.896166     0.884986     0.873807     0.862628     0.851448     0.840269     0.829089     0.817910     0.806730     0.795551
      0.784371     0.773192     0.762012     0.750833     0.739654     0.728474     0.717295     0.706115     0.694936     0.683756
      0.672577     0.661397     0.650218     0.639039     0.627859     0.616680     0.605500     0.594321     0.583141     0.571962
      0.560782     0.549603     0.538424     0.527244     0.516065     0.504885     0.493706     0.482526     0.471347     0.460167
      0.448988     0.437809     0.426629     0.415450     0.404270     0.393091     0.381911     0.370732     0.359552     0.348373
      0.337193     0.326014     0.314835     0.303655     0.292476     0.281296     0.270117     0.258937     0.247758     0.236578
      0.225399     0.214220     0.203040
 NY phased data points follow
   1.44036E-08  1.69621E-08  1.80977E-08  1.83602E-08  1.72279E-08  1.64086E-08  1.56991E-08  1.46590E-08  1.38505E-08  1.37712E-08
   1.26883E-08  1.39296E-08  1.32246E-08  1.34436E-08  1.39586E-08  1.53463E-08  1.45876E-08  1.50574E-08  1.45669E-08  1.44244E-08
   1.38903E-08  1.40307E-08  1.28412E-08  1.34980E-08  1.31894E-08  1.34047E-08  1.43010E-08  1.46153E-08  1.32362E-08  1.34055E-08
   1.28115E-08  1.41915E-08  1.41616E-08  1.64300E-08  1.61418E-08  1.69215E-08  1.51490E-08  1.44231E-08  1.26789E-08  1.23536E-08
   1.19474E-08  1.12971E-08  1.14978E-08  1.10076E-08  1.02035E-08  1.03948E-08  9.27547E-09  9.38143E-09  8.55649E-09  8.07403E-09
   8.33843E-09  8.90593E-09  8.95445E-09  9.09389E-09  8.29870E-09  8.43891E-09  7.82606E-09  7.29401E-09  7.52305E-09  7.82143E-09
   8.06964E-09  8.40643E-09  9.65625E-09  1.21002E-08  1.41043E-08  1.56857E-08  1.53989E-08  1.42719E-08  1.19800E-08  1.14318E-08
   1.06242E-08  9.48168E-09  8.45402E-09  8.93506E-09  7.56020E-09  7.03622E-09  7.34319E-09  7.60853E-09  8.32325E-09  1.15194E-08
   1.45270E-08  1.67808E-08  1.68811E-08  1.69766E-08  1.52788E-08  1.43684E-08  1.30393E-08  1.32109E-08  1.20416E-08  1.22584E-08
   1.15329E-08  1.11260E-08  1.02695E-08  1.03293E-08  9.51309E-09  9.06032E-09  8.23427E-09  8.56547E-09  7.67393E-09  7.62979E-09
   7.70743E-09  7.39026E-09  7.27585E-09  7.80497E-09  7.90453E-09  7.42017E-09  7.17075E-09  7.18248E-09  6.36322E-09  6.39600E-09
   5.76385E-09  5.24634E-09  4.25479E-09  5.25557E-09  5.63999E-09  6.07423E-09  5.38074E-09  5.91480E-09  5.17839E-09  5.83576E-09
   5.84400E-09  5.75391E-09  5.25416E-09  5.46947E-09  4.41368E-09  4.21938E-09  3.47210E-09  3.18169E-09  3.45893E-09  4.20156E-09
   3.95669E-09  4.09723E-09  4.00094E-09  4.06299E-09  4.05421E-09  4.08110E-09  3.65561E-09  3.79641E-09  3.16212E-09  3.77259E-09
   4.68859E-09  5.45432E-09  5.50788E-09  5.16370E-09  5.31105E-09  5.32347E-09  6.18254E-09  6.18543E-09  6.05026E-09  6.75460E-09
   5.91391E-09  6.52181E-09  6.63391E-09  6.24669E-09  6.16882E-09  6.54910E-09  6.49295E-09  6.70199E-09  6.76808E-09  7.06193E-09
   6.87466E-09  7.48205E-09  7.73739E-09  7.53703E-09  7.28938E-09  7.82692E-09  7.73913E-09  9.04000E-09  1.05481E-08  1.22144E-08
   1.53299E-08  1.79110E-08  1.98751E-08  1.96366E-08  1.73362E-08  1.44731E-08  1.26753E-08  1.10069E-08  9.78602E-09  8.55969E-09
   7.56873E-09  7.03410E-09  6.05912E-09  5.22178E-09  4.00668E-09  3.54743E-09  2.25081E-09  1.90059E-09  5.12490E-10 -4.77922E-10
  -1.58387E-09 -3.02844E-09 -4.51726E-09 -5.31542E-09 -6.99312E-09 -9.03941E-09 -1.06711E-08 -1.28778E-08 -1.47236E-08 -1.67177E-08
  -1.84244E-08 -1.99257E-08 -2.09403E-08 -2.22166E-08 -2.24233E-08 -2.34195E-08 -2.26632E-08 -2.18926E-08 -2.02717E-08 -1.90616E-08
  -1.65419E-08 -1.42238E-08 -1.22364E-08 -9.67085E-09 -7.02032E-09 -4.66142E-09 -3.30518E-09 -1.10741E-09  4.63403E-11  8.16843E-10
   1.31808E-09  9.04925E-10  4.49890E-10  1.12882E-09 -5.66702E-10 -6.66781E-10 -1.04838E-09 -8.25106E-10 -3.45364E-10  1.70513E-10
  -1.60542E-10 -2.31379E-10  5.04066E-10  2.65106E-10 -9.06023E-10 -4.33469E-10 -4.83893E-10 -5.37099E-10 -5.34558E-10 -7.02054E-11
  -2.58966E-10  4.14798E-10  2.72039E-10 -1.00256E-11  1.73124E-10  2.55123E-10 -3.02092E-10 -6.85416E-11 -3.66698E-10 -2.81587E-10
  -3.65011E-10  2.03463E-10 -7.01006E-12  1.44121E-10  5.22009E-10  8.39052E-10  6.77993E-10  1.17744E-09  3.97049E-10  9.08393E-10
  -2.42614E-10  1.15164E-10 -5.61624E-10 -4.50567E-10 -7.19665E-10 -1.15165E-10 -2.03833E-10 -1.08535E-10  2.99524E-10  8.37930E-10
   7.32339E-10  7.34181E-10  8.24831E-10  1.52267E-09  8.75029E-10  1.51138E-09  1.05653E-09  7.66513E-10  8.75234E-10  9.71204E-10
   4.80686E-10  4.37338E-10  4.31611E-10  5.27890E-10  4.79374E-10  7.94167E-10  5.97892E-11  3.27751E-10 -9.90160E-11  8.59062E-10
   5.57238E-10  6.70810E-10  3.69215E-10  4.19953E-10  2.97765E-10  9.71328E-10  6.17992E-10  4.40163E-10  2.64111E-10  3.94613E-10
  -4.21759E-10  3.86060E-10  2.84068E-10  5.90849E-10  5.70989E-10  4.39543E-10  4.31745E-10  8.90463E-10 -7.01388E-11  2.71152E-10
   4.67177E-10  6.81871E-10  6.77141E-10  7.06468E-10  2.02161E-10  1.03636E-09  5.50418E-10  8.07373E-10  5.46925E-10  1.13958E-09
   6.40674E-10  7.54462E-10  5.10845E-10  1.20876E-09  4.65892E-10  1.06775E-09  1.01220E-09  1.02781E-09  1.99187E-10  1.29398E-09
   1.33120E-09  9.53611E-10  9.94508E-10  1.43195E-09  1.56783E-09  1.45996E-09  9.05278E-10  9.85267E-10  1.11123E-09  9.96170E-10
   1.23773E-09  1.78328E-09  1.63947E-09  1.46779E-09  1.61690E-09  1.46682E-09  1.06791E-09  1.43862E-09  1.23105E-09  2.05472E-09
   1.48498E-09  2.31842E-09  1.64957E-09  1.69762E-09  1.53837E-09  2.17176E-09  1.34963E-09  2.20472E-09  1.88104E-09  2.21256E-09
   1.90669E-09  1.92848E-09  1.72015E-09
 NY points of the fit to the data follow
   1.53618E-08  1.69827E-08  1.75244E-08  1.63884E-08  1.60873E-08  1.65248E-08  1.63652E-08  1.54471E-08  1.43776E-08  1.39739E-08
   1.38229E-08  1.35340E-08  1.34870E-08  1.36350E-08  1.42441E-08  1.46396E-08  1.43417E-08  1.44228E-08  1.49548E-08  1.47634E-08
   1.40125E-08  1.33704E-08  1.30065E-08  1.27254E-08  1.29505E-08  1.30737E-08  1.33286E-08  1.39103E-08  1.44459E-08  1.45198E-08
   1.45598E-08  1.44854E-08  1.48013E-08  1.51734E-08  1.50797E-08  1.40253E-08  1.35736E-08  1.33441E-08  1.30803E-08  1.27502E-08
   1.24920E-08  1.23204E-08  1.18101E-08  1.08187E-08  1.02469E-08  9.86771E-09  9.56077E-09  9.28708E-09  9.04553E-09  8.84442E-09
   8.65800E-09  8.50337E-09  8.40372E-09  8.29449E-09  8.18740E-09  8.22549E-09  8.27497E-09  8.40660E-09  8.84994E-09  9.38799E-09
   9.74555E-09  1.01760E-08  1.07982E-08  1.13050E-08  1.17251E-08  1.19674E-08  1.20026E-08  1.20762E-08  1.18540E-08  1.11125E-08
   1.05183E-08  1.02595E-08  9.81896E-09  9.24488E-09  9.05055E-09  9.06652E-09  9.16285E-09  1.01125E-08  1.13706E-08  1.25129E-08
   1.36237E-08  1.47053E-08  1.54657E-08  1.57460E-08  1.56711E-08  1.52837E-08  1.48315E-08  1.41979E-08  1.24921E-08  1.12317E-08
   1.04844E-08  9.96862E-09  9.57636E-09  9.24419E-09  8.97256E-09  8.74128E-09  8.53115E-09  8.34441E-09  8.17621E-09  8.02284E-09
   7.88145E-09  7.74996E-09  7.62692E-09  7.51123E-09  7.40178E-09  7.29784E-09  7.19869E-09  7.10375E-09  7.01260E-09  6.92483E-09
   6.84014E-09  6.75822E-09  6.67879E-09  6.60165E-09  6.52649E-09  6.45301E-09  6.38101E-09  6.31023E-09  6.24046E-09  6.17148E-09
   6.10311E-09  6.03515E-09  5.96743E-09  5.89977E-09  5.83200E-09  5.76398E-09  5.69552E-09  5.62649E-09  5.55675E-09  5.48613E-09
   5.41449E-09  5.34170E-09  5.26762E-09  5.19211E-09  5.11506E-09  5.03632E-09  4.95577E-09  4.87331E-09  4.78880E-09  4.70212E-09
   4.61313E-09  4.52180E-09  4.42799E-09  4.33164E-09  4.23265E-09  4.13095E-09  4.02648E-09  3.91918E-09  3.80903E-09  3.69600E-09
   3.58012E-09  3.46140E-09  3.33995E-09  3.21592E-09  3.08953E-09  2.96114E-09  2.83130E-09  2.70078E-09  2.57082E-09  2.44331E-09
   2.32132E-09  2.21008E-09  2.11911E-09  2.06745E-09  2.09960E-09  2.34719E-09  3.39817E-09  7.19425E-09  1.11348E-08  1.40712E-08
   1.67084E-08  1.90287E-08  2.03505E-08  1.99719E-08  1.81747E-08  1.61993E-08  1.43636E-08  1.05595E-08  3.93685E-09  5.67158E-10
  -5.81601E-10 -1.21285E-09 -1.65800E-09 -2.01470E-09 -2.32127E-09 -2.59554E-09 -2.84677E-09 -3.08010E-09 -3.29848E-09 -3.50367E-09
  -3.69667E-09 -3.87802E-09 -4.04794E-09 -4.20646E-09 -4.35347E-09 -4.48876E-09 -4.61221E-09 -4.72414E-09 -4.82492E-09 -4.91490E-09
  -4.99440E-09 -5.06374E-09 -5.12320E-09 -5.17307E-09 -5.21363E-09 -5.24513E-09 -5.26785E-09 -5.28204E-09 -5.28795E-09 -5.28583E-09
  -5.27594E-09 -5.25852E-09 -5.23382E-09 -5.20209E-09 -5.16355E-09 -5.11847E-09 -5.06708E-09 -5.00962E-09 -4.94632E-09 -4.87744E-09
  -4.80320E-09 -4.72384E-09 -4.63960E-09 -4.55072E-09 -4.45745E-09 -4.36011E-09 -4.25899E-09 -4.15441E-09 -4.04668E-09 -3.93610E-09
  -3.82297E-09 -3.70759E-09 -3.59028E-09 -3.47131E-09 -3.35097E-09 -3.22958E-09 -3.10740E-09 -2.98474E-09 -2.86186E-09 -2.73906E-09
  -2.61661E-09 -2.49477E-09 -2.37383E-09 -2.25405E-09 -2.13569E-09 -2.01901E-09 -1.90427E-09 -1.79172E-09 -1.68161E-09 -1.57420E-09
  -1.46969E-09 -1.36836E-09 -1.27029E-09 -1.17542E-09 -1.08366E-09 -9.94957E-10 -9.09215E-10 -8.26369E-10 -7.46334E-10 -6.69039E-10
  -5.94412E-10 -5.22367E-10 -4.52843E-10 -3.85754E-10 -3.21036E-10 -2.58610E-10 -1.98392E-10 -1.40338E-10 -8.43600E-11 -3.03820E-11
   2.16649E-11  7.18383E-11  1.20224E-10  1.66881E-10  2.11869E-10  2.55278E-10  2.97146E-10  3.37556E-10  3.76563E-10  4.14240E-10
   4.50633E-10  4.85787E-10  5.19747E-10  5.52557E-10  5.84256E-10  6.14889E-10  6.44496E-10  6.73118E-10  7.00795E-10  7.27566E-10
   7.53468E-10  7.78541E-10  8.02820E-10  8.26342E-10  8.49142E-10  8.71256E-10  8.92715E-10  9.13554E-10  9.33802E-10  9.53496E-10
   9.72658E-10  9.91325E-10  1.00952E-09  1.02728E-09  1.04461E-09  1.06156E-09  1.07814E-09  1.09438E-09  1.11028E-09  1.12583E-09
   1.14102E-09  1.15585E-09  1.17031E-09  1.18439E-09  1.19809E-09  1.21139E-09  1.22428E-09  1.23677E-09  1.24884E-09  1.26047E-09
   1.27168E-09  1.28244E-09  1.29275E-09  1.30260E-09  1.31199E-09  1.32090E-09  1.32932E-09  1.33725E-09  1.34468E-09  1.35160E-09
   1.35800E-09  1.36388E-09  1.36922E-09  1.37402E-09  1.37826E-09  1.38195E-09  1.38506E-09  1.38757E-09  1.38948E-09  1.39076E-09
   1.39140E-09  1.39138E-09  1.39069E-09  1.38931E-09  1.38724E-09  1.38444E-09  1.38093E-09  1.37667E-09  1.37166E-09  1.36589E-09
   1.35934E-09  1.35200E-09  1.34387E-09  1.33493E-09  1.32518E-09  1.31460E-09  1.30318E-09  1.29093E-09  1.27782E-09  1.26386E-09
   1.24903E-09  1.23334E-09  1.21676E-09
 NY background values follow
     4.671E-09    4.717E-09    4.763E-09    4.807E-09    4.851E-09    4.893E-09    4.935E-09    4.975E-09    5.014E-09    5.053E-09
     5.090E-09    5.127E-09    5.162E-09    5.197E-09    5.230E-09    5.262E-09    5.294E-09    5.324E-09    5.354E-09    5.382E-09
     5.410E-09    5.436E-09    5.462E-09    5.486E-09    5.509E-09    5.532E-09    5.554E-09    5.574E-09    5.594E-09    5.612E-09
     5.630E-09    5.646E-09    5.662E-09    5.677E-09    5.691E-09    5.704E-09    5.716E-09    5.727E-09    5.737E-09    5.746E-09
     5.755E-09    5.762E-09    5.769E-09    5.775E-09    5.780E-09    5.784E-09    5.788E-09    5.790E-09    5.792E-09    5.793E-09
     5.794E-09    5.794E-09    5.793E-09    5.791E-09    5.789E-09    5.786E-09    5.782E-09    5.777E-09    5.772E-09    5.767E-09
     5.761E-09    5.754E-09    5.746E-09    5.738E-09    5.730E-09    5.721E-09    5.711E-09    5.701E-09    5.690E-09    5.678E-09
     5.667E-09    5.654E-09    5.641E-09    5.628E-09    5.614E-09    5.599E-09    5.584E-09    5.569E-09    5.553E-09    5.536E-09
     5.519E-09    5.502E-09    5.484E-09    5.466E-09    5.447E-09    5.428E-09    5.409E-09    5.389E-09    5.369E-09    5.348E-09
     5.327E-09    5.306E-09    5.284E-09    5.262E-09    5.240E-09    5.217E-09    5.194E-09    5.171E-09    5.147E-09    5.123E-09
     5.099E-09    5.075E-09    5.051E-09    5.026E-09    5.001E-09    4.976E-09    4.951E-09    4.926E-09    4.900E-09    4.874E-09
     4.849E-09    4.823E-09    4.797E-09    4.770E-09    4.744E-09    4.717E-09    4.690E-09    4.662E-09    4.634E-09    4.605E-09
     4.575E-09    4.544E-09    4.513E-09    4.480E-09    4.446E-09    4.410E-09    4.373E-09    4.335E-09    4.295E-09    4.253E-09
     4.210E-09    4.164E-09    4.117E-09    4.067E-09    4.015E-09    3.961E-09    3.904E-09    3.845E-09    3.783E-09    3.718E-09
     3.650E-09    3.580E-09    3.506E-09    3.429E-09    3.349E-09    3.265E-09    3.178E-09    3.087E-09    2.993E-09    2.894E-09
     2.792E-09    2.686E-09    2.576E-09    2.462E-09    2.344E-09    2.221E-09    2.094E-09    1.962E-09    1.826E-09    1.685E-09
     1.539E-09    1.388E-09    1.233E-09    1.072E-09    9.065E-10    7.356E-10    5.594E-10    3.778E-10    1.908E-10   -1.021E-12
    -1.972E-10   -3.972E-10   -6.003E-10   -8.060E-10   -1.014E-09   -1.223E-09   -1.433E-09   -1.643E-09   -1.853E-09   -2.062E-09
    -2.269E-09   -2.474E-09   -2.677E-09   -2.876E-09   -3.072E-09   -3.263E-09   -3.449E-09   -3.629E-09   -3.804E-09   -3.971E-09
    -4.132E-09   -4.284E-09   -4.428E-09   -4.563E-09   -4.689E-09   -4.804E-09   -4.909E-09   -5.004E-09   -5.088E-09   -5.162E-09
    -5.227E-09   -5.283E-09   -5.328E-09   -5.365E-09   -5.393E-09   -5.413E-09   -5.424E-09   -5.427E-09   -5.422E-09   -5.409E-09
    -5.388E-09   -5.361E-09   -5.326E-09   -5.285E-09   -5.237E-09   -5.182E-09   -5.122E-09   -5.055E-09   -4.983E-09   -4.905E-09
    -4.823E-09   -4.735E-09   -4.642E-09   -4.545E-09   -4.444E-09   -4.339E-09   -4.230E-09   -4.118E-09   -4.002E-09   -3.884E-09
    -3.764E-09   -3.641E-09   -3.517E-09   -3.391E-09   -3.263E-09   -3.135E-09   -3.006E-09   -2.877E-09   -2.747E-09   -2.618E-09
    -2.489E-09   -2.360E-09   -2.233E-09   -2.107E-09   -1.982E-09   -1.860E-09   -1.739E-09   -1.620E-09   -1.504E-09   -1.391E-09
    -1.280E-09   -1.173E-09   -1.070E-09   -9.690E-10   -8.716E-10   -7.774E-10   -6.861E-10   -5.978E-10   -5.124E-10   -4.298E-10
    -3.499E-10   -2.726E-10   -1.979E-10   -1.256E-10   -5.582E-11    1.164E-11    7.686E-11    1.399E-10    2.007E-10    2.596E-10
     3.164E-10    3.714E-10    4.245E-10    4.758E-10    5.255E-10    5.735E-10    6.199E-10    6.648E-10    7.083E-10    7.504E-10
     7.912E-10    8.307E-10    8.690E-10    9.061E-10    9.420E-10    9.769E-10    1.011E-09    1.043E-09    1.075E-09    1.106E-09
     1.136E-09    1.165E-09    1.193E-09    1.221E-09    1.247E-09    1.273E-09    1.299E-09    1.323E-09    1.347E-09    1.371E-09
     1.393E-09    1.416E-09    1.438E-09    1.459E-09    1.480E-09    1.500E-09    1.520E-09    1.540E-09    1.559E-09    1.578E-09
     1.597E-09    1.615E-09    1.633E-09    1.650E-09    1.667E-09    1.684E-09    1.700E-09    1.716E-09    1.731E-09    1.746E-09
     1.760E-09    1.774E-09    1.787E-09    1.800E-09    1.812E-09    1.824E-09    1.835E-09    1.846E-09    1.857E-09    1.866E-09
     1.876E-09    1.884E-09    1.892E-09    1.900E-09    1.907E-09    1.913E-09    1.919E-09    1.924E-09    1.929E-09    1.933E-09
     1.936E-09    1.938E-09    1.940E-09    1.941E-09    1.942E-09    1.941E-09    1.940E-09    1.939E-09    1.936E-09    1.933E-09
     1.928E-09    1.923E-09    1.917E-09    1.911E-09    1.903E-09    1.895E-09    1.886E-09    1.876E-09    1.865E-09    1.853E-09
     1.840E-09    1.827E-09    1.812E-09
 Cr       Conc. = 4.45E-10
   5.79927E-09  6.04957E-09  6.19635E-09  5.85087E-09  5.57513E-09  5.43452E-09  5.35362E-09  5.30400E-09  5.27280E-09  5.25322E-09
   5.24130E-09  5.23448E-09  5.23105E-09  5.22975E-09  5.22966E-09  5.23001E-09  5.23017E-09  5.22960E-09  5.22775E-09  5.22408E-09
   5.21800E-09  5.20886E-09  5.19587E-09  5.17803E-09  5.15402E-09  5.12211E-09  5.07971E-09  5.02300E-09  4.94599E-09  4.83907E-09
   4.69193E-09  4.62748E-09  5.03304E-09  5.49100E-09  5.93368E-09  6.44963E-09  7.02439E-09  7.55222E-09  7.88969E-09  8.04147E-09
   8.19004E-09  8.37475E-09  8.16958E-09  7.41257E-09  7.04788E-09  6.83745E-09  6.69675E-09  6.59419E-09  6.51500E-09  6.45133E-09
   6.39850E-09  6.35348E-09  6.31431E-09  6.27958E-09  6.24834E-09  6.21970E-09  6.19317E-09  6.16836E-09  6.14487E-09  6.12244E-09
   6.10085E-09  6.07991E-09  6.05947E-09  6.03941E-09  6.01962E-09  6.00004E-09  5.98056E-09  5.96114E-09  5.94172E-09  5.92226E-09
   5.90271E-09  5.88306E-09  5.86326E-09  5.84330E-09  5.82314E-09  5.80280E-09  5.78225E-09  5.76144E-09  5.74040E-09  5.71913E-09
   5.69757E-09  5.67578E-09  5.65368E-09  5.63135E-09  5.60870E-09  5.58581E-09  5.56264E-09  5.53920E-09  5.51550E-09  5.49153E-09
   5.46733E-09  5.44286E-09  5.41816E-09  5.39322E-09  5.36806E-09  5.34266E-09  5.31706E-09  5.29126E-09  5.26525E-09  5.23908E-09
   5.21270E-09  5.18616E-09  5.15946E-09  5.13262E-09  5.10563E-09  5.07849E-09  5.05126E-09  5.02389E-09  4.99643E-09  4.96888E-09
   4.94125E-09  4.91355E-09  4.88576E-09  4.85788E-09  4.82979E-09  4.80140E-09  4.77262E-09  4.74336E-09  4.71350E-09  4.68295E-09
   4.65163E-09  4.61942E-09  4.58623E-09  4.55195E-09  4.51648E-09  4.47973E-09  4.44159E-09  4.40194E-09  4.36071E-09  4.31777E-09
   4.27301E-09  4.22634E-09  4.17764E-09  4.12681E-09  4.07375E-09  4.01834E-09  3.96049E-09  3.90008E-09  3.83701E-09  3.77117E-09
   3.70241E-09  3.63070E-09  3.55592E-09  3.47797E-09  3.39674E-09  3.31216E-09  3.22411E-09  3.13251E-09  3.03726E-09  2.93827E-09
   2.83546E-09  2.72872E-09  2.61798E-09  2.50314E-09  2.38414E-09  2.26089E-09  2.13335E-09  2.00143E-09  1.86514E-09  1.72445E-09
   1.57943E-09  1.43026E-09  1.27734E-09  1.12159E-09  9.65500E-10  8.17356E-10  7.20253E-10  7.52171E-10  7.33044E-10  6.70379E-10
   6.00026E-10  5.05347E-10  3.51311E-10  1.13249E-10 -1.76930E-10 -4.58872E-10 -7.48095E-10 -1.16302E-09 -1.66727E-09 -1.95304E-09
  -2.18966E-09 -2.41023E-09 -2.62232E-09 -2.82817E-09 -3.02845E-09 -3.22323E-09 -3.41228E-09 -3.59524E-09 -3.77166E-09 -3.94107E-09
  -4.10297E-09 -4.25686E-09 -4.40219E-09 -4.53841E-09 -4.66501E-09 -4.78146E-09 -4.88737E-09 -4.98287E-09 -5.06817E-09 -5.14349E-09
  -5.20905E-09 -5.26508E-09 -5.31178E-09 -5.34938E-09 -5.37812E-09 -5.39820E-09 -5.40986E-09 -5.41332E-09 -5.40880E-09 -5.39654E-09
  -5.37677E-09 -5.34970E-09 -5.31557E-09 -5.27462E-09 -5.22706E-09 -5.17314E-09 -5.11308E-09 -5.04710E-09 -4.97546E-09 -4.89837E-09
  -4.81606E-09 -4.72877E-09 -4.63672E-09 -4.54016E-09 -4.43933E-09 -4.33453E-09 -4.22607E-09 -4.11425E-09 -3.99938E-09 -3.88175E-09
  -3.76168E-09 -3.63944E-09 -3.51536E-09 -3.38970E-09 -3.26277E-09 -3.13485E-09 -3.00624E-09 -2.87721E-09 -2.74804E-09 -2.61902E-09
  -2.49042E-09 -2.36251E-09 -2.23556E-09 -2.10985E-09 -1.98561E-09 -1.86312E-09 -1.74263E-09 -1.62439E-09 -1.50865E-09 -1.39567E-09
  -1.28565E-09 -1.17887E-09 -1.07540E-09 -9.75177E-10 -8.78132E-10 -7.84189E-10 -6.93261E-10 -6.05279E-10 -5.20159E-10 -4.37828E-10
  -3.58214E-10 -2.81231E-10 -2.06815E-10 -1.34880E-10 -6.53631E-11  1.81626E-12  6.67444E-11  1.29464E-10  1.90064E-10  2.48621E-10
   3.05205E-10  3.59874E-10  4.12713E-10  4.63784E-10  5.13144E-10  5.60886E-10  6.07048E-10  6.51713E-10  6.94937E-10  7.36793E-10
   7.77327E-10  8.16586E-10  8.54614E-10  8.91456E-10  9.27152E-10  9.61746E-10  9.95279E-10  1.02779E-09  1.05933E-09  1.08992E-09
   1.11961E-09  1.14844E-09  1.17644E-09  1.20366E-09  1.23012E-09  1.25586E-09  1.28091E-09  1.30531E-09  1.32909E-09  1.35229E-09
   1.37492E-09  1.39703E-09  1.41864E-09  1.43977E-09  1.46046E-09  1.48073E-09  1.50060E-09  1.52010E-09  1.53924E-09  1.55799E-09
   1.57637E-09  1.59435E-09  1.61193E-09  1.62911E-09  1.64587E-09  1.66221E-09  1.67812E-09  1.69360E-09  1.70863E-09  1.72320E-09
   1.73732E-09  1.75096E-09  1.76413E-09  1.77682E-09  1.78901E-09  1.80070E-09  1.81188E-09  1.82254E-09  1.83268E-09  1.84228E-09
   1.85134E-09  1.85985E-09  1.86780E-09  1.87519E-09  1.88200E-09  1.88822E-09  1.89385E-09  1.89886E-09  1.90323E-09  1.90696E-09
   1.91002E-09  1.91240E-09  1.91409E-09  1.91507E-09  1.91533E-09  1.91485E-09  1.91362E-09  1.91163E-09  1.90886E-09  1.90531E-09
   1.90096E-09  1.89581E-09  1.88984E-09  1.88303E-09  1.87539E-09  1.86691E-09  1.85757E-09  1.84736E-09  1.83628E-09  1.82433E-09
   1.81150E-09  1.79777E-09  1.78314E-09
 Glc      Conc. = 9.53E-10
   4.20823E-09  4.61235E-09  4.95321E-09  5.31069E-09  5.63913E-09  5.92308E-09  6.02358E-09  6.11702E-09  6.10863E-09  5.91153E-09
   5.76442E-09  5.66161E-09  5.53724E-09  5.54080E-09  5.80808E-09  6.18180E-09  6.57448E-09  7.04687E-09  7.51863E-09  7.94923E-09
   8.33771E-09  8.58004E-09  8.68000E-09  8.80567E-09  8.79194E-09  8.47922E-09  8.18148E-09  7.98100E-09  7.87121E-09  7.83639E-09
   7.76903E-09  7.66311E-09  7.61065E-09  7.55692E-09  7.42434E-09  7.31371E-09  7.24267E-09  7.15073E-09  7.05110E-09  6.97052E-09
   6.90470E-09  6.84806E-09  6.79866E-09  6.75464E-09  6.71487E-09  6.67851E-09  6.64494E-09  6.61367E-09  6.58425E-09  6.55639E-09
   6.52984E-09  6.50433E-09  6.47974E-09  6.45589E-09  6.43273E-09  6.41000E-09  6.38768E-09  6.36573E-09  6.34404E-09  6.32255E-09
   6.30121E-09  6.27997E-09  6.25879E-09  6.23760E-09  6.21640E-09  6.19516E-09  6.17383E-09  6.15240E-09  6.13085E-09  6.10916E-09
   6.08730E-09  6.06528E-09  6.04307E-09  6.02067E-09  5.99804E-09  5.97523E-09  5.95219E-09  5.92891E-09  5.90540E-09  5.88167E-09
   5.85767E-09  5.83345E-09  5.80895E-09  5.78425E-09  5.75924E-09  5.73402E-09  5.70856E-09  5.68285E-09  5.65691E-09  5.63073E-09
   5.60435E-09  5.57773E-09  5.55091E-09  5.52388E-09  5.49666E-09  5.46923E-09  5.44163E-09  5.41386E-09  5.38591E-09  5.35783E-09
   5.32956E-09  5.30117E-09  5.27265E-09  5.24400E-09  5.21524E-09  5.18636E-09  5.15740E-09  5.12834E-09  5.09921E-09  5.07001E-09
   5.04077E-09  5.01148E-09  4.98211E-09  4.95268E-09  4.92307E-09  4.89316E-09  4.86291E-09  4.83218E-09  4.80088E-09  4.76892E-09
   4.73619E-09  4.70260E-09  4.66805E-09  4.63243E-09  4.59564E-09  4.55759E-09  4.51815E-09  4.47724E-09  4.43476E-09  4.39058E-09
   4.34461E-09  4.29674E-09  4.24687E-09  4.19487E-09  4.14067E-09  4.08413E-09  4.02516E-09  3.96366E-09  3.89952E-09  3.83261E-09
   3.76281E-09  3.69008E-09  3.61430E-09  3.53536E-09  3.45318E-09  3.36765E-09  3.27870E-09  3.18621E-09  3.09011E-09  2.99030E-09
   2.88670E-09  2.77923E-09  2.66781E-09  2.55236E-09  2.43284E-09  2.30916E-09  2.18133E-09  2.04931E-09  1.91316E-09  1.77297E-09
   1.62895E-09  1.48158E-09  1.33178E-09  1.18152E-09  1.03586E-09  9.10911E-10  8.86332E-10  1.16447E-09  1.34551E-09  1.43288E-09
   1.50847E-09  1.54011E-09  1.45235E-09  1.18503E-09  7.99258E-10  4.29806E-10  6.05710E-11 -5.68687E-10 -1.43840E-09 -1.82607E-09
  -2.09887E-09 -2.33763E-09 -2.56071E-09 -2.77400E-09 -2.97969E-09 -3.17862E-09 -3.37099E-09 -3.55670E-09 -3.73545E-09 -3.90688E-09
  -4.07056E-09 -4.22604E-09 -4.37282E-09 -4.51036E-09 -4.63819E-09 -4.75579E-09 -4.86277E-09 -4.95928E-09 -5.04554E-09 -5.12178E-09
  -5.18822E-09 -5.24509E-09 -5.29261E-09 -5.33100E-09 -5.36049E-09 -5.38131E-09 -5.39369E-09 -5.39785E-09 -5.39402E-09 -5.38243E-09
  -5.36331E-09 -5.33688E-09 -5.30338E-09 -5.26304E-09 -5.21608E-09 -5.16275E-09 -5.10327E-09 -5.03788E-09 -4.96680E-09 -4.89026E-09
  -4.80850E-09 -4.72175E-09 -4.63024E-09 -4.53420E-09 -4.43389E-09 -4.32960E-09 -4.22164E-09 -4.11032E-09 -3.99594E-09 -3.87881E-09
