 LCModel (Version 6.3-1R) Copyright: S.W. Provencher.          Ref.: Magn. Reson. Med. 30:672-679 (1993).                
 onepulse 25x5_ftSpec_smooth_lcm
 26 lines in following concentration table = NCONC+1
    Conc.  %SD   /Cr    Metabolite                                         
 5.81E-11 439%   0.000 Ala                                                 
 1.19E-09  41%   0.000 Asp                                                 
    0.000 999%   0.000 Cr                                                  
 1.76E-09  21%   0.000 GABA                                                
 6.36E-10  76%   0.000 Glc                                                 
    0.000 999%   0.000 Gln                                                 
    0.000 999%   0.000 Glu                                                 
    0.000 999%   0.000 Glyc                                                
    0.000 999%   0.000 GPC                                                 
    0.000 999%   0.000 GSH                                                 
 2.62E-10 126%   0.000 Ins                                                 
    0.000 999%   0.000 Lac                                                 
    0.000 999%   0.000 NAAG                                                
 2.67E-10  69%   0.000 NAA                                                 
 5.55E-11 132%   0.000 PCh                                                 
    0.000 999%   0.000 PCr                                                 
    0.000 999%   0.000 PE                                                  
 9.45E-11 138%   0.000 Scyllo                                              
    0.000 999%   0.000 Ser                                                 
    0.000 999%   0.000 Tau                                                 
 5.55E-11 132%   0.000 GPC+PCh                                             
 2.67E-10  69%   0.000 NAA+NAAG                                            
 2.62E-10 126%   0.000 Ins+Glyc                                            
    0.000 999%   0.000 Cr+PCr                                              
    0.000 999%   0.000 Glu+Gln                                             
   6 lines in following misc. output table
  FWHM = 0.056 ppm    S/N =   2                                            
  Data shift = 0.302 ppm                                                   
  Ph:  61 deg       2.9 deg/ppm                                            
  alphaB,S = 6.4E-01,   2.5E+01                                            
    8 spline knots.   Ns = 5(1)                                            
  (12) 3 infls.   ( 9) 3 extrs.                                            
  363 points on ppm-axis = NY
      4.250000     4.238821     4.227641     4.216462     4.205282     4.194103     4.182923     4.171744     4.160564     4.149385
      4.138206     4.127026     4.115847     4.104667     4.093488     4.082308     4.071129     4.059949     4.048770     4.037591
      4.026411     4.015232     4.004052     3.992873     3.981693     3.970514     3.959334     3.948155     3.936975     3.925796
      3.914617     3.903437     3.892258     3.881078     3.869899     3.858719     3.847540     3.836360     3.825181     3.814002
      3.802822     3.791643     3.780463     3.769284     3.758104     3.746925     3.735745     3.724566     3.713387     3.702207
      3.691028     3.679848     3.668669     3.657489     3.646310     3.635130     3.623951     3.612772     3.601592     3.590413
      3.579233     3.568054     3.556874     3.545695     3.534515     3.523336     3.512156     3.500977     3.489798     3.478618
      3.467439     3.456259     3.445080     3.433900     3.422721     3.411541     3.400362     3.389183     3.378003     3.366824
      3.355644     3.344465     3.333285     3.322106     3.310926     3.299747     3.288568     3.277388     3.266209     3.255029
      3.243850     3.232670     3.221491     3.210311     3.199132     3.187953     3.176773     3.165594     3.154414     3.143235
      3.132055     3.120876     3.109696     3.098517     3.087337     3.076158     3.064979     3.053799     3.042620     3.031440
      3.020261     3.009081     2.997902     2.986722     2.975543     2.964364     2.953184     2.942005     2.930825     2.919646
      2.908466     2.897287     2.886107     2.874928     2.863749     2.852569     2.841390     2.830210     2.819031     2.807851
      2.796672     2.785492     2.774313     2.763134     2.751954     2.740775     2.729595     2.718416     2.707236     2.696057
      2.684877     2.673698     2.662519     2.651339     2.640160     2.628980     2.617801     2.606621     2.595442     2.584262
      2.573083     2.561903     2.550724     2.539545     2.528365     2.517186     2.506006     2.494827     2.483647     2.472468
      2.461288     2.450109     2.438930     2.427750     2.416571     2.405391     2.394212     2.383032     2.371853     2.360673
      2.349494     2.338315     2.327135     2.315956     2.304776     2.293597     2.282417     2.271238     2.260058     2.248879
      2.237700     2.226520     2.215341     2.204161     2.192982     2.181802     2.170623     2.159443     2.148264     2.137084
      2.125905     2.114726     2.103546     2.092367     2.081187     2.070008     2.058828     2.047649     2.036469     2.025290
      2.014111     2.002931     1.991752     1.980572     1.969393     1.958213     1.947034     1.935854     1.924675     1.913496
      1.902316     1.891137     1.879957     1.868778     1.857598     1.846419     1.835239     1.824060     1.812881     1.801701
      1.790522     1.779342     1.768163     1.756983     1.745804     1.734624     1.723445     1.712265     1.701086     1.689907
      1.678727     1.667548     1.656368     1.645189     1.634009     1.622830     1.611650     1.600471     1.589292     1.578112
      1.566933     1.555753     1.544574     1.533394     1.522215     1.511035     1.499856     1.488677     1.477497     1.466318
      1.455138     1.443959     1.432779     1.421600     1.410420     1.399241     1.388062     1.376882     1.365703     1.354523
      1.343344     1.332164     1.320985     1.309805     1.298626     1.287446     1.276267     1.265088     1.253908     1.242729
      1.231549     1.220370     1.209190     1.198011     1.186831     1.175652     1.164473     1.153293     1.142114     1.130934
      1.119755     1.108575     1.097396     1.086216     1.075037     1.063858     1.052678     1.041499     1.030319     1.019140
      1.007960     0.996781     0.985601     0.974422     0.963243     0.952063     0.940884     0.929704     0.918525     0.907345
      0.896166     0.884986     0.873807     0.862628     0.851448     0.840269     0.829089     0.817910     0.806730     0.795551
      0.784371     0.773192     0.762012     0.750833     0.739654     0.728474     0.717295     0.706115     0.694936     0.683756
      0.672577     0.661397     0.650218     0.639039     0.627859     0.616680     0.605500     0.594321     0.583141     0.571962
      0.560782     0.549603     0.538424     0.527244     0.516065     0.504885     0.493706     0.482526     0.471347     0.460167
      0.448988     0.437809     0.426629     0.415450     0.404270     0.393091     0.381911     0.370732     0.359552     0.348373
      0.337193     0.326014     0.314835     0.303655     0.292476     0.281296     0.270117     0.258937     0.247758     0.236578
      0.225399     0.214220     0.203040
 NY phased data points follow
   2.51339E-09  4.22898E-09  4.89144E-09  6.12946E-09  6.79488E-09  7.46758E-09  6.41374E-09  5.93147E-09  4.66303E-09  5.20662E-09
   4.82387E-09  4.92793E-09  4.28026E-09  5.49503E-09  5.16126E-09  5.27786E-09  5.32206E-09  5.93815E-09  5.76960E-09  6.40798E-09
   5.78701E-09  5.97959E-09  5.49544E-09  6.67498E-09  5.29376E-09  6.08719E-09  5.03368E-09  5.79471E-09  5.56801E-09  5.99354E-09
   5.78713E-09  5.74147E-09  5.47746E-09  5.56691E-09  5.14375E-09  6.14415E-09  6.70482E-09  7.52229E-09  6.87698E-09  6.80092E-09
   5.84700E-09  5.96822E-09  5.60435E-09  5.41419E-09  5.48462E-09  5.60595E-09  4.88731E-09  5.85865E-09  5.07876E-09  5.45071E-09
   4.55988E-09  4.48748E-09  4.41104E-09  4.86867E-09  4.14105E-09  4.64609E-09  4.38255E-09  4.42538E-09  4.17456E-09  4.33139E-09
   3.74267E-09  3.88654E-09  4.30337E-09  4.31875E-09  4.50671E-09  4.71765E-09  5.02187E-09  6.30572E-09  6.81083E-09  6.82736E-09
   6.73334E-09  6.23456E-09  5.38056E-09  5.42317E-09  4.76980E-09  5.30801E-09  4.78604E-09  4.57665E-09  4.12680E-09  4.13661E-09
   3.67684E-09  3.97804E-09  4.75352E-09  6.82864E-09  7.74151E-09  8.97916E-09  8.69608E-09  8.37096E-09  7.70076E-09  7.65250E-09
   7.10731E-09  7.42510E-09  6.44171E-09  6.78918E-09  6.61852E-09  6.59491E-09  6.27460E-09  6.17331E-09  5.88901E-09  5.45836E-09
   5.37825E-09  4.74136E-09  4.71556E-09  4.38151E-09  4.49969E-09  4.47355E-09  3.94790E-09  4.50667E-09  4.30220E-09  4.24342E-09
   4.11458E-09  4.36081E-09  3.70081E-09  3.72920E-09  3.06909E-09  3.07411E-09  3.28312E-09  3.34918E-09  3.35780E-09  3.74078E-09
   2.89419E-09  3.67821E-09  3.06703E-09  3.33161E-09  3.12394E-09  3.61465E-09  3.42010E-09  3.52143E-09  3.08495E-09  2.93448E-09
   2.53660E-09  3.08039E-09  2.78141E-09  3.37209E-09  3.47030E-09  3.87752E-09  3.77507E-09  4.14985E-09  4.16272E-09  4.68725E-09
   4.13674E-09  4.00128E-09  4.46925E-09  4.60422E-09  5.23181E-09  6.03255E-09  5.37077E-09  5.44750E-09  5.54375E-09  5.81231E-09
   6.11295E-09  6.51183E-09  5.99667E-09  6.37794E-09  6.51657E-09  6.49171E-09  6.53207E-09  6.18606E-09  5.72395E-09  6.13206E-09
   5.91568E-09  6.23520E-09  6.00137E-09  5.98177E-09  6.39777E-09  6.04437E-09  6.49903E-09  6.21097E-09  5.99834E-09  6.06498E-09
   6.56842E-09  6.55043E-09  5.65337E-09  6.09398E-09  7.14682E-09  9.79042E-09  1.16197E-08  1.16968E-08  1.14959E-08  1.05285E-08
   1.00293E-08  9.36711E-09  8.13364E-09  7.23673E-09  5.58814E-09  4.09248E-09  2.63668E-09  1.00358E-09 -1.00355E-09 -2.86272E-09
  -5.20496E-09 -6.80658E-09 -8.61356E-09 -9.88612E-09 -1.11777E-08 -1.22583E-08 -1.27210E-08 -1.29799E-08 -1.22781E-08 -1.16365E-08
  -1.07757E-08 -9.81625E-09 -8.15426E-09 -7.15931E-09 -5.16953E-09 -4.63378E-09 -3.03630E-09 -2.63773E-09 -2.35930E-09 -2.00860E-09
  -1.75941E-09 -2.30461E-09 -2.00947E-09 -2.39401E-09 -2.35019E-09 -2.37400E-09 -2.54099E-09 -1.95875E-09 -1.62957E-09 -1.54000E-09
  -9.70696E-10 -1.59139E-09 -1.70781E-09 -1.98514E-09 -1.99700E-09 -1.93452E-09 -1.77864E-09 -1.64974E-09 -1.33581E-09 -1.21320E-09
  -1.12486E-09 -1.50907E-09 -1.53467E-09 -2.25893E-09 -1.76363E-09 -2.13099E-09 -2.44180E-09 -2.50805E-09 -2.09389E-09 -2.26585E-09
  -2.17916E-09 -1.94689E-09 -1.91272E-09 -2.17072E-09 -1.95851E-09 -2.35205E-09 -2.43921E-09 -2.36283E-09 -2.53134E-09 -2.74526E-09
  -2.45694E-09 -2.42140E-09 -2.65037E-09 -2.54973E-09 -2.66383E-09 -2.39412E-09 -2.08644E-09 -2.29531E-09 -2.13386E-09 -2.57127E-09
  -2.23634E-09 -2.43304E-09 -2.54006E-09 -2.21335E-09 -2.06307E-09 -2.26736E-09 -1.85595E-09 -2.68639E-09 -2.30557E-09 -2.63946E-09
  -2.27791E-09 -2.92951E-09 -2.33182E-09 -2.72536E-09 -2.30137E-09 -2.37106E-09 -1.80571E-09 -1.72631E-09 -1.55258E-09 -1.88149E-09
  -1.54315E-09 -1.16016E-09 -1.22829E-09 -1.63261E-09 -1.39158E-09 -1.57776E-09 -1.99047E-09 -1.48049E-09 -1.97871E-09 -1.82728E-09
  -1.95962E-09 -2.08008E-09 -2.01170E-09 -2.47692E-09 -2.12195E-09 -2.28682E-09 -1.88156E-09 -2.57026E-09 -2.44320E-09 -2.33905E-09
  -2.18448E-09 -1.95339E-09 -1.95033E-09 -2.41250E-09 -2.34702E-09 -2.52207E-09 -2.01119E-09 -2.45580E-09 -2.53726E-09 -2.43229E-09
  -2.39419E-09 -1.89157E-09 -2.24967E-09 -2.39278E-09 -2.71923E-09 -2.63721E-09 -2.59297E-09 -2.03062E-09 -2.51794E-09 -2.90019E-09
  -2.50715E-09 -2.27777E-09 -2.75123E-09 -2.81146E-09 -2.69011E-09 -2.89055E-09 -2.86312E-09 -2.89352E-09 -2.46177E-09 -2.80450E-09
  -2.79174E-09 -3.17669E-09 -2.88179E-09 -2.77850E-09 -2.69429E-09 -2.76105E-09 -2.90857E-09 -3.19794E-09 -2.99216E-09 -3.00738E-09
  -2.72044E-09 -2.68447E-09 -3.32264E-09 -3.29943E-09 -3.46385E-09 -3.30397E-09 -2.88423E-09 -3.18413E-09 -3.52092E-09 -3.22129E-09
  -3.28121E-09 -3.43524E-09 -3.50385E-09 -3.33318E-09 -3.61201E-09 -3.90743E-09 -3.56665E-09 -3.56623E-09 -3.73870E-09 -3.73591E-09
  -3.71146E-09 -3.65940E-09 -3.58118E-09
 NY points of the fit to the data follow
   5.64521E-09  5.48618E-09  5.49877E-09  5.50646E-09  5.52490E-09  5.36015E-09  5.12177E-09  4.94176E-09  4.84307E-09  4.87315E-09
   4.96112E-09  5.09582E-09  5.31734E-09  5.60285E-09  5.82572E-09  5.94100E-09  6.04911E-09  6.09573E-09  5.97293E-09  5.87491E-09
   5.93118E-09  6.01469E-09  5.99001E-09  5.96804E-09  5.83642E-09  5.65701E-09  5.53028E-09  5.29143E-09  5.12782E-09  5.43967E-09
   5.91181E-09  6.14149E-09  6.31299E-09  6.35107E-09  6.15985E-09  6.32309E-09  6.66202E-09  6.86063E-09  6.88750E-09  6.69916E-09
   6.42716E-09  6.24609E-09  5.89625E-09  5.22690E-09  5.06322E-09  5.20512E-09  4.75756E-09  4.28970E-09  4.32040E-09  4.58140E-09
   5.01378E-09  5.35894E-09  5.44278E-09  5.16805E-09  4.70925E-09  4.41603E-09  4.39341E-09  4.69612E-09  4.76006E-09  4.61610E-09
   4.64290E-09  4.82534E-09  5.23207E-09  5.62014E-09  5.97377E-09  6.43023E-09  6.63241E-09  6.72643E-09  6.92915E-09  7.13630E-09
   7.21045E-09  7.02341E-09  6.61259E-09  6.20508E-09  5.94619E-09  5.21857E-09  4.55638E-09  4.98889E-09  5.20799E-09  5.02984E-09
   5.07973E-09  5.20056E-09  5.41326E-09  5.94805E-09  6.52095E-09  6.78238E-09  6.73092E-09  6.31034E-09  5.79941E-09  5.86273E-09
   5.93761E-09  6.02000E-09  6.17542E-09  6.02715E-09  5.65375E-09  5.63825E-09  5.52288E-09  5.07155E-09  4.86902E-09  4.79769E-09
   4.64793E-09  4.53846E-09  4.48203E-09  4.47044E-09  4.47622E-09  4.48953E-09  4.50700E-09  4.52169E-09  4.52134E-09  4.49697E-09
   4.45607E-09  4.42721E-09  4.42213E-09  4.36831E-09  4.30268E-09  4.28347E-09  4.27490E-09  4.26874E-09  4.26273E-09  4.25599E-09
   4.24813E-09  4.23896E-09  4.22836E-09  4.21622E-09  4.20247E-09  4.18704E-09  4.16990E-09  4.15100E-09  4.13034E-09  4.10787E-09
   4.08356E-09  4.05739E-09  4.02935E-09  3.99941E-09  3.96756E-09  3.93379E-09  3.89806E-09  3.86035E-09  3.82063E-09  3.77890E-09
   3.73516E-09  3.68939E-09  3.64158E-09  3.59171E-09  3.53975E-09  3.48571E-09  3.42960E-09  3.37151E-09  3.31154E-09  3.24975E-09
   3.18623E-09  3.12112E-09  3.05451E-09  2.98658E-09  2.91748E-09  2.84745E-09  2.77675E-09  2.70575E-09  2.63499E-09  2.56522E-09
   2.49762E-09  2.43412E-09  2.37819E-09  2.33669E-09  2.32529E-09  2.38906E-09  2.71772E-09  4.12055E-09  5.65946E-09  6.50717E-09
   6.67310E-09  6.62115E-09  6.94045E-09  8.04192E-09  9.78787E-09  1.12789E-08  1.11223E-08  8.45125E-09  4.34052E-09  2.28797E-09
   1.59675E-09  1.23389E-09  9.90535E-10  8.03181E-10  6.46390E-10  5.08096E-10  3.81892E-10  2.64095E-10  1.52412E-10  4.54130E-11
  -5.78532E-11 -1.58061E-10 -2.55647E-10 -3.50937E-10 -4.44136E-10 -5.35419E-10 -6.24900E-10 -7.12626E-10 -7.98657E-10 -8.83029E-10
  -9.65742E-10 -1.04680E-09 -1.12618E-09 -1.20387E-09 -1.27986E-09 -1.35410E-09 -1.42657E-09 -1.49723E-09 -1.56605E-09 -1.63296E-09
  -1.69796E-09 -1.76097E-09 -1.82197E-09 -1.88090E-09 -1.93773E-09 -1.99240E-09 -2.04486E-09 -2.09509E-09 -2.14301E-09 -2.18868E-09
  -2.23212E-09 -2.27341E-09 -2.31257E-09 -2.34967E-09 -2.38474E-09 -2.41785E-09 -2.44903E-09 -2.47833E-09 -2.50580E-09 -2.53149E-09
  -2.55545E-09 -2.57772E-09 -2.59834E-09 -2.61738E-09 -2.63487E-09 -2.65086E-09 -2.66540E-09 -2.67852E-09 -2.69029E-09 -2.70074E-09
  -2.70992E-09 -2.71789E-09 -2.72467E-09 -2.73032E-09 -2.73487E-09 -2.73839E-09 -2.74091E-09 -2.74247E-09 -2.74313E-09 -2.74291E-09
  -2.74189E-09 -2.74007E-09 -2.73754E-09 -2.73430E-09 -2.73041E-09 -2.72593E-09 -2.72088E-09 -2.71531E-09 -2.70926E-09 -2.70276E-09
  -2.69588E-09 -2.68865E-09 -2.68111E-09 -2.67329E-09 -2.66524E-09 -2.65699E-09 -2.64861E-09 -2.64009E-09 -2.63151E-09 -2.62290E-09
  -2.61428E-09 -2.60570E-09 -2.59721E-09 -2.58883E-09 -2.58061E-09 -2.57257E-09 -2.56475E-09 -2.55721E-09 -2.54995E-09 -2.54302E-09
  -2.53646E-09 -2.53030E-09 -2.52458E-09 -2.51932E-09 -2.51456E-09 -2.51033E-09 -2.50667E-09 -2.50358E-09 -2.50113E-09 -2.49934E-09
  -2.49822E-09 -2.49781E-09 -2.49806E-09 -2.49898E-09 -2.50052E-09 -2.50268E-09 -2.50543E-09 -2.50876E-09 -2.51264E-09 -2.51706E-09
  -2.52200E-09 -2.52742E-09 -2.53333E-09 -2.53970E-09 -2.54650E-09 -2.55371E-09 -2.56134E-09 -2.56934E-09 -2.57770E-09 -2.58641E-09
  -2.59544E-09 -2.60478E-09 -2.61441E-09 -2.62430E-09 -2.63445E-09 -2.64483E-09 -2.65543E-09 -2.66622E-09 -2.67720E-09 -2.68834E-09
  -2.69963E-09 -2.71104E-09 -2.72257E-09 -2.73419E-09 -2.74589E-09 -2.75765E-09 -2.76946E-09 -2.78129E-09 -2.79314E-09 -2.80499E-09
  -2.81682E-09 -2.82861E-09 -2.84035E-09 -2.85203E-09 -2.86363E-09 -2.87513E-09 -2.88653E-09 -2.89780E-09 -2.90894E-09 -2.91991E-09
  -2.93073E-09 -2.94136E-09 -2.95181E-09 -2.96204E-09 -2.97205E-09 -2.98184E-09 -2.99137E-09 -3.00065E-09 -3.00965E-09 -3.01838E-09
  -3.02681E-09 -3.03494E-09 -3.04274E-09 -3.05022E-09 -3.05736E-09 -3.06415E-09 -3.07058E-09 -3.07663E-09 -3.08231E-09 -3.08759E-09
  -3.09247E-09 -3.09694E-09 -3.10100E-09
 NY background values follow
     1.326E-09    1.355E-09    1.384E-09    1.413E-09    1.442E-09    1.471E-09    1.501E-09    1.530E-09    1.560E-09    1.590E-09
     1.621E-09    1.651E-09    1.681E-09    1.712E-09    1.743E-09    1.774E-09    1.805E-09    1.836E-09    1.867E-09    1.899E-09
     1.930E-09    1.962E-09    1.994E-09    2.025E-09    2.057E-09    2.089E-09    2.121E-09    2.153E-09    2.185E-09    2.218E-09
     2.250E-09    2.282E-09    2.314E-09    2.346E-09    2.379E-09    2.411E-09    2.443E-09    2.475E-09    2.508E-09    2.540E-09
     2.572E-09    2.604E-09    2.636E-09    2.668E-09    2.700E-09    2.732E-09    2.764E-09    2.795E-09    2.827E-09    2.858E-09
     2.890E-09    2.921E-09    2.952E-09    2.983E-09    3.014E-09    3.045E-09    3.075E-09    3.105E-09    3.136E-09    3.166E-09
     3.195E-09    3.225E-09    3.254E-09    3.284E-09    3.313E-09    3.341E-09    3.370E-09    3.398E-09    3.426E-09    3.454E-09
     3.481E-09    3.509E-09    3.535E-09    3.562E-09    3.588E-09    3.614E-09    3.640E-09    3.665E-09    3.690E-09    3.714E-09
     3.738E-09    3.761E-09    3.784E-09    3.807E-09    3.829E-09    3.850E-09    3.870E-09    3.890E-09    3.910E-09    3.928E-09
     3.946E-09    3.964E-09    3.980E-09    3.996E-09    4.011E-09    4.025E-09    4.038E-09    4.050E-09    4.062E-09    4.072E-09
     4.082E-09    4.090E-09    4.098E-09    4.104E-09    4.109E-09    4.114E-09    4.117E-09    4.119E-09    4.120E-09    4.120E-09
     4.118E-09    4.116E-09    4.112E-09    4.106E-09    4.100E-09    4.092E-09    4.082E-09    4.072E-09    4.060E-09    4.046E-09
     4.031E-09    4.015E-09    3.997E-09    3.977E-09    3.956E-09    3.933E-09    3.909E-09    3.883E-09    3.856E-09    3.827E-09
     3.796E-09    3.763E-09    3.729E-09    3.692E-09    3.654E-09    3.615E-09    3.573E-09    3.530E-09    3.484E-09    3.437E-09
     3.388E-09    3.337E-09    3.283E-09    3.228E-09    3.171E-09    3.112E-09    3.051E-09    2.988E-09    2.922E-09    2.855E-09
     2.787E-09    2.716E-09    2.644E-09    2.570E-09    2.495E-09    2.418E-09    2.339E-09    2.260E-09    2.179E-09    2.096E-09
     2.013E-09    1.928E-09    1.842E-09    1.756E-09    1.668E-09    1.579E-09    1.490E-09    1.400E-09    1.309E-09    1.218E-09
     1.125E-09    1.033E-09    9.399E-10    8.465E-10    7.528E-10    6.588E-10    5.646E-10    4.703E-10    3.759E-10    2.815E-10
     1.871E-10    9.291E-11   -1.149E-12   -9.496E-11   -1.885E-10   -2.816E-10   -3.744E-10   -4.666E-10   -5.583E-10   -6.494E-10
    -7.398E-10   -8.294E-10   -9.183E-10   -1.006E-09   -1.093E-09   -1.180E-09   -1.265E-09   -1.349E-09   -1.432E-09   -1.513E-09
    -1.594E-09   -1.673E-09   -1.750E-09   -1.826E-09   -1.901E-09   -1.974E-09   -2.046E-09   -2.116E-09   -2.184E-09   -2.250E-09
    -2.315E-09   -2.377E-09   -2.438E-09   -2.497E-09   -2.553E-09   -2.608E-09   -2.660E-09   -2.710E-09   -2.758E-09   -2.803E-09
    -2.847E-09   -2.888E-09   -2.927E-09   -2.964E-09   -2.999E-09   -3.033E-09   -3.064E-09   -3.093E-09   -3.121E-09   -3.146E-09
    -3.170E-09   -3.192E-09   -3.213E-09   -3.232E-09   -3.250E-09   -3.266E-09   -3.280E-09   -3.293E-09   -3.305E-09   -3.315E-09
    -3.324E-09   -3.332E-09   -3.339E-09   -3.345E-09   -3.349E-09   -3.352E-09   -3.355E-09   -3.356E-09   -3.357E-09   -3.356E-09
    -3.355E-09   -3.353E-09   -3.350E-09   -3.347E-09   -3.343E-09   -3.338E-09   -3.333E-09   -3.327E-09   -3.320E-09   -3.314E-09
    -3.306E-09   -3.299E-09   -3.291E-09   -3.283E-09   -3.274E-09   -3.265E-09   -3.257E-09   -3.248E-09   -3.239E-09   -3.230E-09
    -3.220E-09   -3.211E-09   -3.202E-09   -3.193E-09   -3.185E-09   -3.176E-09   -3.168E-09   -3.159E-09   -3.152E-09   -3.144E-09
    -3.137E-09   -3.130E-09   -3.123E-09   -3.118E-09   -3.112E-09   -3.107E-09   -3.103E-09   -3.099E-09   -3.096E-09   -3.093E-09
    -3.091E-09   -3.090E-09   -3.089E-09   -3.089E-09   -3.090E-09   -3.091E-09   -3.093E-09   -3.095E-09   -3.098E-09   -3.102E-09
    -3.106E-09   -3.110E-09   -3.115E-09   -3.121E-09   -3.126E-09   -3.133E-09   -3.139E-09   -3.146E-09   -3.153E-09   -3.161E-09
    -3.169E-09   -3.177E-09   -3.186E-09   -3.194E-09   -3.203E-09   -3.213E-09   -3.222E-09   -3.232E-09   -3.241E-09   -3.251E-09
    -3.261E-09   -3.272E-09   -3.282E-09   -3.292E-09   -3.303E-09   -3.313E-09   -3.324E-09   -3.334E-09   -3.345E-09   -3.355E-09
    -3.366E-09   -3.376E-09   -3.386E-09   -3.397E-09   -3.407E-09   -3.417E-09   -3.427E-09   -3.437E-09   -3.446E-09   -3.456E-09
    -3.465E-09   -3.474E-09   -3.483E-09   -3.492E-09   -3.500E-09   -3.509E-09   -3.517E-09   -3.524E-09   -3.532E-09   -3.539E-09
    -3.546E-09   -3.552E-09   -3.558E-09   -3.564E-09   -3.570E-09   -3.575E-09   -3.580E-09   -3.584E-09   -3.588E-09   -3.592E-09
    -3.595E-09   -3.598E-09   -3.600E-09
 Ala      Conc. = 5.81E-11
   1.37731E-09  1.40607E-09  1.43428E-09  1.46226E-09  1.48978E-09  1.51645E-09  1.53939E-09  1.56154E-09  1.59055E-09  1.61565E-09
   1.63437E-09  1.66199E-09  1.69181E-09  1.71778E-09  1.74611E-09  1.77647E-09  1.80756E-09  1.83899E-09  1.87062E-09  1.90240E-09
   1.93427E-09  1.96624E-09  1.99828E-09  2.03039E-09  2.06256E-09  2.09479E-09  2.12706E-09  2.15938E-09  2.19173E-09  2.22411E-09
   2.25652E-09  2.28895E-09  2.32139E-09  2.35383E-09  2.38628E-09  2.41872E-09  2.45115E-09  2.48356E-09  2.51595E-09  2.54830E-09
   2.58061E-09  2.61287E-09  2.64508E-09  2.67724E-09  2.70932E-09  2.74133E-09  2.77325E-09  2.80509E-09  2.83683E-09  2.86846E-09
   2.89998E-09  2.93138E-09  2.96266E-09  2.99380E-09  3.02480E-09  3.05565E-09  3.08634E-09  3.11687E-09  3.14723E-09  3.17741E-09
   3.20740E-09  3.23719E-09  3.26679E-09  3.29617E-09  3.32533E-09  3.35428E-09  3.38298E-09  3.41145E-09  3.43968E-09  3.46765E-09
   3.49535E-09  3.52279E-09  3.54996E-09  3.57684E-09  3.60342E-09  3.62969E-09  3.65561E-09  3.68117E-09  3.70635E-09  3.73112E-09
   3.75546E-09  3.77936E-09  3.80280E-09  3.82575E-09  3.84821E-09  3.87015E-09  3.89156E-09  3.91245E-09  3.93279E-09  3.95259E-09
   3.97187E-09  3.99064E-09  4.00895E-09  4.02686E-09  4.04451E-09  4.06211E-09  4.08005E-09  4.09915E-09  4.12135E-09  4.15275E-09
   4.19662E-09  4.22278E-09  4.24071E-09  4.27231E-09  4.30372E-09  4.33228E-09  4.35848E-09  4.37717E-09  4.37721E-09  4.35053E-09
   4.30545E-09  4.27162E-09  4.26101E-09  4.20119E-09  4.12913E-09  4.10300E-09  4.08706E-09  4.07346E-09  4.06000E-09  4.04586E-09
   4.03064E-09  4.01415E-09  3.99627E-09  3.97693E-09  3.95607E-09  3.93364E-09  3.90961E-09  3.88395E-09  3.85664E-09  3.82764E-09
   3.79693E-09  3.76448E-09  3.73029E-09  3.69431E-09  3.65653E-09  3.61691E-09  3.57546E-09  3.53213E-09  3.48692E-09  3.43978E-09
   3.39071E-09  3.33969E-09  3.28668E-09  3.23168E-09  3.17466E-09  3.11560E-09  3.05449E-09  2.99140E-09  2.92639E-09  2.85951E-09
   2.79081E-09  2.72038E-09  2.64826E-09  2.57451E-09  2.49920E-09  2.42240E-09  2.34416E-09  2.26454E-09  2.18363E-09  2.10149E-09
   2.01819E-09  1.93384E-09  1.84853E-09  1.76245E-09  1.67593E-09  1.58990E-09  1.50869E-09  1.44309E-09  1.37293E-09  1.29110E-09
   1.20050E-09  1.10878E-09  1.02408E-09  9.50741E-10  8.84038E-10  8.08538E-10  7.04438E-10  5.64707E-10  4.14854E-10  3.04774E-10
   2.04623E-10  1.07473E-10  1.16785E-11 -8.32668E-11 -1.77571E-10 -2.71302E-10 -3.64465E-10 -4.57028E-10 -5.48989E-10 -6.40286E-10
  -7.30861E-10 -8.20686E-10 -9.09690E-10 -9.97826E-10 -1.08502E-09 -1.17123E-09 -1.25641E-09 -1.34047E-09 -1.42337E-09 -1.50506E-09
  -1.58547E-09 -1.66454E-09 -1.74222E-09 -1.81845E-09 -1.89319E-09 -1.96634E-09 -2.03789E-09 -2.10775E-09 -2.17590E-09 -2.24223E-09
  -2.30675E-09 -2.36935E-09 -2.43001E-09 -2.48866E-09 -2.54526E-09 -2.59974E-09 -2.65206E-09 -2.70217E-09 -2.75001E-09 -2.79561E-09
  -2.83901E-09 -2.88027E-09 -2.91942E-09 -2.95652E-09 -2.99159E-09 -3.02471E-09 -3.05591E-09 -3.08523E-09 -3.11272E-09 -3.13842E-09
  -3.16240E-09 -3.18468E-09 -3.20532E-09 -3.22436E-09 -3.24184E-09 -3.25782E-09 -3.27234E-09 -3.28544E-09 -3.29717E-09 -3.30757E-09
  -3.31669E-09 -3.32459E-09 -3.33129E-09 -3.33684E-09 -3.34129E-09 -3.34469E-09 -3.34707E-09 -3.34849E-09 -3.34899E-09 -3.34860E-09
  -3.34739E-09 -3.34537E-09 -3.34262E-09 -3.33915E-09 -3.33501E-09 -3.33027E-09 -3.32495E-09 -3.31908E-09 -3.31273E-09 -3.30592E-09
  -3.29869E-09 -3.29111E-09 -3.28320E-09 -3.27500E-09 -3.26655E-09 -3.25789E-09 -3.24907E-09 -3.24011E-09 -3.23107E-09 -3.22198E-09
  -3.21287E-09 -3.20379E-09 -3.19477E-09 -3.18584E-09 -3.17707E-09 -3.16846E-09 -3.16006E-09 -3.15191E-09 -3.14403E-09 -3.13647E-09
  -3.12927E-09 -3.12244E-09 -3.11604E-09 -3.11009E-09 -3.10461E-09 -3.09966E-09 -3.09526E-09 -3.09142E-09 -3.08820E-09 -3.08562E-09
  -3.08370E-09 -3.08247E-09 -3.08190E-09 -3.08197E-09 -3.08265E-09 -3.08394E-09 -3.08580E-09 -3.08823E-09 -3.09119E-09 -3.09468E-09
  -3.09867E-09 -3.10314E-09 -3.10807E-09 -3.11344E-09 -3.11924E-09 -3.12544E-09 -3.13203E-09 -3.13899E-09 -3.14629E-09 -3.15393E-09
  -3.16187E-09 -3.17011E-09 -3.17863E-09 -3.18739E-09 -3.19640E-09 -3.20563E-09 -3.21506E-09 -3.22467E-09 -3.23446E-09 -3.24439E-09
  -3.25446E-09 -3.26464E-09 -3.27492E-09 -3.28529E-09 -3.29572E-09 -3.30619E-09 -3.31670E-09 -3.32723E-09 -3.33776E-09 -3.34827E-09
  -3.35875E-09 -3.36919E-09 -3.37956E-09 -3.38986E-09 -3.40006E-09 -3.41016E-09 -3.42014E-09 -3.42998E-09 -3.43968E-09 -3.44920E-09
  -3.45856E-09 -3.46771E-09 -3.47667E-09 -3.48541E-09 -3.49390E-09 -3.50217E-09 -3.51017E-09 -3.51791E-09 -3.52536E-09 -3.53252E-09
  -3.53938E-09 -3.54591E-09 -3.55212E-09 -3.55799E-09 -3.56351E-09 -3.56867E-09 -3.57346E-09 -3.57787E-09 -3.58188E-09 -3.58550E-09
  -3.58870E-09 -3.59148E-09 -3.59384E-09
 Asp      Conc. = 1.19E-09
   2.39420E-09  2.17859E-09  2.06507E-09  1.93819E-09  1.83373E-09  1.64531E-09  1.50477E-09  1.42768E-09  1.46178E-09  1.51441E-09
   1.57017E-09  1.62645E-09  1.68294E-09  1.73867E-09  1.79127E-09  1.84170E-09  1.89103E-09  1.93963E-09  1.98772E-09  2.03550E-09
   2.08315E-09  2.13083E-09  2.17870E-09  2.22693E-09  2.27571E-09  2.32522E-09  2.37571E-09  2.42743E-09  2.48072E-09  2.53601E-09
   2.59385E-09  2.65502E-09  2.72064E-09  2.79246E-09  2.87342E-09  2.96927E-09  3.09039E-09  3.19668E-09  3.30351E-09  3.37148E-09
   3.42757E-09  3.51560E-09  3.67870E-09  3.92814E-09  4.17201E-09  4.37648E-09  4.35010E-09  4.20258E-09  4.22718E-09  4.40496E-09
   4.73044E-09  4.98680E-09  5.00692E-09  4.69392E-09  4.17996E-09  3.78495E-09  3.60308E-09  3.74481E-09  3.67129E-09  3.41733E-09
   3.31318E-09  3.28606E-09  3.28947E-09  3.38541E-09  3.48898E-09  3.47925E-09  3.38207E-09  3.36069E-09  3.36819E-09  3.38726E-09
   3.41180E-09  3.43915E-09  3.46796E-09  3.49750E-09  3.52732E-09  3.55713E-09  3.58675E-09  3.61606E-09  3.64495E-09  3.67337E-09
   3.70125E-09  3.72855E-09  3.75524E-09  3.78129E-09  3.80668E-09  3.83136E-09  3.85533E-09  3.87856E-09  3.90102E-09  3.92270E-09
   3.94357E-09  3.96361E-09  3.98280E-09  4.00113E-09  4.01856E-09  4.03507E-09  4.05065E-09  4.06528E-09  4.07892E-09  4.09155E-09
   4.10317E-09  4.11373E-09  4.12323E-09  4.13163E-09  4.13892E-09  4.14506E-09  4.15004E-09  4.15384E-09  4.15643E-09  4.15778E-09
   4.15789E-09  4.15671E-09  4.15422E-09  4.15042E-09  4.14526E-09  4.13872E-09  4.13079E-09  4.12144E-09  4.11065E-09  4.09839E-09
   4.08463E-09  4.06936E-09  4.05255E-09  4.03419E-09  4.01423E-09  3.99267E-09  3.96948E-09  3.94464E-09  3.91811E-09  3.88989E-09
   3.85995E-09  3.82826E-09  3.79481E-09  3.75957E-09  3.72252E-09  3.68363E-09  3.64290E-09  3.60029E-09  3.55578E-09  3.50936E-09
   3.46101E-09  3.41069E-09  3.35841E-09  3.30413E-09  3.24785E-09  3.18954E-09  3.12920E-09  3.06691E-09  3.00272E-09  2.93670E-09
   2.86893E-09  2.79948E-09  2.72843E-09  2.65588E-09  2.58190E-09  2.50661E-09  2.43014E-09  2.35264E-09  2.27432E-09  2.19543E-09
   2.11637E-09  2.03776E-09  1.96064E-09  1.88704E-09  1.82152E-09  1.77689E-09  1.80577E-09  2.16575E-09  2.52363E-09  2.67295E-09
   2.63447E-09  2.54663E-09  2.57545E-09  2.83083E-09  3.26068E-09  3.59627E-09  3.43833E-09  2.55992E-09  1.30821E-09  7.48936E-10
   5.07444E-10  3.45487E-10  2.13439E-10  9.57175E-11 -1.40211E-11 -1.18783E-10 -2.20146E-10 -3.18994E-10 -4.15889E-10 -5.11137E-10
  -6.04927E-10 -6.97402E-10 -7.88619E-10 -8.78618E-10 -9.67396E-10 -1.05496E-09 -1.14131E-09 -1.22638E-09 -1.31016E-09 -1.39263E-09
  -1.47371E-09 -1.55339E-09 -1.63160E-09 -1.70830E-09 -1.78345E-09 -1.85698E-09 -1.92886E-09 -1.99903E-09 -2.06745E-09 -2.13403E-09
  -2.19876E-09 -2.26157E-09 -2.32241E-09 -2.38123E-09 -2.43798E-09 -2.49260E-09 -2.54504E-09 -2.59527E-09 -2.64322E-09 -2.68892E-09
  -2.73242E-09 -2.77377E-09 -2.81300E-09 -2.85017E-09 -2.88532E-09 -2.91851E-09 -2.94977E-09 -2.97916E-09 -3.00671E-09 -3.03248E-09
  -3.05651E-09 -3.07885E-09 -3.09954E-09 -3.11864E-09 -3.13618E-09 -3.15221E-09 -3.16679E-09 -3.17994E-09 -3.19173E-09 -3.20219E-09
