 LCModel (Version 6.3-1R) Copyright: S.W. Provencher.          Ref.: Magn. Reson. Med. 30:672-679 (1993).                
 onepulse 25x6_ftSpec_smooth_lcm
 26 lines in following concentration table = NCONC+1
    Conc.  %SD /Cr+PCr  Metabolite                                         
 4.74E-10  57%   5.149 Ala                                                 
 3.95E-09  13%  42.832 Asp                                                 
 6.90E-11 999%   0.749 Cr                                                  
 2.03E-09  24%  22.050 GABA                                                
 1.09E-09  56%  11.812 Glc                                                 
    0.000 999%   0.000 Gln                                                 
    0.000 999%   0.000 Glu                                                 
    0.000 999%   0.000 Glyc                                                
 1.07E-10  71%   1.161 GPC                                                 
    0.000 999%   0.000 GSH                                                 
 6.41E-10  58%   6.954 Ins                                                 
    0.000 999%   0.000 Lac                                                 
    0.000 999%   0.000 NAAG                                                
    0.000 999%   0.000 NAA                                                 
    0.000 999%   0.000 PCh                                                 
 2.31E-11 999%   0.251 PCr                                                 
    0.000 999%   0.000 PE                                                  
 1.73E-10  86%   1.881 Scyllo                                              
    0.000 999%   0.000 Ser                                                 
    0.000 999%   0.000 Tau                                                 
 1.07E-10  71%   1.161 GPC+PCh                                             
    0.000 999%   0.000 NAA+NAAG                                            
 6.41E-10  58%   6.954 Ins+Glyc                                            
 9.21E-11 277%   1.000 Cr+PCr                                              
    0.000 999%   0.000 Glu+Gln                                             
   6 lines in following misc. output table
  FWHM = 0.089 ppm    S/N =   3                                            
  Data shift = 0.369 ppm                                                   
  Ph:-151 deg      43.9 deg/ppm                                            
  alphaB,S = 1.1E+00,   2.2E+01                                            
    9 spline knots.   Ns = 5(1)                                            
  ( 8) 5 infls.   ( 7) 3 extrs.                                            
  363 points on ppm-axis = NY
      4.250000     4.238821     4.227641     4.216462     4.205282     4.194103     4.182923     4.171744     4.160564     4.149385
      4.138206     4.127026     4.115847     4.104667     4.093488     4.082308     4.071129     4.059949     4.048770     4.037591
      4.026411     4.015232     4.004052     3.992873     3.981693     3.970514     3.959334     3.948155     3.936975     3.925796
      3.914617     3.903437     3.892258     3.881078     3.869899     3.858719     3.847540     3.836360     3.825181     3.814002
      3.802822     3.791643     3.780463     3.769284     3.758104     3.746925     3.735745     3.724566     3.713387     3.702207
      3.691028     3.679848     3.668669     3.657489     3.646310     3.635130     3.623951     3.612772     3.601592     3.590413
      3.579233     3.568054     3.556874     3.545695     3.534515     3.523336     3.512156     3.500977     3.489798     3.478618
      3.467439     3.456259     3.445080     3.433900     3.422721     3.411541     3.400362     3.389183     3.378003     3.366824
      3.355644     3.344465     3.333285     3.322106     3.310926     3.299747     3.288568     3.277388     3.266209     3.255029
      3.243850     3.232670     3.221491     3.210311     3.199132     3.187953     3.176773     3.165594     3.154414     3.143235
      3.132055     3.120876     3.109696     3.098517     3.087337     3.076158     3.064979     3.053799     3.042620     3.031440
      3.020261     3.009081     2.997902     2.986722     2.975543     2.964364     2.953184     2.942005     2.930825     2.919646
      2.908466     2.897287     2.886107     2.874928     2.863749     2.852569     2.841390     2.830210     2.819031     2.807851
      2.796672     2.785492     2.774313     2.763134     2.751954     2.740775     2.729595     2.718416     2.707236     2.696057
      2.684877     2.673698     2.662519     2.651339     2.640160     2.628980     2.617801     2.606621     2.595442     2.584262
      2.573083     2.561903     2.550724     2.539545     2.528365     2.517186     2.506006     2.494827     2.483647     2.472468
      2.461288     2.450109     2.438930     2.427750     2.416571     2.405391     2.394212     2.383032     2.371853     2.360673
      2.349494     2.338315     2.327135     2.315956     2.304776     2.293597     2.282417     2.271238     2.260058     2.248879
      2.237700     2.226520     2.215341     2.204161     2.192982     2.181802     2.170623     2.159443     2.148264     2.137084
      2.125905     2.114726     2.103546     2.092367     2.081187     2.070008     2.058828     2.047649     2.036469     2.025290
      2.014111     2.002931     1.991752     1.980572     1.969393     1.958213     1.947034     1.935854     1.924675     1.913496
      1.902316     1.891137     1.879957     1.868778     1.857598     1.846419     1.835239     1.824060     1.812881     1.801701
      1.790522     1.779342     1.768163     1.756983     1.745804     1.734624     1.723445     1.712265     1.701086     1.689907
      1.678727     1.667548     1.656368     1.645189     1.634009     1.622830     1.611650     1.600471     1.589292     1.578112
      1.566933     1.555753     1.544574     1.533394     1.522215     1.511035     1.499856     1.488677     1.477497     1.466318
      1.455138     1.443959     1.432779     1.421600     1.410420     1.399241     1.388062     1.376882     1.365703     1.354523
      1.343344     1.332164     1.320985     1.309805     1.298626     1.287446     1.276267     1.265088     1.253908     1.242729
      1.231549     1.220370     1.209190     1.198011     1.186831     1.175652     1.164473     1.153293     1.142114     1.130934
      1.119755     1.108575     1.097396     1.086216     1.075037     1.063858     1.052678     1.041499     1.030319     1.019140
      1.007960     0.996781     0.985601     0.974422     0.963243     0.952063     0.940884     0.929704     0.918525     0.907345
      0.896166     0.884986     0.873807     0.862628     0.851448     0.840269     0.829089     0.817910     0.806730     0.795551
      0.784371     0.773192     0.762012     0.750833     0.739654     0.728474     0.717295     0.706115     0.694936     0.683756
      0.672577     0.661397     0.650218     0.639039     0.627859     0.616680     0.605500     0.594321     0.583141     0.571962
      0.560782     0.549603     0.538424     0.527244     0.516065     0.504885     0.493706     0.482526     0.471347     0.460167
      0.448988     0.437809     0.426629     0.415450     0.404270     0.393091     0.381911     0.370732     0.359552     0.348373
      0.337193     0.326014     0.314835     0.303655     0.292476     0.281296     0.270117     0.258937     0.247758     0.236578
      0.225399     0.214220     0.203040
 NY phased data points follow
   3.87010E-09  3.76771E-09  3.78109E-09  2.65390E-09  3.28228E-09  2.59242E-09  2.41883E-09  1.41865E-09  2.76420E-09  1.90366E-09
   2.25777E-09  2.28202E-09  2.84749E-09  3.01023E-09  3.86821E-09  3.41444E-09  3.33263E-09  3.69699E-09  4.39979E-09  3.61036E-09
   4.16460E-09  2.97358E-09  4.00249E-09  3.21681E-09  4.51584E-09  3.72624E-09  4.38687E-09  3.62899E-09  3.47975E-09  2.61752E-09
   3.91339E-09  4.87039E-09  6.09074E-09  6.09589E-09  6.50517E-09  5.56193E-09  6.19796E-09  5.34249E-09  5.61902E-09  5.73903E-09
   5.25556E-09  5.16689E-09  6.02193E-09  5.29775E-09  6.01074E-09  4.58703E-09  4.79768E-09  4.47519E-09  4.93523E-09  3.96912E-09
   4.94226E-09  3.79917E-09  4.41712E-09  3.68208E-09  4.02725E-09  2.36081E-09  3.25313E-09  2.42355E-09  2.90592E-09  2.15950E-09
   2.47088E-09  2.61263E-09  4.76858E-09  5.10083E-09  6.26687E-09  6.34620E-09  5.97150E-09  5.44284E-09  5.38905E-09  4.95511E-09
   5.49257E-09  4.45098E-09  4.33438E-09  3.27879E-09  3.16797E-09  1.33911E-09  1.07867E-09  1.48723E-09  3.98623E-09  5.53501E-09
   7.69734E-09  7.65547E-09  8.40135E-09  8.13894E-09  8.31279E-09  8.22936E-09  8.77435E-09  7.69465E-09  8.80750E-09  8.01474E-09
   9.02603E-09  8.03868E-09  9.10669E-09  7.96338E-09  8.71191E-09  7.71732E-09  7.79235E-09  7.04211E-09  6.96533E-09  6.91180E-09
   6.70911E-09  6.42585E-09  6.95722E-09  6.43409E-09  6.59904E-09  6.59573E-09  6.76763E-09  6.27903E-09  6.12259E-09  5.04019E-09
   5.26503E-09  5.05197E-09  5.18757E-09  5.34120E-09  4.86476E-09  4.98673E-09  5.20354E-09  4.46271E-09  4.94602E-09  4.69065E-09
   5.34866E-09  4.74749E-09  5.15245E-09  4.18469E-09  4.02830E-09  3.59502E-09  3.65943E-09  3.15094E-09  3.98045E-09  3.73974E-09
   4.20486E-09  3.62934E-09  4.47831E-09  4.35057E-09  4.71164E-09  3.45839E-09  4.38456E-09  3.78969E-09  4.65660E-09  5.53247E-09
   6.20750E-09  5.32162E-09  5.93452E-09  5.75587E-09  6.78987E-09  6.87079E-09  7.29930E-09  6.94963E-09  7.97069E-09  7.36687E-09
   8.30610E-09  7.92137E-09  7.90839E-09  7.60083E-09  7.96093E-09  7.81873E-09  8.41616E-09  7.34802E-09  8.54433E-09  7.70187E-09
   8.60753E-09  8.28940E-09  8.27218E-09  7.77579E-09  8.35632E-09  8.63912E-09  7.76604E-09  6.62919E-09  7.20830E-09  9.85442E-09
   1.40376E-08  1.55057E-08  1.71188E-08  1.69346E-08  1.73457E-08  1.74268E-08  1.72365E-08  1.67547E-08  1.63109E-08  1.46810E-08
   1.40841E-08  1.24525E-08  1.11653E-08  9.12145E-09  6.84450E-09  4.12262E-09  2.05972E-09 -7.14102E-10 -2.55820E-09 -5.33952E-09
  -6.83627E-09 -9.10997E-09 -9.52090E-09 -1.06868E-08 -1.02427E-08 -1.08808E-08 -9.67183E-09 -9.69468E-09 -7.62121E-09 -7.46721E-09
  -5.57742E-09 -4.71368E-09 -3.85400E-09 -3.46062E-09 -2.41089E-09 -2.91025E-09 -2.13308E-09 -2.59927E-09 -2.19368E-09 -2.43965E-09
  -2.47300E-09 -2.64370E-09 -1.82636E-09 -2.26464E-09 -1.28530E-09 -1.84522E-09 -1.73755E-09 -2.16637E-09 -1.80521E-09 -2.21147E-09
  -1.74638E-09 -2.09008E-09 -1.71414E-09 -1.62693E-09 -1.04180E-09 -1.77414E-09 -1.32441E-09 -2.30621E-09 -1.44466E-09 -1.78440E-09
  -1.92360E-09 -2.56581E-09 -1.84464E-09 -2.25856E-09 -2.03791E-09 -2.08447E-09 -1.54217E-09 -2.32871E-09 -1.80703E-09 -2.34786E-09
  -2.08562E-09 -2.41746E-09 -1.97057E-09 -2.86242E-09 -2.11588E-09 -2.49880E-09 -2.40700E-09 -2.80683E-09 -2.39608E-09 -2.65882E-09
  -1.81207E-09 -2.50286E-09 -1.82570E-09 -2.66340E-09 -1.98482E-09 -2.54067E-09 -2.42099E-09 -2.36656E-09 -1.84374E-09 -2.61010E-09
  -1.75921E-09 -3.01900E-09 -2.41320E-09 -3.07299E-09 -2.49787E-09 -3.51963E-09 -2.70301E-09 -3.40904E-09 -2.73165E-09 -3.01028E-09
  -2.19984E-09 -2.32123E-09 -1.74839E-09 -2.26601E-09 -1.66402E-09 -1.32899E-09 -9.77458E-10 -1.75541E-09 -1.28845E-09 -1.71183E-09
  -1.92024E-09 -1.59414E-09 -1.75374E-09 -2.04259E-09 -1.76841E-09 -2.41966E-09 -1.82237E-09 -2.88079E-09 -2.06188E-09 -2.56581E-09
  -2.08785E-09 -3.00585E-09 -2.83187E-09 -2.68729E-09 -2.38038E-09 -2.51379E-09 -2.17572E-09 -2.90465E-09 -2.71506E-09 -3.10527E-09
  -2.31821E-09 -2.90340E-09 -2.92922E-09 -3.12698E-09 -2.68414E-09 -2.55103E-09 -2.62657E-09 -2.98833E-09 -3.19521E-09 -3.34878E-09
  -3.16742E-09 -2.57795E-09 -2.92685E-09 -3.58520E-09 -2.99949E-09 -2.93610E-09 -3.21644E-09 -3.48479E-09 -3.23080E-09 -3.70379E-09
  -3.32873E-09 -3.57640E-09 -2.90918E-09 -3.48532E-09 -3.41294E-09 -3.90570E-09 -3.47019E-09 -3.47700E-09 -2.98587E-09 -3.45724E-09
  -3.35794E-09 -4.01259E-09 -3.53346E-09 -3.79204E-09 -3.09143E-09 -3.30569E-09 -4.04217E-09 -4.08105E-09 -3.98598E-09 -3.86906E-09
  -3.28696E-09 -3.88418E-09 -4.00710E-09 -3.71595E-09 -3.72612E-09 -4.10813E-09 -3.92744E-09 -3.91456E-09 -4.15910E-09 -4.62026E-09
  -4.03296E-09 -4.13548E-09 -4.01235E-09 -4.40472E-09 -4.06644E-09 -4.19559E-09 -3.85736E-09 -4.54962E-09 -3.94610E-09 -4.06300E-09
  -4.34025E-09 -4.07910E-09 -3.80327E-09
 NY points of the fit to the data follow
   4.11021E-09  2.95604E-09  2.34466E-09  2.26918E-09  2.15493E-09  1.82227E-09  1.71264E-09  1.55624E-09  1.99046E-09  2.50178E-09
   2.90623E-09  3.39116E-09  3.85850E-09  4.03586E-09  3.89180E-09  3.86635E-09  4.20545E-09  4.12357E-09  3.56482E-09  3.53686E-09
   3.82633E-09  3.97066E-09  3.86126E-09  3.67590E-09  3.48630E-09  3.55895E-09  3.76582E-09  3.54265E-09  3.32779E-09  4.06498E-09
   4.67316E-09  5.08130E-09  5.27874E-09  5.01874E-09  4.77358E-09  5.47347E-09  5.96877E-09  6.12832E-09  6.05569E-09  5.71465E-09
   5.31023E-09  5.13906E-09  4.58792E-09  4.03067E-09  4.58933E-09  5.48439E-09  5.36123E-09  5.26300E-09  5.51056E-09  5.86908E-09
   6.25517E-09  6.54759E-09  6.48923E-09  5.74120E-09  4.44476E-09  3.39088E-09  2.47114E-09  3.45971E-09  4.15044E-09  4.00080E-09
   3.85271E-09  4.42899E-09  4.89167E-09  5.30117E-09  6.09107E-09  6.61732E-09  6.44171E-09  6.40705E-09  6.52149E-09  6.50336E-09
   6.25976E-09  5.74483E-09  5.07859E-09  4.63569E-09  4.65436E-09  3.89445E-09  3.15506E-09  3.80719E-09  4.13020E-09  4.08214E-09
   4.44430E-09  4.82513E-09  5.22137E-09  5.71342E-09  6.09464E-09  6.39960E-09  6.77224E-09  7.08017E-09  7.30709E-09  7.45902E-09
   7.37993E-09  7.30453E-09  7.44584E-09  7.12357E-09  6.49543E-09  6.59204E-09  6.54748E-09  6.02293E-09  6.00143E-09  6.20150E-09
   6.24846E-09  6.34414E-09  6.55130E-09  6.75652E-09  6.88155E-09  6.96426E-09  7.01922E-09  7.01288E-09  6.85051E-09  6.46575E-09
   5.97306E-09  5.78874E-09  5.75716E-09  5.30238E-09  4.98479E-09  5.00707E-09  5.06422E-09  5.11893E-09  5.16585E-09  5.20479E-09
   5.23630E-09  5.26139E-09  5.28077E-09  5.29501E-09  5.30463E-09  5.31007E-09  5.31166E-09  5.30971E-09  5.30453E-09  5.29634E-09
   5.28533E-09  5.27170E-09  5.25561E-09  5.23726E-09  5.21675E-09  5.19427E-09  5.16993E-09  5.14387E-09  5.11623E-09  5.08713E-09
   5.05674E-09  5.02520E-09  4.99266E-09  4.95932E-09  4.92525E-09  4.89069E-09  4.85587E-09  4.82103E-09  4.78640E-09  4.75232E-09
   4.71914E-09  4.68721E-09  4.65707E-09  4.62935E-09  4.60472E-09  4.58413E-09  4.56879E-09  4.56021E-09  4.56046E-09  4.57243E-09
   4.60015E-09  4.64981E-09  4.73109E-09  4.86070E-09  5.07078E-09  5.43592E-09  6.19377E-09  7.97261E-09  1.03253E-08  1.25663E-08
   1.47390E-08  1.64559E-08  1.73826E-08  1.76949E-08  1.80682E-08  1.87954E-08  1.86903E-08  1.52577E-08  7.88646E-09  2.56323E-09
   1.50886E-09  1.19624E-09  1.06305E-09  9.87234E-10  9.31866E-10  8.83531E-10  8.36822E-10  7.89463E-10  7.40546E-10  6.89762E-10
   6.37066E-10  5.82582E-10  5.26445E-10  4.68850E-10  4.09956E-10  3.49918E-10  2.88916E-10  2.27080E-10  1.64532E-10  1.01407E-10
   3.78031E-11 -2.61949E-11 -9.04853E-11 -1.54982E-10 -2.19625E-10 -2.84340E-10 -3.49069E-10 -4.13729E-10 -4.78299E-10 -5.42722E-10
  -6.06948E-10 -6.70921E-10 -7.34612E-10 -7.97973E-10 -8.60997E-10 -9.23624E-10 -9.85817E-10 -1.04756E-09 -1.10883E-09 -1.16958E-09
  -1.22979E-09 -1.28943E-09 -1.34849E-09 -1.40694E-09 -1.46478E-09 -1.52194E-09 -1.57844E-09 -1.63426E-09 -1.68934E-09 -1.74371E-09
  -1.79733E-09 -1.85019E-09 -1.90226E-09 -1.95356E-09 -2.00403E-09 -2.05369E-09 -2.10251E-09 -2.15049E-09 -2.19761E-09 -2.24384E-09
  -2.28920E-09 -2.33366E-09 -2.37721E-09 -2.41986E-09 -2.46162E-09 -2.50248E-09 -2.54246E-09 -2.58157E-09 -2.61982E-09 -2.65722E-09
  -2.69376E-09 -2.72948E-09 -2.76436E-09 -2.79843E-09 -2.83169E-09 -2.86414E-09 -2.89581E-09 -2.92670E-09 -2.95682E-09 -2.98617E-09
  -3.01477E-09 -3.04263E-09 -3.06976E-09 -3.09616E-09 -3.12185E-09 -3.14683E-09 -3.17111E-09 -3.19471E-09 -3.21762E-09 -3.23987E-09
  -3.26145E-09 -3.28238E-09 -3.30267E-09 -3.32232E-09 -3.34133E-09 -3.35973E-09 -3.37752E-09 -3.39469E-09 -3.41127E-09 -3.42725E-09
  -3.44265E-09 -3.45747E-09 -3.47172E-09 -3.48540E-09 -3.49851E-09 -3.51107E-09 -3.52307E-09 -3.53453E-09 -3.54545E-09 -3.55583E-09
  -3.56567E-09 -3.57498E-09 -3.58376E-09 -3.59202E-09 -3.59975E-09 -3.60696E-09 -3.61365E-09 -3.61982E-09 -3.62547E-09 -3.63061E-09
  -3.63523E-09 -3.63933E-09 -3.64291E-09 -3.64596E-09 -3.64847E-09 -3.65041E-09 -3.65177E-09 -3.65251E-09 -3.65263E-09 -3.65211E-09
  -3.65091E-09 -3.64904E-09 -3.64646E-09 -3.64316E-09 -3.63912E-09 -3.63433E-09 -3.62876E-09 -3.62240E-09 -3.61522E-09 -3.60723E-09
  -3.59839E-09 -3.58869E-09 -3.57812E-09 -3.56665E-09 -3.55429E-09 -3.54100E-09 -3.52678E-09 -3.51161E-09 -3.49548E-09 -3.47837E-09
  -3.46027E-09 -3.44118E-09 -3.42106E-09 -3.39992E-09 -3.37775E-09 -3.35452E-09 -3.33024E-09 -3.30488E-09 -3.27844E-09 -3.25091E-09
  -3.22228E-09 -3.19254E-09 -3.16168E-09 -3.12970E-09 -3.09658E-09 -3.06232E-09 -3.02691E-09 -2.99034E-09 -2.95261E-09 -2.91372E-09
  -2.87365E-09 -2.83240E-09 -2.78997E-09 -2.74636E-09 -2.70155E-09 -2.65556E-09 -2.60836E-09 -2.55997E-09 -2.51038E-09 -2.45958E-09
  -2.40759E-09 -2.35439E-09 -2.29998E-09
 NY background values follow
    -7.201E-10   -5.693E-10   -4.198E-10   -2.719E-10   -1.253E-10    1.981E-11    1.635E-10    3.057E-10    4.464E-10    5.856E-10
     7.234E-10    8.597E-10    9.944E-10    1.128E-09    1.259E-09    1.390E-09    1.518E-09    1.645E-09    1.771E-09    1.895E-09
     2.017E-09    2.138E-09    2.258E-09    2.375E-09    2.491E-09    2.606E-09    2.719E-09    2.830E-09    2.940E-09    3.048E-09
     3.155E-09    3.259E-09    3.363E-09    3.464E-09    3.564E-09    3.663E-09    3.759E-09    3.854E-09    3.948E-09    4.040E-09
     4.130E-09    4.218E-09    4.305E-09    4.390E-09    4.473E-09    4.555E-09    4.635E-09    4.714E-09    4.791E-09    4.866E-09
     4.939E-09    5.011E-09    5.081E-09    5.150E-09    5.217E-09    5.282E-09    5.345E-09    5.407E-09    5.467E-09    5.526E-09
     5.583E-09    5.638E-09    5.691E-09    5.743E-09    5.793E-09    5.842E-09    5.889E-09    5.934E-09    5.977E-09    6.019E-09
     6.060E-09    6.098E-09    6.135E-09    6.170E-09    6.204E-09    6.236E-09    6.266E-09    6.294E-09    6.321E-09    6.346E-09
     6.370E-09    6.392E-09    6.412E-09    6.430E-09    6.447E-09    6.462E-09    6.475E-09    6.487E-09    6.497E-09    6.506E-09
     6.512E-09    6.517E-09    6.521E-09    6.522E-09    6.522E-09    6.521E-09    6.517E-09    6.512E-09    6.505E-09    6.497E-09
     6.487E-09    6.475E-09    6.462E-09    6.446E-09    6.430E-09    6.411E-09    6.391E-09    6.369E-09    6.346E-09    6.320E-09
     6.293E-09    6.265E-09    6.235E-09    6.203E-09    6.169E-09    6.134E-09    6.097E-09    6.058E-09    6.018E-09    5.976E-09
     5.933E-09    5.888E-09    5.841E-09    5.792E-09    5.742E-09    5.691E-09    5.637E-09    5.583E-09    5.526E-09    5.469E-09
     5.409E-09    5.349E-09    5.287E-09    5.223E-09    5.158E-09    5.092E-09    5.025E-09    4.956E-09    4.886E-09    4.815E-09
     4.742E-09    4.669E-09    4.594E-09    4.518E-09    4.441E-09    4.363E-09    4.284E-09    4.204E-09    4.123E-09    4.041E-09
     3.959E-09    3.875E-09    3.791E-09    3.705E-09    3.619E-09    3.533E-09    3.445E-09    3.357E-09    3.269E-09    3.179E-09
     3.089E-09    2.999E-09    2.908E-09    2.817E-09    2.725E-09    2.633E-09    2.541E-09    2.448E-09    2.355E-09    2.262E-09
     2.168E-09    2.074E-09    1.981E-09    1.887E-09    1.793E-09    1.699E-09    1.605E-09    1.511E-09    1.417E-09    1.324E-09
     1.230E-09    1.137E-09    1.043E-09    9.506E-10    8.580E-10    7.656E-10    6.736E-10    5.819E-10    4.905E-10    3.996E-10
     3.089E-10    2.188E-10    1.290E-10    3.966E-11   -4.919E-11   -1.376E-10   -2.255E-10   -3.128E-10   -3.996E-10   -4.859E-10
    -5.716E-10   -6.567E-10   -7.412E-10   -8.250E-10   -9.082E-10   -9.908E-10   -1.073E-09   -1.154E-09   -1.234E-09   -1.314E-09
    -1.393E-09   -1.471E-09   -1.549E-09   -1.626E-09   -1.702E-09   -1.777E-09   -1.851E-09   -1.925E-09   -1.997E-09   -2.069E-09
    -2.140E-09   -2.210E-09   -2.279E-09   -2.347E-09   -2.414E-09   -2.480E-09   -2.546E-09   -2.610E-09   -2.674E-09   -2.736E-09
    -2.797E-09   -2.858E-09   -2.917E-09   -2.976E-09   -3.033E-09   -3.089E-09   -3.144E-09   -3.199E-09   -3.252E-09   -3.304E-09
    -3.355E-09   -3.405E-09   -3.454E-09   -3.501E-09   -3.548E-09   -3.593E-09   -3.638E-09   -3.681E-09   -3.724E-09   -3.765E-09
    -3.806E-09   -3.845E-09   -3.883E-09   -3.921E-09   -3.957E-09   -3.993E-09   -4.027E-09   -4.061E-09   -4.094E-09   -4.126E-09
    -4.157E-09   -4.187E-09   -4.216E-09   -4.244E-09   -4.272E-09   -4.298E-09   -4.324E-09   -4.349E-09   -4.373E-09   -4.396E-09
    -4.419E-09   -4.441E-09   -4.462E-09   -4.482E-09   -4.502E-09   -4.520E-09   -4.538E-09   -4.556E-09   -4.572E-09   -4.588E-09
    -4.603E-09   -4.618E-09   -4.632E-09   -4.645E-09   -4.657E-09   -4.669E-09   -4.680E-09   -4.691E-09   -4.700E-09   -4.710E-09
    -4.718E-09   -4.726E-09   -4.733E-09   -4.740E-09   -4.746E-09   -4.752E-09   -4.756E-09   -4.761E-09   -4.764E-09   -4.767E-09
    -4.769E-09   -4.771E-09   -4.772E-09   -4.773E-09   -4.773E-09   -4.772E-09   -4.771E-09   -4.768E-09   -4.766E-09   -4.762E-09
    -4.758E-09   -4.753E-09   -4.747E-09   -4.740E-09   -4.732E-09   -4.724E-09   -4.715E-09   -4.705E-09   -4.694E-09   -4.682E-09
    -4.669E-09   -4.656E-09   -4.641E-09   -4.625E-09   -4.609E-09   -4.591E-09   -4.573E-09   -4.553E-09   -4.532E-09   -4.511E-09
    -4.488E-09   -4.464E-09   -4.439E-09   -4.413E-09   -4.386E-09   -4.358E-09   -4.329E-09   -4.298E-09   -4.267E-09   -4.234E-09
    -4.200E-09   -4.165E-09   -4.129E-09   -4.091E-09   -4.053E-09   -4.013E-09   -3.972E-09   -3.930E-09   -3.886E-09   -3.841E-09
    -3.796E-09   -3.748E-09   -3.700E-09   -3.650E-09   -3.600E-09   -3.548E-09   -3.494E-09   -3.440E-09   -3.384E-09   -3.327E-09
    -3.269E-09   -3.209E-09   -3.148E-09
 Ala      Conc. = 4.74E-10
  -4.40289E-10 -3.24592E-10 -2.10179E-10 -1.02633E-10  7.68909E-12  1.13675E-10  1.61273E-10  2.47126E-10  4.40123E-10  5.10695E-10
   5.53515E-10  7.46140E-10  8.96427E-10  1.00388E-09  1.15110E-09  1.30132E-09  1.44800E-09  1.59073E-09  1.72983E-09  1.86568E-09
   1.99858E-09  2.12880E-09  2.25651E-09  2.38188E-09  2.50502E-09  2.62603E-09  2.74497E-09  2.86191E-09  2.97691E-09  3.09000E-09
   3.20122E-09  3.31059E-09  3.41813E-09  3.52389E-09  3.62786E-09  3.73005E-09  3.83050E-09  3.92920E-09  4.02617E-09  4.12142E-09
   4.21494E-09  4.30675E-09  4.39686E-09  4.48529E-09  4.57201E-09  4.65707E-09  4.74043E-09  4.82212E-09  4.90215E-09  4.98052E-09
   5.05724E-09  5.13228E-09  5.20570E-09  5.27749E-09  5.34762E-09  5.41613E-09  5.48302E-09  5.54832E-09  5.61199E-09  5.67411E-09
   5.73462E-09  5.79355E-09  5.85092E-09  5.90674E-09  5.96100E-09  6.01373E-09  6.06492E-09  6.11461E-09  6.16279E-09  6.20947E-09
   6.25470E-09  6.29846E-09  6.34080E-09  6.38172E-09  6.42126E-09  6.45946E-09  6.49631E-09  6.53191E-09  6.56625E-09  6.59942E-09
   6.63145E-09  6.66243E-09  6.69243E-09  6.72157E-09  6.74995E-09  6.77770E-09  6.80503E-09  6.83211E-09  6.85923E-09  6.88674E-09
   6.91504E-09  6.94475E-09  6.97662E-09  7.01172E-09  7.05161E-09  7.09863E-09  7.15657E-09  7.23208E-09  7.33869E-09  7.50740E-09
   7.68182E-09  7.81117E-09  7.98514E-09  8.13447E-09  8.19523E-09  8.21133E-09  8.19998E-09  8.12839E-09  7.90214E-09  7.45498E-09
   6.90149E-09  6.65874E-09  6.57078E-09  6.06144E-09  5.69095E-09  5.66167E-09  5.66841E-09  5.67419E-09  5.67352E-09  5.66610E-09
   5.65240E-09  5.63329E-09  5.60937E-09  5.58122E-09  5.54927E-09  5.51391E-09  5.47540E-09  5.43402E-09  5.38999E-09  5.34347E-09
   5.29461E-09  5.24357E-09  5.19043E-09  5.13532E-09  5.07832E-09  5.01953E-09  4.95901E-09  4.89684E-09  4.83311E-09  4.76785E-09
   4.70114E-09  4.63304E-09  4.56359E-09  4.49290E-09  4.42094E-09  4.34780E-09  4.27355E-09  4.19826E-09  4.12193E-09  4.04467E-09
   3.96653E-09  3.88754E-09  3.80780E-09  3.72740E-09  3.64638E-09  3.56484E-09  3.48295E-09  3.40079E-09  3.31854E-09  3.23648E-09
   3.15486E-09  3.07422E-09  2.99530E-09  2.91948E-09  2.84958E-09  2.79305E-09  2.77877E-09  2.82813E-09  2.86583E-09  2.90337E-09
   2.92673E-09  2.90688E-09  2.84346E-09  2.76618E-09  2.71703E-09  2.66346E-09  2.47887E-09  2.02889E-09  1.50284E-09  1.33403E-09
   1.22451E-09  1.12822E-09  1.03612E-09  9.45642E-10  8.55858E-10  7.66449E-10  6.77288E-10  5.88326E-10  4.99570E-10  4.11040E-10
   3.22746E-10  2.34737E-10  1.47022E-10  5.96542E-11 -2.73562E-11 -1.13991E-10 -2.00200E-10 -2.85967E-10 -3.71277E-10 -4.56091E-10
  -5.40392E-10 -6.24173E-10 -7.07400E-10 -7.90044E-10 -8.72101E-10 -9.53545E-10 -1.03436E-09 -1.11451E-09 -1.19400E-09 -1.27281E-09
  -1.35091E-09 -1.42829E-09 -1.50492E-09 -1.58080E-09 -1.65593E-09 -1.73027E-09 -1.80380E-09 -1.87652E-09 -1.94842E-09 -2.01947E-09
  -2.08966E-09 -2.15897E-09 -2.22741E-09 -2.29496E-09 -2.36161E-09 -2.42730E-09 -2.49209E-09 -2.55594E-09 -2.61882E-09 -2.68073E-09
  -2.74167E-09 -2.80161E-09 -2.86056E-09 -2.91850E-09 -2.97543E-09 -3.03132E-09 -3.08618E-09 -3.14000E-09 -3.19277E-09 -3.24447E-09
  -3.29510E-09 -3.34466E-09 -3.39314E-09 -3.44053E-09 -3.48686E-09 -3.53213E-09 -3.57635E-09 -3.61954E-09 -3.66171E-09 -3.70287E-09
  -3.74302E-09 -3.78219E-09 -3.82038E-09 -3.85760E-09 -3.89387E-09 -3.92919E-09 -3.96358E-09 -3.99706E-09 -4.02962E-09 -4.06128E-09
  -4.09206E-09 -4.12196E-09 -4.15100E-09 -4.17919E-09 -4.20653E-09 -4.23304E-09 -4.25872E-09 -4.28360E-09 -4.30767E-09 -4.33095E-09
  -4.35346E-09 -4.37519E-09 -4.39616E-09 -4.41637E-09 -4.43584E-09 -4.45458E-09 -4.47259E-09 -4.48989E-09 -4.50648E-09 -4.52236E-09
  -4.53755E-09 -4.55206E-09 -4.56589E-09 -4.57904E-09 -4.59153E-09 -4.60337E-09 -4.61454E-09 -4.62507E-09 -4.63497E-09 -4.64422E-09
  -4.65284E-09 -4.66083E-09 -4.66820E-09 -4.67496E-09 -4.68109E-09 -4.68661E-09 -4.69152E-09 -4.69582E-09 -4.69951E-09 -4.70260E-09
  -4.70508E-09 -4.70696E-09 -4.70823E-09 -4.70888E-09 -4.70891E-09 -4.70829E-09 -4.70700E-09 -4.70502E-09 -4.70233E-09 -4.69891E-09
  -4.69476E-09 -4.68983E-09 -4.68413E-09 -4.67763E-09 -4.67032E-09 -4.66217E-09 -4.65317E-09 -4.64331E-09 -4.63256E-09 -4.62092E-09
  -4.60837E-09 -4.59488E-09 -4.58045E-09 -4.56506E-09 -4.54871E-09 -4.53136E-09 -4.51300E-09 -4.49364E-09 -4.47325E-09 -4.45182E-09
  -4.42933E-09 -4.40579E-09 -4.38116E-09 -4.35544E-09 -4.32864E-09 -4.30071E-09 -4.27167E-09 -4.24150E-09 -4.21019E-09 -4.17773E-09
  -4.14412E-09 -4.10934E-09 -4.07339E-09 -4.03625E-09 -3.99793E-09 -3.95842E-09 -3.91770E-09 -3.87577E-09 -3.83264E-09 -3.78829E-09
  -3.74271E-09 -3.69591E-09 -3.64788E-09 -3.59861E-09 -3.54811E-09 -3.49637E-09 -3.44339E-09 -3.38917E-09 -3.33371E-09 -3.27700E-09
  -3.21904E-09 -3.15984E-09 -3.09940E-09
 Asp      Conc. = 3.95E-09
  -3.09428E-10 -1.15131E-09 -1.61838E-09 -1.65423E-09 -1.75466E-09 -1.91514E-09 -1.83428E-09 -1.87694E-09 -1.30071E-09 -7.79004E-10
  -3.40397E-10  3.97969E-11  3.81059E-10  6.94635E-10  9.81442E-10  1.24320E-09  1.49135E-09  1.72893E-09  1.95802E-09  2.18028E-09
   2.39712E-09  2.60974E-09  2.81919E-09  3.02646E-09  3.23249E-09  3.43819E-09  3.64452E-09  3.85252E-09  4.06334E-09  4.27830E-09
   4.49901E-09  4.72743E-09  4.96610E-09  5.21842E-09  5.48904E-09  5.78462E-09  6.11273E-09  6.44120E-09  6.74749E-09  6.99367E-09
   7.18617E-09  7.36906E-09  7.59704E-09  7.96268E-09  8.32351E-09  8.79316E-09  8.86276E-09  8.64882E-09  8.49866E-09  8.48386E-09
   8.53768E-09  8.53154E-09  8.19967E-09  7.19539E-09  5.65407E-09  4.36187E-09  3.20476E-09  3.95102E-09  4.38750E-09  3.96172E-09
   3.50260E-09  3.71287E-09  3.75364E-09  3.85715E-09  4.31391E-09  4.44261E-09  4.14684E-09  4.10346E-09  4.21370E-09  4.34987E-09
   4.48650E-09  4.61705E-09  4.73986E-09  4.85475E-09  4.96209E-09  5.06237E-09  5.15608E-09  5.24377E-09  5.32583E-09  5.40270E-09
   5.47470E-09  5.54214E-09  5.60530E-09  5.66444E-09  5.71976E-09  5.77141E-09  5.81961E-09  5.86448E-09  5.90614E-09  5.94474E-09
   5.98036E-09  6.01313E-09  6.04310E-09  6.07036E-09  6.09498E-09  6.11704E-09  6.13658E-09  6.15365E-09  6.16832E-09  6.18064E-09
   6.19063E-09  6.19833E-09  6.20380E-09  6.20705E-09  6.20813E-09  6.20705E-09  6.20384E-09  6.19856E-09  6.19122E-09  6.18181E-09
   6.17041E-09  6.15697E-09  6.14157E-09  6.12418E-09  6.10487E-09  6.08362E-09  6.06048E-09  6.03545E-09  6.00854E-09  5.97984E-09
   5.94919E-09  5.91676E-09  5.88253E-09  5.84653E-09  5.80881E-09  5.76939E-09  5.72829E-09  5.68558E-09  5.64129E-09  5.59544E-09
   5.54809E-09  5.49928E-09  5.44903E-09  5.39740E-09  5.34444E-09  5.29019E-09  5.23469E-09  5.17800E-09  5.12019E-09  5.06129E-09
   5.00138E-09  4.94052E-09  4.87876E-09  4.81623E-09  4.75294E-09  4.68901E-09  4.62454E-09  4.55966E-09  4.49445E-09  4.42909E-09
   4.36375E-09  4.29856E-09  4.23380E-09  4.16975E-09  4.10667E-09  4.04499E-09  3.98527E-09  3.92812E-09  3.87441E-09  3.82537E-09
   3.78261E-09  3.74866E-09  3.72727E-09  3.72479E-09  3.75273E-09  3.83548E-09  4.03834E-09  4.61295E-09  5.66878E-09  6.64444E-09
   7.61806E-09  8.46435E-09  8.95782E-09  9.10417E-09  9.15640E-09  9.42801E-09  9.61873E-09  8.67546E-09  5.59583E-09  2.12776E-09
   1.40669E-09  1.16436E-09  1.03369E-09  9.38598E-10  8.56661E-10  7.79810E-10  7.04774E-10  6.30141E-10  5.55316E-10  4.80061E-10
   4.04297E-10  3.28063E-10  2.51397E-10  1.74394E-10  9.71170E-11  1.96338E-11 -5.79578E-11 -1.35597E-10 -2.13226E-10 -2.90769E-10
  -3.68176E-10 -4.45410E-10 -5.22407E-10 -5.99117E-10 -6.75515E-10 -7.51554E-10 -8.27204E-10 -9.02401E-10 -9.77149E-10 -1.05141E-09
  -1.12515E-09 -1.19833E-09 -1.27093E-09 -1.34293E-09 -1.41432E-09 -1.48505E-09 -1.55511E-09 -1.62448E-09 -1.69315E-09 -1.76109E-09
  -1.82826E-09 -1.89467E-09 -1.96030E-09 -2.02513E-09 -2.08916E-09 -2.15233E-09 -2.21467E-09 -2.27615E-09 -2.33674E-09 -2.39645E-09
  -2.45525E-09 -2.51314E-09 -2.57009E-09 -2.62612E-09 -2.68118E-09 -2.73528E-09 -2.78841E-09 -2.84056E-09 -2.89172E-09 -2.94187E-09
