 LCModel (Version 6.3-1R) Copyright: S.W. Provencher.          Ref.: Magn. Reson. Med. 30:672-679 (1993).                
 onepulse 25x7_ftSpec_smooth_lcm
 26 lines in following concentration table = NCONC+1
    Conc.  %SD /Cr+PCr  Metabolite                                         
    0.000 999%   0.000 Ala                                                 
 1.34E-10 414%   0.428 Asp                                                 
    0.000 999%   0.000 Cr                                                  
 6.32E-10  79%   2.015 GABA                                                
    0.000 999%   0.000 Glc                                                 
 1.46E-09  43%   4.643 Gln                                                 
    0.000 999%   0.000 Glu                                                 
    0.000 999%   0.000 Glyc                                                
    0.000 999%   0.000 GPC                                                 
 2.72E-10 134%   0.866 GSH                                                 
 1.49E-09  19%   4.752 Ins                                                 
    0.000 999%   0.000 Lac                                                 
    0.000 999%   0.000 NAAG                                                
 7.13E-10  34%   2.273 NAA                                                 
    0.000 999%   0.000 PCh                                                 
 3.13E-10  92%   1.000 PCr                                                 
 1.11E-09  57%   3.532 PE                                                  
    0.000 999%   0.000 Scyllo                                              
 2.11E-09  26%   6.717 Ser                                                 
 9.10E-10  45%   2.903 Tau                                                 
    0.000 999%   0.000 GPC+PCh                                             
 7.13E-10  34%   2.273 NAA+NAAG                                            
 1.49E-09  19%   4.752 Ins+Glyc                                            
 3.13E-10  92%   1.000 Cr+PCr                                              
 1.46E-09  43%   4.643 Glu+Gln                                             
   6 lines in following misc. output table
  FWHM = 0.112 ppm    S/N =   3                                            
  Data shift = 0.391 ppm                                                   
  Ph:  18 deg     -29.2 deg/ppm                                            
  alphaB,S = 2.0E-01,   2.6E+01                                            
   12 spline knots.   Ns = 5(1)                                            
  ( 9) 4 infls.   ( 7) 3 extrs.                                            
  363 points on ppm-axis = NY
      4.250000     4.238821     4.227641     4.216462     4.205282     4.194103     4.182923     4.171744     4.160564     4.149385
      4.138206     4.127026     4.115847     4.104667     4.093488     4.082308     4.071129     4.059949     4.048770     4.037591
      4.026411     4.015232     4.004052     3.992873     3.981693     3.970514     3.959334     3.948155     3.936975     3.925796
      3.914617     3.903437     3.892258     3.881078     3.869899     3.858719     3.847540     3.836360     3.825181     3.814002
      3.802822     3.791643     3.780463     3.769284     3.758104     3.746925     3.735745     3.724566     3.713387     3.702207
      3.691028     3.679848     3.668669     3.657489     3.646310     3.635130     3.623951     3.612772     3.601592     3.590413
      3.579233     3.568054     3.556874     3.545695     3.534515     3.523336     3.512156     3.500977     3.489798     3.478618
      3.467439     3.456259     3.445080     3.433900     3.422721     3.411541     3.400362     3.389183     3.378003     3.366824
      3.355644     3.344465     3.333285     3.322106     3.310926     3.299747     3.288568     3.277388     3.266209     3.255029
      3.243850     3.232670     3.221491     3.210311     3.199132     3.187953     3.176773     3.165594     3.154414     3.143235
      3.132055     3.120876     3.109696     3.098517     3.087337     3.076158     3.064979     3.053799     3.042620     3.031440
      3.020261     3.009081     2.997902     2.986722     2.975543     2.964364     2.953184     2.942005     2.930825     2.919646
      2.908466     2.897287     2.886107     2.874928     2.863749     2.852569     2.841390     2.830210     2.819031     2.807851
      2.796672     2.785492     2.774313     2.763134     2.751954     2.740775     2.729595     2.718416     2.707236     2.696057
      2.684877     2.673698     2.662519     2.651339     2.640160     2.628980     2.617801     2.606621     2.595442     2.584262
      2.573083     2.561903     2.550724     2.539545     2.528365     2.517186     2.506006     2.494827     2.483647     2.472468
      2.461288     2.450109     2.438930     2.427750     2.416571     2.405391     2.394212     2.383032     2.371853     2.360673
      2.349494     2.338315     2.327135     2.315956     2.304776     2.293597     2.282417     2.271238     2.260058     2.248879
      2.237700     2.226520     2.215341     2.204161     2.192982     2.181802     2.170623     2.159443     2.148264     2.137084
      2.125905     2.114726     2.103546     2.092367     2.081187     2.070008     2.058828     2.047649     2.036469     2.025290
      2.014111     2.002931     1.991752     1.980572     1.969393     1.958213     1.947034     1.935854     1.924675     1.913496
      1.902316     1.891137     1.879957     1.868778     1.857598     1.846419     1.835239     1.824060     1.812881     1.801701
      1.790522     1.779342     1.768163     1.756983     1.745804     1.734624     1.723445     1.712265     1.701086     1.689907
      1.678727     1.667548     1.656368     1.645189     1.634009     1.622830     1.611650     1.600471     1.589292     1.578112
      1.566933     1.555753     1.544574     1.533394     1.522215     1.511035     1.499856     1.488677     1.477497     1.466318
      1.455138     1.443959     1.432779     1.421600     1.410420     1.399241     1.388062     1.376882     1.365703     1.354523
      1.343344     1.332164     1.320985     1.309805     1.298626     1.287446     1.276267     1.265088     1.253908     1.242729
      1.231549     1.220370     1.209190     1.198011     1.186831     1.175652     1.164473     1.153293     1.142114     1.130934
      1.119755     1.108575     1.097396     1.086216     1.075037     1.063858     1.052678     1.041499     1.030319     1.019140
      1.007960     0.996781     0.985601     0.974422     0.963243     0.952063     0.940884     0.929704     0.918525     0.907345
      0.896166     0.884986     0.873807     0.862628     0.851448     0.840269     0.829089     0.817910     0.806730     0.795551
      0.784371     0.773192     0.762012     0.750833     0.739654     0.728474     0.717295     0.706115     0.694936     0.683756
      0.672577     0.661397     0.650218     0.639039     0.627859     0.616680     0.605500     0.594321     0.583141     0.571962
      0.560782     0.549603     0.538424     0.527244     0.516065     0.504885     0.493706     0.482526     0.471347     0.460167
      0.448988     0.437809     0.426629     0.415450     0.404270     0.393091     0.381911     0.370732     0.359552     0.348373
      0.337193     0.326014     0.314835     0.303655     0.292476     0.281296     0.270117     0.258937     0.247758     0.236578
      0.225399     0.214220     0.203040
 NY phased data points follow
   4.25607E-09  2.17355E-09  3.66957E-09  1.98271E-09  2.84474E-09  6.03540E-10  2.75745E-09  1.05804E-09  2.21401E-09  1.70612E-09
   3.18512E-09  2.42379E-09  4.41172E-09  2.95684E-09  3.89253E-09  3.21429E-09  5.08802E-09  3.33854E-09  4.71104E-09  2.71085E-09
   4.35119E-09  2.86187E-09  5.00427E-09  3.54360E-09  5.10151E-09  3.47491E-09  3.99115E-09  2.22784E-09  4.39666E-09  5.01965E-09
   7.02861E-09  6.58372E-09  7.73845E-09  6.19864E-09  7.33228E-09  5.89081E-09  6.81505E-09  6.16895E-09  6.35611E-09  5.47812E-09
   7.12625E-09  5.54962E-09  7.04061E-09  4.93575E-09  5.67070E-09  4.52329E-09  5.85456E-09  4.12392E-09  5.87872E-09  3.79851E-09
   5.18497E-09  3.75582E-09  4.65561E-09  2.12634E-09  3.57621E-09  2.09721E-09  3.22765E-09  1.64354E-09  2.53170E-09  2.20124E-09
   5.39947E-09  5.40595E-09  7.32420E-09  6.92994E-09  7.05979E-09  5.80624E-09  6.44065E-09  5.45682E-09  6.42610E-09  4.65146E-09
   4.97210E-09  3.07927E-09  3.84651E-09  9.16553E-10  1.02476E-09  4.34105E-10  4.16485E-09  5.79907E-09  8.79635E-09  8.29835E-09
   9.73029E-09  9.13539E-09  9.69635E-09  8.96291E-09  1.03342E-08  8.79149E-09  1.04078E-08  8.92858E-09  1.06511E-08  8.83161E-09
   1.07086E-08  8.93258E-09  1.01325E-08  8.83818E-09  9.13233E-09  7.98801E-09  8.16042E-09  7.55698E-09  8.09370E-09  7.23169E-09
   8.18538E-09  7.06808E-09  7.78045E-09  7.28625E-09  7.96840E-09  7.07345E-09  7.34879E-09  5.67347E-09  6.08019E-09  5.44783E-09
   6.14041E-09  5.64756E-09  5.63955E-09  5.49154E-09  6.30364E-09  4.95157E-09  6.06500E-09  5.30204E-09  6.50357E-09  5.29475E-09
   6.38386E-09  4.77858E-09  5.07054E-09  4.00220E-09  4.51339E-09  3.44226E-09  4.81869E-09  4.13511E-09  4.92561E-09  3.60598E-09
   5.21818E-09  4.61247E-09  5.03824E-09  3.44885E-09  4.73399E-09  3.65558E-09  4.99977E-09  5.59693E-09  6.91998E-09  5.60153E-09
   6.37313E-09  5.98845E-09  7.61786E-09  7.21767E-09  8.06693E-09  7.35295E-09  8.69142E-09  7.54742E-09  8.85704E-09  8.28083E-09
   8.59062E-09  8.02650E-09  8.55047E-09  8.10506E-09  8.94552E-09  7.47066E-09  8.80462E-09  7.68429E-09  8.84234E-09  8.29040E-09
   8.39335E-09  7.54608E-09  8.04773E-09  8.25657E-09  7.48818E-09  5.71272E-09  6.19802E-09  9.35284E-09  1.46084E-08  1.64120E-08
   1.83279E-08  1.81311E-08  1.85749E-08  1.84203E-08  1.83749E-08  1.77791E-08  1.76378E-08  1.57386E-08  1.56013E-08  1.36810E-08
   1.29277E-08  1.08327E-08  8.86018E-09  5.92057E-09  4.02790E-09  1.09334E-09 -8.96512E-10 -3.75214E-09 -5.53067E-09 -8.19690E-09
  -8.92429E-09 -1.06400E-08 -1.04110E-08 -1.14404E-08 -1.07573E-08 -1.11429E-08 -9.43475E-09 -9.59185E-09 -7.72360E-09 -6.85104E-09
  -5.69337E-09 -5.24030E-09 -3.97479E-09 -4.17033E-09 -3.00330E-09 -3.46690E-09 -2.55742E-09 -2.97047E-09 -2.64812E-09 -3.25146E-09
  -2.34145E-09 -2.90997E-09 -2.13788E-09 -2.61266E-09 -2.34777E-09 -2.77484E-09 -2.09013E-09 -2.72144E-09 -2.10775E-09 -2.53988E-09
  -2.37840E-09 -2.20181E-09 -1.56962E-09 -2.43958E-09 -1.97646E-09 -2.89696E-09 -1.74275E-09 -2.08363E-09 -2.02874E-09 -2.83128E-09
  -2.04949E-09 -2.54197E-09 -2.26111E-09 -2.39037E-09 -1.67233E-09 -2.70478E-09 -2.18720E-09 -2.71103E-09 -2.06902E-09 -2.70426E-09
  -1.91666E-09 -2.99775E-09 -2.06573E-09 -2.73367E-09 -2.34849E-09 -2.97878E-09 -2.22102E-09 -2.75263E-09 -1.76365E-09 -2.69337E-09
  -1.72699E-09 -2.69220E-09 -1.90421E-09 -2.67755E-09 -2.28615E-09 -2.23370E-09 -1.80602E-09 -2.76643E-09 -1.94821E-09 -3.06321E-09
  -2.48334E-09 -3.11950E-09 -2.68856E-09 -3.67436E-09 -2.90422E-09 -3.66520E-09 -2.76554E-09 -3.09812E-09 -2.28043E-09 -2.55366E-09
  -1.78120E-09 -2.32066E-09 -1.52925E-09 -1.22655E-09 -7.91006E-10 -1.68139E-09 -1.19652E-09 -1.66458E-09 -1.65660E-09 -1.63264E-09
  -1.52902E-09 -2.04685E-09 -1.72284E-09 -2.51771E-09 -1.62977E-09 -2.88981E-09 -1.93795E-09 -2.58118E-09 -2.24016E-09 -3.06955E-09
  -3.05071E-09 -2.65704E-09 -2.35765E-09 -2.88856E-09 -2.29943E-09 -3.07118E-09 -2.96403E-09 -3.28426E-09 -2.54522E-09 -3.14782E-09
  -3.03241E-09 -3.44977E-09 -2.75582E-09 -3.08779E-09 -2.92237E-09 -3.27510E-09 -3.33508E-09 -3.61932E-09 -3.37877E-09 -2.90672E-09
  -3.14494E-09 -3.74622E-09 -3.16659E-09 -3.32563E-09 -3.35752E-09 -3.68083E-09 -3.42640E-09 -3.99361E-09 -3.28349E-09 -3.76252E-09
  -3.00283E-09 -3.68417E-09 -3.60538E-09 -4.12961E-09 -3.59388E-09 -3.62526E-09 -2.97756E-09 -3.78455E-09 -3.32134E-09 -4.28313E-09
  -3.54701E-09 -4.01884E-09 -3.11640E-09 -3.55108E-09 -4.16389E-09 -4.25842E-09 -3.91677E-09 -3.81951E-09 -3.24654E-09 -4.07548E-09
  -3.88899E-09 -3.66468E-09 -3.60688E-09 -4.14597E-09 -3.75662E-09 -3.90059E-09 -4.02308E-09 -4.63340E-09 -3.86810E-09 -4.05367E-09
  -3.63974E-09 -4.48146E-09 -3.70740E-09 -4.14097E-09 -3.52707E-09 -4.29432E-09 -3.45872E-09 -4.06055E-09 -4.04402E-09 -3.75945E-09
  -3.26457E-09 -4.04933E-09 -3.57092E-09
 NY points of the fit to the data follow
   3.19125E-09  4.00965E-09  3.77473E-09  2.83669E-09  2.37768E-09  2.47983E-09  2.46796E-09  2.01354E-09  1.63386E-09  1.81733E-09
   2.04458E-09  2.20345E-09  2.42802E-09  2.71616E-09  3.34257E-09  3.89448E-09  4.10225E-09  4.86018E-09  5.55007E-09  5.04866E-09
   3.94750E-09  3.20022E-09  3.15724E-09  3.39702E-09  3.64864E-09  3.84685E-09  4.22881E-09  4.56975E-09  4.93392E-09  5.47797E-09
   6.10755E-09  6.47928E-09  6.81294E-09  6.88621E-09  7.05489E-09  7.03170E-09  6.73803E-09  6.38900E-09  6.29701E-09  6.33922E-09
   6.42383E-09  6.54708E-09  6.37295E-09  5.56311E-09  5.00640E-09  4.66762E-09  4.35074E-09  3.90836E-09  3.46319E-09  3.16217E-09
   2.98799E-09  2.93553E-09  2.94375E-09  2.91467E-09  2.88119E-09  3.01260E-09  3.16984E-09  3.45547E-09  4.02119E-09  4.63842E-09
   5.03826E-09  5.34050E-09  5.67865E-09  6.00132E-09  6.21066E-09  6.35011E-09  6.39672E-09  6.41866E-09  6.15747E-09  5.59067E-09
   5.32395E-09  5.24624E-09  5.07041E-09  4.86929E-09  4.88038E-09  4.92304E-09  4.82930E-09  5.55128E-09  6.86742E-09  8.08286E-09
   9.05762E-09  9.72424E-09  1.00407E-08  1.03238E-08  1.08049E-08  1.11756E-08  1.13931E-08  1.12389E-08  9.91328E-09  8.81571E-09
   8.25857E-09  7.90834E-09  7.75628E-09  7.58973E-09  7.32796E-09  7.22655E-09  7.14060E-09  6.93909E-09  6.80943E-09  6.72249E-09
   6.61682E-09  6.52949E-09  6.46110E-09  6.40718E-09  6.36457E-09  6.33089E-09  6.30424E-09  6.28336E-09  6.26730E-09  6.25528E-09
   6.24665E-09  6.24067E-09  6.23687E-09  6.23482E-09  6.23418E-09  6.23469E-09  6.23607E-09  6.23802E-09  6.24030E-09  6.24268E-09
   6.24497E-09  6.24700E-09  6.24859E-09  6.24952E-09  6.24960E-09  6.24865E-09  6.24647E-09  6.24289E-09  6.23774E-09  6.23086E-09
   6.22209E-09  6.21126E-09  6.19821E-09  6.18282E-09  6.16491E-09  6.14434E-09  6.12098E-09  6.09466E-09  6.06526E-09  6.03264E-09
   5.99665E-09  5.95717E-09  5.91407E-09  5.86720E-09  5.81644E-09  5.76166E-09  5.70274E-09  5.63956E-09  5.57202E-09  5.49999E-09
   5.42337E-09  5.34210E-09  5.25610E-09  5.16532E-09  5.06979E-09  4.96955E-09  4.86479E-09  4.75580E-09  4.64316E-09  4.52791E-09
   4.41188E-09  4.29845E-09  4.19441E-09  4.11453E-09  4.09504E-09  4.24823E-09  5.09389E-09  9.06451E-09  1.37222E-08  1.67903E-08
   1.81133E-08  1.83341E-08  1.82620E-08  1.83828E-08  1.88335E-08  1.92736E-08  1.85072E-08  1.44193E-08  7.20954E-09  4.19592E-09
   3.06781E-09  2.42332E-09  1.96621E-09  1.60152E-09  1.28980E-09  1.01179E-09  7.57030E-10  5.19401E-10  2.95135E-10  8.18452E-11
  -1.22034E-10 -3.17531E-10 -5.05299E-10 -6.85788E-10 -8.59225E-10 -1.02572E-09 -1.18536E-09 -1.33805E-09 -1.48373E-09 -1.62231E-09
  -1.75357E-09 -1.87739E-09 -1.99359E-09 -2.10237E-09 -2.20395E-09 -2.29859E-09 -2.38654E-09 -2.46802E-09 -2.54327E-09 -2.61249E-09
  -2.67592E-09 -2.73376E-09 -2.78624E-09 -2.83356E-09 -2.87592E-09 -2.91354E-09 -2.94662E-09 -2.97536E-09 -2.99997E-09 -3.02063E-09
  -3.03757E-09 -3.05097E-09 -3.06103E-09 -3.06795E-09 -3.07191E-09 -3.07314E-09 -3.07178E-09 -3.06807E-09 -3.06217E-09 -3.05427E-09
  -3.04458E-09 -3.03327E-09 -3.02053E-09 -3.00653E-09 -2.99148E-09 -2.97553E-09 -2.95888E-09 -2.94168E-09 -2.92413E-09 -2.90641E-09
  -2.88867E-09 -2.87108E-09 -2.85381E-09 -2.83694E-09 -2.82049E-09 -2.80450E-09 -2.78898E-09 -2.77396E-09 -2.75946E-09 -2.74551E-09
  -2.73213E-09 -2.71935E-09 -2.70717E-09 -2.69564E-09 -2.68475E-09 -2.67455E-09 -2.66504E-09 -2.65623E-09 -2.64816E-09 -2.64084E-09
  -2.63428E-09 -2.62849E-09 -2.62350E-09 -2.61932E-09 -2.61596E-09 -2.61344E-09 -2.61175E-09 -2.61093E-09 -2.61098E-09 -2.61190E-09
  -2.61371E-09 -2.61641E-09 -2.62001E-09 -2.62453E-09 -2.62996E-09 -2.63631E-09 -2.64358E-09 -2.65178E-09 -2.66091E-09 -2.67096E-09
  -2.68196E-09 -2.69388E-09 -2.70674E-09 -2.72051E-09 -2.73514E-09 -2.75059E-09 -2.76682E-09 -2.78378E-09 -2.80142E-09 -2.81970E-09
  -2.83858E-09 -2.85800E-09 -2.87794E-09 -2.89834E-09 -2.91916E-09 -2.94035E-09 -2.96188E-09 -2.98369E-09 -3.00576E-09 -3.02802E-09
  -3.05046E-09 -3.07301E-09 -3.09565E-09 -3.11833E-09 -3.14100E-09 -3.16364E-09 -3.18620E-09 -3.20863E-09 -3.23091E-09 -3.25300E-09
  -3.27485E-09 -3.29643E-09 -3.31770E-09 -3.33863E-09 -3.35918E-09 -3.37932E-09 -3.39900E-09 -3.41819E-09 -3.43688E-09 -3.45501E-09
  -3.47255E-09 -3.48948E-09 -3.50576E-09 -3.52137E-09 -3.53628E-09 -3.55046E-09 -3.56389E-09 -3.57655E-09 -3.58841E-09 -3.59946E-09
  -3.60967E-09 -3.61902E-09 -3.62748E-09 -3.63505E-09 -3.64169E-09 -3.64739E-09 -3.65212E-09 -3.65588E-09 -3.65863E-09 -3.66037E-09
  -3.66108E-09 -3.66073E-09 -3.65932E-09 -3.65682E-09 -3.65323E-09 -3.64852E-09 -3.64268E-09 -3.63571E-09 -3.62757E-09 -3.61827E-09
  -3.60779E-09 -3.59611E-09 -3.58323E-09 -3.56915E-09 -3.55383E-09 -3.53728E-09 -3.51949E-09 -3.50045E-09 -3.48015E-09 -3.45858E-09
  -3.43575E-09 -3.41163E-09 -3.38623E-09
 NY background values follow
    -1.189E-09   -1.194E-09   -1.198E-09   -1.200E-09   -1.201E-09   -1.200E-09   -1.199E-09   -1.196E-09   -1.192E-09   -1.186E-09
    -1.179E-09   -1.171E-09   -1.162E-09   -1.151E-09   -1.140E-09   -1.127E-09   -1.112E-09   -1.097E-09   -1.080E-09   -1.062E-09
    -1.042E-09   -1.022E-09   -1.000E-09   -9.773E-10   -9.531E-10   -9.278E-10   -9.012E-10   -8.735E-10   -8.446E-10   -8.145E-10
    -7.832E-10   -7.508E-10   -7.172E-10   -6.825E-10   -6.466E-10   -6.096E-10   -5.714E-10   -5.321E-10   -4.918E-10   -4.503E-10
    -4.077E-10   -3.640E-10   -3.192E-10   -2.734E-10   -2.265E-10   -1.785E-10   -1.296E-10   -7.962E-11   -2.867E-11    2.327E-11
     7.617E-11    1.300E-10    1.848E-10    2.404E-10    2.970E-10    3.545E-10    4.128E-10    4.719E-10    5.319E-10    5.926E-10
     6.542E-10    7.165E-10    7.795E-10    8.433E-10    9.078E-10    9.729E-10    1.039E-09    1.105E-09    1.172E-09    1.240E-09
     1.308E-09    1.377E-09    1.446E-09    1.516E-09    1.586E-09    1.657E-09    1.728E-09    1.800E-09    1.872E-09    1.944E-09
     2.017E-09    2.090E-09    2.164E-09    2.237E-09    2.311E-09    2.385E-09    2.459E-09    2.533E-09    2.607E-09    2.681E-09
     2.755E-09    2.828E-09    2.902E-09    2.975E-09    3.048E-09    3.121E-09    3.193E-09    3.265E-09    3.336E-09    3.407E-09
     3.477E-09    3.547E-09    3.615E-09    3.683E-09    3.750E-09    3.817E-09    3.882E-09    3.946E-09    4.009E-09    4.071E-09
     4.132E-09    4.192E-09    4.250E-09    4.307E-09    4.363E-09    4.417E-09    4.470E-09    4.521E-09    4.570E-09    4.618E-09
     4.664E-09    4.708E-09    4.750E-09    4.791E-09    4.829E-09    4.865E-09    4.898E-09    4.930E-09    4.959E-09    4.985E-09
     5.008E-09    5.029E-09    5.046E-09    5.061E-09    5.072E-09    5.081E-09    5.085E-09    5.087E-09    5.085E-09    5.079E-09
     5.069E-09    5.055E-09    5.038E-09    5.016E-09    4.990E-09    4.959E-09    4.925E-09    4.885E-09    4.841E-09    4.792E-09
     4.739E-09    4.680E-09    4.617E-09    4.548E-09    4.474E-09    4.394E-09    4.310E-09    4.219E-09    4.123E-09    4.021E-09
     3.914E-09    3.800E-09    3.681E-09    3.555E-09    3.425E-09    3.289E-09    3.149E-09    3.004E-09    2.855E-09    2.702E-09
     2.545E-09    2.386E-09    2.223E-09    2.058E-09    1.891E-09    1.721E-09    1.550E-09    1.378E-09    1.205E-09    1.031E-09
     8.573E-10    6.832E-10    5.096E-10    3.366E-10    1.646E-10   -6.050E-12   -1.750E-10   -3.420E-10   -5.066E-10   -6.686E-10
    -8.276E-10   -9.833E-10   -1.135E-09   -1.283E-09   -1.427E-09   -1.566E-09   -1.701E-09   -1.830E-09   -1.953E-09   -2.071E-09
    -2.183E-09   -2.288E-09   -2.386E-09   -2.478E-09   -2.563E-09   -2.642E-09   -2.715E-09   -2.782E-09   -2.843E-09   -2.899E-09
    -2.949E-09   -2.994E-09   -3.034E-09   -3.069E-09   -3.100E-09   -3.126E-09   -3.147E-09   -3.165E-09   -3.179E-09   -3.189E-09
    -3.196E-09   -3.199E-09   -3.199E-09   -3.197E-09   -3.191E-09   -3.183E-09   -3.172E-09   -3.160E-09   -3.145E-09   -3.128E-09
    -3.110E-09   -3.090E-09   -3.069E-09   -3.047E-09   -3.024E-09   -3.000E-09   -2.975E-09   -2.950E-09   -2.925E-09   -2.900E-09
    -2.875E-09   -2.850E-09   -2.825E-09   -2.801E-09   -2.778E-09   -2.755E-09   -2.732E-09   -2.711E-09   -2.689E-09   -2.669E-09
    -2.649E-09   -2.630E-09   -2.611E-09   -2.593E-09   -2.576E-09   -2.560E-09   -2.544E-09   -2.529E-09   -2.515E-09   -2.502E-09
    -2.489E-09   -2.478E-09   -2.467E-09   -2.457E-09   -2.448E-09   -2.440E-09   -2.433E-09   -2.427E-09   -2.421E-09   -2.417E-09
    -2.413E-09   -2.411E-09   -2.409E-09   -2.409E-09   -2.409E-09   -2.410E-09   -2.413E-09   -2.416E-09   -2.420E-09   -2.425E-09
    -2.432E-09   -2.439E-09   -2.447E-09   -2.456E-09   -2.466E-09   -2.477E-09   -2.489E-09   -2.501E-09   -2.514E-09   -2.528E-09
    -2.543E-09   -2.558E-09   -2.573E-09   -2.590E-09   -2.606E-09   -2.623E-09   -2.641E-09   -2.658E-09   -2.676E-09   -2.695E-09
    -2.713E-09   -2.732E-09   -2.750E-09   -2.769E-09   -2.788E-09   -2.807E-09   -2.826E-09   -2.844E-09   -2.863E-09   -2.881E-09
    -2.899E-09   -2.917E-09   -2.935E-09   -2.953E-09   -2.970E-09   -2.986E-09   -3.002E-09   -3.018E-09   -3.034E-09   -3.048E-09
    -3.063E-09   -3.076E-09   -3.089E-09   -3.102E-09   -3.113E-09   -3.124E-09   -3.135E-09   -3.144E-09   -3.153E-09   -3.161E-09
    -3.168E-09   -3.174E-09   -3.180E-09   -3.184E-09   -3.188E-09   -3.191E-09   -3.193E-09   -3.194E-09   -3.194E-09   -3.193E-09
    -3.191E-09   -3.188E-09   -3.183E-09   -3.178E-09   -3.172E-09   -3.165E-09   -3.156E-09   -3.147E-09   -3.136E-09   -3.124E-09
    -3.111E-09   -3.097E-09   -3.082E-09   -3.065E-09   -3.047E-09   -3.028E-09   -3.008E-09   -2.987E-09   -2.964E-09   -2.940E-09
    -2.915E-09   -2.889E-09   -2.861E-09
 Asp      Conc. = 1.34E-10
  -1.12112E-09 -1.11448E-09 -1.11794E-09 -1.11727E-09 -1.11601E-09 -1.12050E-09 -1.12163E-09 -1.13614E-09 -1.14529E-09 -1.14985E-09
  -1.15104E-09 -1.14959E-09 -1.14588E-09 -1.14004E-09 -1.13223E-09 -1.12278E-09 -1.11178E-09 -1.09931E-09 -1.08540E-09 -1.07012E-09
  -1.05350E-09 -1.03557E-09 -1.01639E-09 -9.95965E-10 -9.74338E-10 -9.51529E-10 -9.27577E-10 -9.02510E-10 -8.76357E-10 -8.49162E-10
  -8.20943E-10 -7.91756E-10 -7.61631E-10 -7.30585E-10 -6.98540E-10 -6.65033E-10 -6.26688E-10 -5.84069E-10 -5.35942E-10 -4.87739E-10
  -4.44201E-10 -4.05710E-10 -3.68959E-10 -3.19214E-10 -2.60056E-10 -1.74291E-10 -8.54350E-11 -1.74595E-11  4.32506E-11  1.06939E-10
   1.84128E-10  2.71448E-10  3.64655E-10  4.46361E-10  4.99404E-10  5.41507E-10  5.61406E-10  6.18816E-10  6.86057E-10  7.34850E-10
   7.80413E-10  8.33177E-10  8.84357E-10  9.38785E-10  1.00481E-09  1.07272E-09  1.12871E-09  1.18642E-09  1.24651E-09  1.30844E-09
   1.37184E-09  1.43646E-09  1.50214E-09  1.56874E-09  1.63617E-09  1.70435E-09  1.77321E-09  1.84268E-09  1.91274E-09  1.98331E-09
   2.05436E-09  2.12584E-09  2.19771E-09  2.26992E-09  2.34240E-09  2.41510E-09  2.48797E-09  2.56096E-09  2.63400E-09  2.70705E-09
   2.78005E-09  2.85295E-09  2.92569E-09  2.99822E-09  3.07049E-09  3.14244E-09  3.21402E-09  3.28517E-09  3.35583E-09  3.42595E-09
   3.49549E-09  3.56436E-09  3.63254E-09  3.69995E-09  3.76654E-09  3.83225E-09  3.89703E-09  3.96082E-09  4.02356E-09  4.08520E-09
   4.14567E-09  4.20492E-09  4.26290E-09  4.31954E-09  4.37478E-09  4.42857E-09  4.48085E-09  4.53156E-09  4.58064E-09  4.62803E-09
   4.67369E-09  4.71754E-09  4.75951E-09  4.79950E-09  4.83741E-09  4.87313E-09  4.90655E-09  4.93756E-09  4.96607E-09  4.99196E-09
   5.01512E-09  5.03546E-09  5.05285E-09  5.06720E-09  5.07839E-09  5.08632E-09  5.09088E-09  5.09196E-09  5.08946E-09  5.08326E-09
   5.07326E-09  5.05935E-09  5.04143E-09  5.01938E-09  4.99310E-09  4.96249E-09  4.92744E-09  4.88784E-09  4.84360E-09  4.79461E-09
   4.74075E-09  4.68193E-09  4.61806E-09  4.54903E-09  4.47473E-09  4.39508E-09  4.30999E-09  4.21934E-09  4.12306E-09  4.02106E-09
   3.91330E-09  3.79970E-09  3.68038E-09  3.55583E-09  3.42696E-09  3.29617E-09  3.17481E-09  3.09883E-09  3.02014E-09  2.91026E-09
   2.77202E-09  2.61638E-09  2.45556E-09  2.29604E-09  2.13917E-09  1.97846E-09  1.79351E-09  1.55338E-09  1.27535E-09  1.07110E-09
   8.85283E-10  7.05028E-10  5.27452E-10  3.51766E-10  1.77805E-10  5.64109E-12 -1.64544E-10 -3.32509E-10 -4.97991E-10 -6.60689E-10
  -8.20309E-10 -9.76549E-10 -1.12909E-09 -1.27764E-09 -1.42187E-09 -1.56146E-09 -1.69613E-09 -1.82552E-09 -1.94936E-09 -2.06735E-09
  -2.17913E-09 -2.28445E-09 -2.38302E-09 -2.47495E-09 -2.56039E-09 -2.63953E-09 -2.71254E-09 -2.77963E-09 -2.84095E-09 -2.89671E-09
  -2.94707E-09 -2.99224E-09 -3.03239E-09 -3.06771E-09 -3.09838E-09 -3.12460E-09 -3.14655E-09 -3.16442E-09 -3.17840E-09 -3.18866E-09
  -3.19541E-09 -3.19883E-09 -3.19910E-09 -3.19642E-09 -3.19096E-09 -3.18293E-09 -3.17249E-09 -3.15984E-09 -3.14516E-09 -3.12862E-09
  -3.11042E-09 -3.09074E-09 -3.06976E-09 -3.04765E-09 -3.02459E-09 -3.00076E-09 -2.97634E-09 -2.95148E-09 -2.92638E-09 -2.90120E-09
  -2.87610E-09 -2.85125E-09 -2.82682E-09 -2.80288E-09 -2.77945E-09 -2.75655E-09 -2.73422E-09 -2.71247E-09 -2.69133E-09 -2.67081E-09
  -2.65093E-09 -2.63173E-09 -2.61321E-09 -2.59540E-09 -2.57831E-09 -2.56198E-09 -2.54639E-09 -2.53159E-09 -2.51759E-09 -2.50438E-09
  -2.49202E-09 -2.48049E-09 -2.46981E-09 -2.46000E-09 -2.45107E-09 -2.44303E-09 -2.43589E-09 -2.42967E-09 -2.42436E-09 -2.41999E-09
  -2.41656E-09 -2.41407E-09 -2.41254E-09 -2.41197E-09 -2.41236E-09 -2.41372E-09 -2.41605E-09 -2.41936E-09 -2.42364E-09 -2.42890E-09
  -2.43514E-09 -2.44235E-09 -2.45055E-09 -2.45969E-09 -2.46975E-09 -2.48066E-09 -2.49240E-09 -2.50490E-09 -2.51813E-09 -2.53204E-09
  -2.54659E-09 -2.56173E-09 -2.57741E-09 -2.59360E-09 -2.61024E-09 -2.62730E-09 -2.64473E-09 -2.66249E-09 -2.68053E-09 -2.69881E-09
  -2.71729E-09 -2.73593E-09 -2.75468E-09 -2.77351E-09 -2.79238E-09 -2.81124E-09 -2.83005E-09 -2.84878E-09 -2.86739E-09 -2.88583E-09
  -2.90407E-09 -2.92207E-09 -2.93980E-09 -2.95722E-09 -2.97428E-09 -2.99096E-09 -3.00723E-09 -3.02303E-09 -3.03836E-09 -3.05316E-09
  -3.06741E-09 -3.08107E-09 -3.09411E-09 -3.10651E-09 -3.11824E-09 -3.12927E-09 -3.13957E-09 -3.14914E-09 -3.15794E-09 -3.16595E-09
  -3.17315E-09 -3.17951E-09 -3.18503E-09 -3.18966E-09 -3.19340E-09 -3.19623E-09 -3.19812E-09 -3.19905E-09 -3.19901E-09 -3.19799E-09
  -3.19595E-09 -3.19289E-09 -3.18879E-09 -3.18363E-09 -3.17740E-09 -3.17007E-09 -3.16165E-09 -3.15211E-09 -3.14143E-09 -3.12962E-09
  -3.11665E-09 -3.10251E-09 -3.08719E-09 -3.07069E-09 -3.05298E-09 -3.03407E-09 -3.01393E-09 -2.99257E-09 -2.96998E-09 -2.94614E-09
  -2.92105E-09 -2.89471E-09 -2.86711E-09
 GABA     Conc. = 6.32E-10
  -1.48217E-09 -1.49212E-09 -1.50101E-09 -1.50886E-09 -1.51569E-09 -1.52153E-09 -1.52642E-09 -1.53039E-09 -1.53349E-09 -1.53574E-09
  -1.53721E-09 -1.53796E-09 -1.53803E-09 -1.53750E-09 -1.53645E-09 -1.53496E-09 -1.53319E-09 -1.53131E-09 -1.52941E-09 -1.52774E-09
  -1.52658E-09 -1.52617E-09 -1.52693E-09 -1.52936E-09 -1.53396E-09 -1.54153E-09 -1.55276E-09 -1.56754E-09 -1.58046E-09 -1.53769E-09
  -1.43283E-09 -1.37161E-09 -1.26068E-09 -1.02261E-09 -7.89031E-10 -5.75023E-10 -3.29580E-10 -6.64245E-11  1.82115E-10  3.63013E-10
   4.44579E-10  5.62136E-10  7.02796E-10  6.00047E-10  4.80404E-10  5.03923E-10  4.47369E-10  3.46084E-10  2.88123E-10  2.57038E-10
   2.43027E-10  2.40589E-10  2.46149E-10  2.57557E-10  2.73371E-10  2.92296E-10  3.13396E-10  3.36026E-10  3.59848E-10  3.85845E-10
   4.18682E-10  4.83695E-10  6.56121E-10  8.23016E-10  9.52661E-10  1.21812E-09  1.51310E-09  1.73717E-09  1.95507E-09  2.17748E-09
   2.38766E-09  2.54501E-09  2.59098E-09  2.57075E-09  2.67483E-09  2.62699E-09  2.39292E-09  2.38007E-09  2.38993E-09  2.31749E-09
   2.33162E-09  2.36272E-09  2.37761E-09  2.49122E-09  2.64275E-09  2.75269E-09  2.90392E-09  3.08874E-09  3.27022E-09  3.45730E-09
   3.59290E-09  3.70346E-09  3.89245E-09  3.99418E-09  3.95411E-09  4.04095E-09  4.11774E-09  4.05953E-09  4.05762E-09  4.08539E-09
   4.08378E-09  4.09193E-09  4.11169E-09  4.13961E-09  4.17324E-09  4.21077E-09  4.25103E-09  4.29325E-09  4.33686E-09  4.38145E-09
   4.42666E-09  4.47200E-09  4.51722E-09  4.56211E-09  4.60647E-09  4.65022E-09  4.69321E-09  4.73526E-09  4.77623E-09  4.81600E-09
   4.85447E-09  4.89154E-09  4.92711E-09  4.96104E-09  4.99319E-09  5.02343E-09  5.05163E-09  5.07766E-09  5.10140E-09  5.12274E-09
   5.14153E-09  5.15766E-09  5.17101E-09  5.18147E-09  5.18892E-09  5.19323E-09  5.19431E-09  5.19201E-09  5.18623E-09  5.17686E-09
   5.16378E-09  5.14689E-09  5.12607E-09  5.10119E-09  5.07216E-09  5.03886E-09  5.00118E-09  4.95902E-09  4.91227E-09  4.86081E-09
   4.80454E-09  4.74337E-09  4.67719E-09  4.60589E-09  4.52937E-09  4.44756E-09  4.36037E-09  4.26771E-09  4.16954E-09  4.06582E-09
   3.95662E-09  3.84205E-09  3.72261E-09  3.59962E-09  3.47618E-09  3.36179E-09  3.30319E-09  3.47684E-09  3.66170E-09  3.71602E-09
   3.64805E-09  3.50740E-09  3.35117E-09  3.20986E-09  3.08988E-09  2.96171E-09  2.73151E-09  2.24890E-09  1.57268E-09  1.24479E-09
   1.01277E-09  8.08258E-10  6.15464E-10  4.29164E-10  2.47267E-10  6.88662E-11 -1.06404E-10 -2.78634E-10 -4.47777E-10 -6.13675E-10
  -7.76135E-10 -9.34928E-10 -1.08978E-09 -1.24046E-09 -1.38666E-09 -1.52807E-09 -1.66445E-09 -1.79545E-09 -1.92081E-09 -2.04023E-09
  -2.15339E-09 -2.26001E-09 -2.35983E-09 -2.45296E-09 -2.53955E-09 -2.61980E-09 -2.69389E-09 -2.76201E-09 -2.82434E-09 -2.88107E-09
  -2.93238E-09 -2.97846E-09 -3.01951E-09 -3.05570E-09 -3.08721E-09 -3.11427E-09 -3.13702E-09 -3.15568E-09 -3.17043E-09 -3.18144E-09
  -3.18893E-09 -3.19307E-09 -3.19406E-09 -3.19207E-09 -3.18729E-09 -3.17992E-09 -3.17013E-09 -3.15813E-09 -3.14408E-09 -3.12816E-09
  -3.11057E-09 -3.09149E-09 -3.07110E-09 -3.04956E-09 -3.02707E-09 -3.00380E-09 -2.97993E-09 -2.95561E-09 -2.93104E-09 -2.90639E-09
