 LCModel (Version 6.3-1R) Copyright: S.W. Provencher.          Ref.: Magn. Reson. Med. 30:672-679 (1993).                
 onepulse 25x8_ftSpec_smooth_lcm
 26 lines in following concentration table = NCONC+1
    Conc.  %SD /Cr+PCr  Metabolite                                         
 5.11E-11 522%   0.168 Ala                                                 
    0.000 999%   0.000 Asp                                                 
    0.000 999%   0.000 Cr                                                  
 4.28E-10 128%   1.407 GABA                                                
    0.000 999%   0.000 Glc                                                 
 1.94E-09  30%   6.387 Gln                                                 
    0.000 999%   0.000 Glu                                                 
    0.000 999%   0.000 Glyc                                                
    0.000 999%   0.000 GPC                                                 
    0.000 999%   0.000 GSH                                                 
 1.43E-09  22%   4.704 Ins                                                 
    0.000 999%   0.000 Lac                                                 
 1.23E-10 260%   0.404 NAAG                                                
 6.06E-10  74%   1.992 NAA                                                 
    0.000 999%   0.000 PCh                                                 
 3.04E-10  99%   1.000 PCr                                                 
 1.24E-09  56%   4.091 PE                                                  
    0.000 999%   0.000 Scyllo                                              
 2.36E-09  24%   7.750 Ser                                                 
 7.62E-10  59%   2.504 Tau                                                 
    0.000 999%   0.000 GPC+PCh                                             
 7.29E-10  38%   2.396 NAA+NAAG                                            
 1.43E-09  22%   4.704 Ins+Glyc                                            
 3.04E-10  99%   1.000 Cr+PCr                                              
 1.94E-09  30%   6.387 Glu+Gln                                             
   6 lines in following misc. output table
  FWHM = 0.112 ppm    S/N =   3                                            
  Data shift = 0.391 ppm                                                   
  Ph:   5 deg     -32.5 deg/ppm                                            
  alphaB,S = 4.1E-01,   2.7E+01                                            
   11 spline knots.   Ns = 5(1)                                            
  (10) 4 infls.   ( 9) 3 extrs.                                            
  363 points on ppm-axis = NY
      4.250000     4.238821     4.227641     4.216462     4.205282     4.194103     4.182923     4.171744     4.160564     4.149385
      4.138206     4.127026     4.115847     4.104667     4.093488     4.082308     4.071129     4.059949     4.048770     4.037591
      4.026411     4.015232     4.004052     3.992873     3.981693     3.970514     3.959334     3.948155     3.936975     3.925796
      3.914617     3.903437     3.892258     3.881078     3.869899     3.858719     3.847540     3.836360     3.825181     3.814002
      3.802822     3.791643     3.780463     3.769284     3.758104     3.746925     3.735745     3.724566     3.713387     3.702207
      3.691028     3.679848     3.668669     3.657489     3.646310     3.635130     3.623951     3.612772     3.601592     3.590413
      3.579233     3.568054     3.556874     3.545695     3.534515     3.523336     3.512156     3.500977     3.489798     3.478618
      3.467439     3.456259     3.445080     3.433900     3.422721     3.411541     3.400362     3.389183     3.378003     3.366824
      3.355644     3.344465     3.333285     3.322106     3.310926     3.299747     3.288568     3.277388     3.266209     3.255029
      3.243850     3.232670     3.221491     3.210311     3.199132     3.187953     3.176773     3.165594     3.154414     3.143235
      3.132055     3.120876     3.109696     3.098517     3.087337     3.076158     3.064979     3.053799     3.042620     3.031440
      3.020261     3.009081     2.997902     2.986722     2.975543     2.964364     2.953184     2.942005     2.930825     2.919646
      2.908466     2.897287     2.886107     2.874928     2.863749     2.852569     2.841390     2.830210     2.819031     2.807851
      2.796672     2.785492     2.774313     2.763134     2.751954     2.740775     2.729595     2.718416     2.707236     2.696057
      2.684877     2.673698     2.662519     2.651339     2.640160     2.628980     2.617801     2.606621     2.595442     2.584262
      2.573083     2.561903     2.550724     2.539545     2.528365     2.517186     2.506006     2.494827     2.483647     2.472468
      2.461288     2.450109     2.438930     2.427750     2.416571     2.405391     2.394212     2.383032     2.371853     2.360673
      2.349494     2.338315     2.327135     2.315956     2.304776     2.293597     2.282417     2.271238     2.260058     2.248879
      2.237700     2.226520     2.215341     2.204161     2.192982     2.181802     2.170623     2.159443     2.148264     2.137084
      2.125905     2.114726     2.103546     2.092367     2.081187     2.070008     2.058828     2.047649     2.036469     2.025290
      2.014111     2.002931     1.991752     1.980572     1.969393     1.958213     1.947034     1.935854     1.924675     1.913496
      1.902316     1.891137     1.879957     1.868778     1.857598     1.846419     1.835239     1.824060     1.812881     1.801701
      1.790522     1.779342     1.768163     1.756983     1.745804     1.734624     1.723445     1.712265     1.701086     1.689907
      1.678727     1.667548     1.656368     1.645189     1.634009     1.622830     1.611650     1.600471     1.589292     1.578112
      1.566933     1.555753     1.544574     1.533394     1.522215     1.511035     1.499856     1.488677     1.477497     1.466318
      1.455138     1.443959     1.432779     1.421600     1.410420     1.399241     1.388062     1.376882     1.365703     1.354523
      1.343344     1.332164     1.320985     1.309805     1.298626     1.287446     1.276267     1.265088     1.253908     1.242729
      1.231549     1.220370     1.209190     1.198011     1.186831     1.175652     1.164473     1.153293     1.142114     1.130934
      1.119755     1.108575     1.097396     1.086216     1.075037     1.063858     1.052678     1.041499     1.030319     1.019140
      1.007960     0.996781     0.985601     0.974422     0.963243     0.952063     0.940884     0.929704     0.918525     0.907345
      0.896166     0.884986     0.873807     0.862628     0.851448     0.840269     0.829089     0.817910     0.806730     0.795551
      0.784371     0.773192     0.762012     0.750833     0.739654     0.728474     0.717295     0.706115     0.694936     0.683756
      0.672577     0.661397     0.650218     0.639039     0.627859     0.616680     0.605500     0.594321     0.583141     0.571962
      0.560782     0.549603     0.538424     0.527244     0.516065     0.504885     0.493706     0.482526     0.471347     0.460167
      0.448988     0.437809     0.426629     0.415450     0.404270     0.393091     0.381911     0.370732     0.359552     0.348373
      0.337193     0.326014     0.314835     0.303655     0.292476     0.281296     0.270117     0.258937     0.247758     0.236578
      0.225399     0.214220     0.203040
 NY phased data points follow
   5.81216E-09  3.11805E-09  5.21484E-09  2.68274E-09  4.32552E-09  1.48466E-09  4.04409E-09  1.57329E-09  3.62081E-09  2.70639E-09
   4.92562E-09  3.42544E-09  6.17724E-09  3.88797E-09  5.67001E-09  4.20715E-09  6.76124E-09  4.24809E-09  6.25990E-09  3.61887E-09
   5.72049E-09  3.90653E-09  6.58409E-09  4.62972E-09  6.73994E-09  4.30247E-09  5.46686E-09  3.13565E-09  6.32028E-09  6.58005E-09
   9.10556E-09  8.15121E-09  9.72567E-09  7.77816E-09  9.09563E-09  7.16684E-09  8.59939E-09  7.09482E-09  7.96627E-09  6.59926E-09
   8.53296E-09  6.40095E-09  8.28476E-09  5.73138E-09  6.89483E-09  5.07764E-09  7.00137E-09  4.78946E-09  7.07799E-09  4.27257E-09
   6.30468E-09  4.23941E-09  5.52510E-09  2.42147E-09  4.27170E-09  2.38915E-09  4.05591E-09  1.82177E-09  3.18419E-09  2.91520E-09
   7.06036E-09  6.70595E-09  9.13409E-09  8.01564E-09  8.56465E-09  6.68550E-09  7.72727E-09  6.44088E-09  7.46418E-09  5.20598E-09
   5.81298E-09  3.32455E-09  4.76322E-09  1.17151E-09  1.80752E-09  6.74018E-10  5.62076E-09  7.53583E-09  1.09009E-08  9.75543E-09
   1.14811E-08  1.05133E-08  1.14273E-08  1.00060E-08  1.17608E-08  1.02160E-08  1.20761E-08  1.00393E-08  1.21101E-08  9.59901E-09
   1.20986E-08  9.72320E-09  1.12478E-08  9.61969E-09  1.01233E-08  8.63056E-09  9.19786E-09  7.96026E-09  9.19395E-09  7.89416E-09
   9.16052E-09  7.40524E-09  8.76202E-09  7.86257E-09  8.81178E-09  7.51102E-09  8.13573E-09  5.96792E-09  6.60717E-09  5.50358E-09
   6.80085E-09  5.65915E-09  6.22843E-09  5.77948E-09  7.21901E-09  5.43825E-09  7.00527E-09  5.77517E-09  7.40218E-09  5.76646E-09
   7.34791E-09  5.24606E-09  5.95217E-09  4.19470E-09  5.28987E-09  3.84196E-09  5.61522E-09  4.44851E-09  5.52394E-09  3.70329E-09
   5.95532E-09  4.93095E-09  5.35955E-09  3.62838E-09  5.05373E-09  3.66255E-09  5.51982E-09  5.85024E-09  7.55140E-09  5.99643E-09
   6.86639E-09  6.24739E-09  8.35939E-09  7.57345E-09  8.67389E-09  7.59113E-09  9.18710E-09  7.61055E-09  9.13747E-09  8.26855E-09
   8.82621E-09  8.08212E-09  8.86050E-09  7.90432E-09  8.87525E-09  7.19405E-09  8.54815E-09  7.20614E-09  8.69412E-09  7.75483E-09
   8.16712E-09  6.82135E-09  7.41980E-09  7.39762E-09  6.91328E-09  4.67130E-09  5.34110E-09  8.94545E-09  1.53567E-08  1.72040E-08
   1.90022E-08  1.84275E-08  1.87826E-08  1.80266E-08  1.81687E-08  1.73201E-08  1.73410E-08  1.53144E-08  1.56253E-08  1.32421E-08
   1.31087E-08  1.08150E-08  9.39494E-09  6.29850E-09  4.88869E-09  1.97614E-09  3.10965E-11 -2.71130E-09 -4.50565E-09 -7.39140E-09
  -8.25885E-09 -1.02878E-08 -1.03045E-08 -1.16705E-08 -1.14188E-08 -1.20999E-08 -1.08349E-08 -1.13182E-08 -9.38304E-09 -8.89620E-09
  -7.34539E-09 -6.99187E-09 -5.52585E-09 -5.33997E-09 -3.71597E-09 -4.28091E-09 -2.80235E-09 -3.42854E-09 -2.60116E-09 -3.64100E-09
  -2.57789E-09 -3.17909E-09 -2.51969E-09 -3.14414E-09 -2.54293E-09 -3.13431E-09 -2.15375E-09 -2.99665E-09 -2.20426E-09 -2.68116E-09
  -2.49767E-09 -2.42848E-09 -1.71474E-09 -2.72047E-09 -2.27191E-09 -3.23878E-09 -1.78463E-09 -2.29403E-09 -1.86495E-09 -2.81882E-09
  -2.03797E-09 -2.63613E-09 -2.14975E-09 -2.35620E-09 -1.59084E-09 -2.81714E-09 -2.27886E-09 -2.85408E-09 -1.88298E-09 -2.83338E-09
  -1.85102E-09 -2.85280E-09 -1.87777E-09 -2.78982E-09 -1.97501E-09 -2.83663E-09 -1.72091E-09 -2.62133E-09 -1.49487E-09 -2.64102E-09
  -1.38401E-09 -2.55436E-09 -1.61129E-09 -2.70892E-09 -1.88024E-09 -2.04730E-09 -1.68090E-09 -2.80972E-09 -2.00112E-09 -2.81761E-09
  -2.30152E-09 -2.90851E-09 -2.64649E-09 -3.45055E-09 -2.77637E-09 -3.52611E-09 -2.41338E-09 -2.82301E-09 -1.98341E-09 -2.51397E-09
  -1.45962E-09 -2.12778E-09 -1.06397E-09 -9.81376E-10 -4.95294E-10 -1.46687E-09 -8.75143E-10 -1.32898E-09 -1.11692E-09 -1.60632E-09
  -1.15923E-09 -1.91737E-09 -1.59980E-09 -2.40142E-09 -1.33306E-09 -2.53255E-09 -1.72516E-09 -2.41704E-09 -2.13170E-09 -2.74871E-09
  -2.90382E-09 -2.41610E-09 -2.13666E-09 -3.08105E-09 -2.12828E-09 -2.92338E-09 -2.94823E-09 -3.13095E-09 -2.54614E-09 -3.16173E-09
  -2.77669E-09 -3.40287E-09 -2.60377E-09 -3.38165E-09 -2.97763E-09 -3.22750E-09 -3.06972E-09 -3.49020E-09 -3.16369E-09 -3.08795E-09
  -3.02497E-09 -3.49822E-09 -3.01301E-09 -3.39946E-09 -3.16218E-09 -3.55517E-09 -3.24219E-09 -3.80759E-09 -2.87693E-09 -3.64910E-09
  -2.78791E-09 -3.50092E-09 -3.40420E-09 -4.00384E-09 -3.34281E-09 -3.37090E-09 -2.82757E-09 -3.76794E-09 -2.98759E-09 -4.11584E-09
  -3.17529E-09 -3.78414E-09 -2.99480E-09 -3.50331E-09 -3.82621E-09 -3.92391E-09 -3.44744E-09 -3.39398E-09 -2.99260E-09 -3.87748E-09
  -3.39064E-09 -3.40880E-09 -3.20440E-09 -3.77392E-09 -3.26125E-09 -3.50265E-09 -3.52189E-09 -4.16444E-09 -3.36003E-09 -3.55023E-09
  -3.02267E-09 -4.16419E-09 -2.97491E-09 -3.74247E-09 -3.00788E-09 -3.63243E-09 -2.75565E-09 -3.63486E-09 -3.34595E-09 -3.15384E-09
  -2.50249E-09 -3.40953E-09 -3.05485E-09
 NY points of the fit to the data follow
   4.50888E-09  5.32052E-09  5.08488E-09  4.23424E-09  3.81581E-09  3.86988E-09  3.75974E-09  3.16869E-09  2.54252E-09  2.64560E-09
   3.22628E-09  3.54248E-09  3.90771E-09  4.24764E-09  4.79786E-09  5.27989E-09  5.51307E-09  6.20915E-09  6.79248E-09  6.29897E-09
   5.24256E-09  4.45744E-09  4.34708E-09  4.56974E-09  4.87619E-09  5.17043E-09  5.65324E-09  6.12803E-09  6.62135E-09  7.21598E-09
   7.84161E-09  8.21807E-09  8.56245E-09  8.71994E-09  8.91989E-09  8.84395E-09  8.47353E-09  7.95454E-09  7.64791E-09  7.50853E-09
   7.47365E-09  7.47301E-09  7.18219E-09  6.38109E-09  5.84962E-09  5.53247E-09  5.20682E-09  4.86371E-09  4.55469E-09  4.32051E-09
   4.14473E-09  4.01872E-09  3.92149E-09  3.79353E-09  3.66383E-09  3.78991E-09  4.02912E-09  4.31863E-09  4.92016E-09  5.67622E-09
   6.23249E-09  6.68747E-09  7.15165E-09  7.58032E-09  7.89872E-09  8.05927E-09  8.02673E-09  8.00671E-09  7.67230E-09  6.97610E-09
   6.55015E-09  6.35347E-09  6.14066E-09  5.95010E-09  5.88922E-09  5.96827E-09  6.16111E-09  7.06582E-09  8.51156E-09  9.88047E-09
   1.09744E-08  1.17106E-08  1.19718E-08  1.22293E-08  1.27446E-08  1.30407E-08  1.29780E-08  1.25018E-08  1.12305E-08  1.01591E-08
   9.55179E-09  9.14443E-09  8.89352E-09  8.65546E-09  8.38477E-09  8.22231E-09  8.07308E-09  7.86870E-09  7.71595E-09  7.59334E-09
   7.49469E-09  7.41866E-09  7.34125E-09  7.28601E-09  7.25009E-09  7.21984E-09  7.18853E-09  7.15608E-09  7.12221E-09  7.08046E-09
   7.01945E-09  6.94614E-09  6.90935E-09  6.85905E-09  6.77465E-09  6.71280E-09  6.66230E-09  6.61703E-09  6.57449E-09  6.53343E-09
   6.49305E-09  6.45283E-09  6.41237E-09  6.37132E-09  6.32944E-09  6.28648E-09  6.24223E-09  6.19649E-09  6.14910E-09  6.09988E-09
   6.04869E-09  5.99537E-09  5.93980E-09  5.88183E-09  5.82133E-09  5.75820E-09  5.69228E-09  5.62352E-09  5.55193E-09  5.47755E-09
   5.40039E-09  5.32051E-09  5.23795E-09  5.15274E-09  5.06494E-09  4.97461E-09  4.88180E-09  4.78658E-09  4.68902E-09  4.58920E-09
   4.48723E-09  4.38319E-09  4.27722E-09  4.16948E-09  4.06017E-09  3.94958E-09  3.83807E-09  3.72619E-09  3.61477E-09  3.50507E-09
   3.39930E-09  3.30122E-09  3.21816E-09  3.16558E-09  3.18151E-09  3.38375E-09  4.31635E-09  8.51600E-09  1.36466E-08  1.71285E-08
   1.84826E-08  1.84809E-08  1.81148E-08  1.80300E-08  1.83768E-08  1.86544E-08  1.75301E-08  1.32630E-08  6.55563E-09  3.84993E-09
   2.85617E-09  2.30640E-09  1.93057E-09  1.64116E-09  1.40135E-09  1.19295E-09  1.00591E-09  8.34210E-10  6.74062E-10  5.22921E-10
   3.79068E-10  2.41242E-10  1.08586E-10 -1.95922E-11 -1.43776E-10 -2.64347E-10 -3.81584E-10 -4.95718E-10 -6.06918E-10 -7.15325E-10
  -8.21034E-10 -9.24126E-10 -1.02467E-09 -1.12269E-09 -1.21824E-09 -1.31135E-09 -1.40201E-09 -1.49025E-09 -1.57606E-09 -1.65944E-09
  -1.74039E-09 -1.81890E-09 -1.89496E-09 -1.96858E-09 -2.03969E-09 -2.10832E-09 -2.17444E-09 -2.23805E-09 -2.29911E-09 -2.35759E-09
  -2.41352E-09 -2.46685E-09 -2.51755E-09 -2.56564E-09 -2.61109E-09 -2.65385E-09 -2.69395E-09 -2.73137E-09 -2.76616E-09 -2.79841E-09
  -2.82822E-09 -2.85568E-09 -2.88088E-09 -2.90391E-09 -2.92486E-09 -2.94383E-09 -2.96090E-09 -2.97616E-09 -2.98969E-09 -3.00159E-09
  -3.01195E-09 -3.02085E-09 -3.02836E-09 -3.03459E-09 -3.03961E-09 -3.04350E-09 -3.04635E-09 -3.04824E-09 -3.04924E-09 -3.04945E-09
  -3.04892E-09 -3.04775E-09 -3.04601E-09 -3.04376E-09 -3.04110E-09 -3.03808E-09 -3.03478E-09 -3.03126E-09 -3.02761E-09 -3.02387E-09
  -3.02013E-09 -3.01643E-09 -3.01285E-09 -3.00945E-09 -3.00628E-09 -3.00340E-09 -3.00088E-09 -2.99875E-09 -2.99708E-09 -2.99592E-09
  -2.99531E-09 -2.99531E-09 -2.99595E-09 -2.99724E-09 -2.99915E-09 -3.00164E-09 -3.00469E-09 -3.00824E-09 -3.01226E-09 -3.01673E-09
  -3.02160E-09 -3.02684E-09 -3.03243E-09 -3.03831E-09 -3.04446E-09 -3.05084E-09 -3.05743E-09 -3.06418E-09 -3.07106E-09 -3.07804E-09
  -3.08509E-09 -3.09217E-09 -3.09926E-09 -3.10631E-09 -3.11331E-09 -3.12020E-09 -3.12698E-09 -3.13360E-09 -3.14003E-09 -3.14625E-09
  -3.15222E-09 -3.15792E-09 -3.16331E-09 -3.16838E-09 -3.17308E-09 -3.17740E-09 -3.18130E-09 -3.18476E-09 -3.18775E-09 -3.19026E-09
  -3.19224E-09 -3.19368E-09 -3.19456E-09 -3.19485E-09 -3.19452E-09 -3.19356E-09 -3.19194E-09 -3.18963E-09 -3.18663E-09 -3.18292E-09
  -3.17848E-09 -3.17330E-09 -3.16736E-09 -3.16066E-09 -3.15317E-09 -3.14489E-09 -3.13580E-09 -3.12589E-09 -3.11515E-09 -3.10357E-09
  -3.09113E-09 -3.07783E-09 -3.06365E-09 -3.04859E-09 -3.03263E-09 -3.01576E-09 -2.99798E-09 -2.97927E-09 -2.95963E-09 -2.93905E-09
  -2.91752E-09 -2.89504E-09 -2.87159E-09 -2.84717E-09 -2.82177E-09 -2.79540E-09 -2.76803E-09 -2.73966E-09 -2.71031E-09 -2.67994E-09
  -2.64857E-09 -2.61618E-09 -2.58278E-09 -2.54836E-09 -2.51292E-09 -2.47646E-09 -2.43897E-09 -2.40046E-09 -2.36092E-09 -2.32035E-09
  -2.27875E-09 -2.23612E-09 -2.19247E-09
 NY background values follow
     3.728E-10    3.969E-10    4.215E-10    4.466E-10    4.722E-10    4.982E-10    5.246E-10    5.515E-10    5.789E-10    6.067E-10
     6.349E-10    6.636E-10    6.927E-10    7.223E-10    7.523E-10    7.827E-10    8.135E-10    8.448E-10    8.765E-10    9.086E-10
     9.411E-10    9.740E-10    1.007E-09    1.041E-09    1.075E-09    1.110E-09    1.145E-09    1.180E-09    1.215E-09    1.251E-09
     1.288E-09    1.325E-09    1.362E-09    1.399E-09    1.437E-09    1.475E-09    1.514E-09    1.553E-09    1.592E-09    1.632E-09
     1.671E-09    1.712E-09    1.752E-09    1.793E-09    1.834E-09    1.875E-09    1.917E-09    1.959E-09    2.002E-09    2.044E-09
     2.087E-09    2.130E-09    2.173E-09    2.217E-09    2.261E-09    2.305E-09    2.349E-09    2.393E-09    2.438E-09    2.483E-09
     2.528E-09    2.573E-09    2.618E-09    2.664E-09    2.709E-09    2.755E-09    2.800E-09    2.846E-09    2.892E-09    2.938E-09
     2.984E-09    3.030E-09    3.076E-09    3.122E-09    3.168E-09    3.215E-09    3.261E-09    3.307E-09    3.353E-09    3.399E-09
     3.445E-09    3.490E-09    3.536E-09    3.582E-09    3.627E-09    3.672E-09    3.718E-09    3.763E-09    3.807E-09    3.852E-09
     3.896E-09    3.941E-09    3.985E-09    4.028E-09    4.071E-09    4.114E-09    4.156E-09    4.198E-09    4.239E-09    4.280E-09
     4.319E-09    4.358E-09    4.396E-09    4.433E-09    4.470E-09    4.504E-09    4.538E-09    4.571E-09    4.602E-09    4.632E-09
     4.661E-09    4.688E-09    4.713E-09    4.737E-09    4.759E-09    4.779E-09    4.797E-09    4.814E-09    4.828E-09    4.840E-09
     4.850E-09    4.858E-09    4.863E-09    4.866E-09    4.867E-09    4.865E-09    4.860E-09    4.852E-09    4.842E-09    4.829E-09
     4.813E-09    4.794E-09    4.771E-09    4.746E-09    4.717E-09    4.685E-09    4.649E-09    4.610E-09    4.568E-09    4.522E-09
     4.473E-09    4.421E-09    4.365E-09    4.307E-09    4.245E-09    4.181E-09    4.114E-09    4.044E-09    3.971E-09    3.896E-09
     3.818E-09    3.738E-09    3.656E-09    3.571E-09    3.484E-09    3.395E-09    3.305E-09    3.212E-09    3.117E-09    3.021E-09
     2.923E-09    2.824E-09    2.723E-09    2.621E-09    2.518E-09    2.414E-09    2.309E-09    2.203E-09    2.096E-09    1.988E-09
     1.880E-09    1.772E-09    1.663E-09    1.553E-09    1.444E-09    1.335E-09    1.225E-09    1.116E-09    1.007E-09    8.986E-10
     7.906E-10    6.831E-10    5.763E-10    4.703E-10    3.650E-10    2.606E-10    1.572E-10    5.463E-11   -4.688E-11   -1.473E-10
    -2.467E-10   -3.448E-10   -4.418E-10   -5.375E-10   -6.319E-10   -7.249E-10   -8.165E-10   -9.067E-10   -9.953E-10   -1.082E-09
    -1.168E-09   -1.252E-09   -1.334E-09   -1.414E-09   -1.493E-09   -1.570E-09   -1.645E-09   -1.718E-09   -1.789E-09   -1.858E-09
    -1.926E-09   -1.991E-09   -2.054E-09   -2.115E-09   -2.173E-09   -2.230E-09   -2.284E-09   -2.336E-09   -2.386E-09   -2.433E-09
    -2.478E-09   -2.521E-09   -2.561E-09   -2.599E-09   -2.635E-09   -2.667E-09   -2.698E-09   -2.726E-09   -2.751E-09   -2.774E-09
    -2.795E-09   -2.813E-09   -2.830E-09   -2.844E-09   -2.856E-09   -2.867E-09   -2.876E-09   -2.883E-09   -2.888E-09   -2.892E-09
    -2.894E-09   -2.896E-09   -2.895E-09   -2.894E-09   -2.892E-09   -2.888E-09   -2.884E-09   -2.878E-09   -2.872E-09   -2.865E-09
    -2.858E-09   -2.850E-09   -2.841E-09   -2.832E-09   -2.823E-09   -2.813E-09   -2.803E-09   -2.793E-09   -2.783E-09   -2.773E-09
    -2.763E-09   -2.754E-09   -2.744E-09   -2.734E-09   -2.725E-09   -2.717E-09   -2.708E-09   -2.700E-09   -2.693E-09   -2.686E-09
    -2.680E-09   -2.674E-09   -2.670E-09   -2.665E-09   -2.662E-09   -2.659E-09   -2.657E-09   -2.655E-09   -2.654E-09   -2.654E-09
    -2.653E-09   -2.654E-09   -2.654E-09   -2.655E-09   -2.657E-09   -2.658E-09   -2.660E-09   -2.662E-09   -2.664E-09   -2.667E-09
    -2.669E-09   -2.672E-09   -2.674E-09   -2.677E-09   -2.680E-09   -2.682E-09   -2.685E-09   -2.687E-09   -2.689E-09   -2.691E-09
    -2.693E-09   -2.695E-09   -2.696E-09   -2.697E-09   -2.698E-09   -2.698E-09   -2.698E-09   -2.698E-09   -2.697E-09   -2.696E-09
    -2.694E-09   -2.692E-09   -2.689E-09   -2.686E-09   -2.682E-09   -2.677E-09   -2.672E-09   -2.666E-09   -2.660E-09   -2.653E-09
    -2.645E-09   -2.637E-09   -2.627E-09   -2.618E-09   -2.607E-09   -2.595E-09   -2.583E-09   -2.570E-09   -2.556E-09   -2.542E-09
    -2.526E-09   -2.510E-09   -2.493E-09   -2.475E-09   -2.456E-09   -2.436E-09   -2.416E-09   -2.394E-09   -2.372E-09   -2.349E-09
    -2.324E-09   -2.299E-09   -2.273E-09   -2.246E-09   -2.218E-09   -2.189E-09   -2.159E-09   -2.129E-09   -2.097E-09   -2.064E-09
    -2.030E-09   -1.996E-09   -1.960E-09   -1.923E-09   -1.885E-09   -1.847E-09   -1.807E-09   -1.766E-09   -1.725E-09   -1.682E-09
    -1.638E-09   -1.594E-09   -1.548E-09
 Ala      Conc. = 5.11E-11
   3.49923E-10  3.80487E-10  4.10951E-10  4.41438E-10  4.71902E-10  5.02849E-10  5.36865E-10  5.67438E-10  5.92129E-10  6.24774E-10
   6.57222E-10  6.80619E-10  7.08219E-10  7.38238E-10  7.65760E-10  7.93789E-10  8.22628E-10  8.52212E-10  8.82467E-10  9.13334E-10
   9.44767E-10  9.76733E-10  1.00920E-09  1.04216E-09  1.07558E-09  1.10945E-09  1.14377E-09  1.17851E-09  1.21366E-09  1.24923E-09
   1.28519E-09  1.32155E-09  1.35829E-09  1.39541E-09  1.43290E-09  1.47076E-09  1.50897E-09  1.54754E-09  1.58645E-09  1.62570E-09
   1.66528E-09  1.70519E-09  1.74543E-09  1.78598E-09  1.82684E-09  1.86801E-09  1.90948E-09  1.95123E-09  1.99327E-09  2.03558E-09
   2.07815E-09  2.12098E-09  2.16405E-09  2.20736E-09  2.25089E-09  2.29464E-09  2.33860E-09  2.38274E-09  2.42708E-09  2.47158E-09
   2.51625E-09  2.56107E-09  2.60603E-09  2.65112E-09  2.69632E-09  2.74163E-09  2.78703E-09  2.83250E-09  2.87805E-09  2.92364E-09
   2.96928E-09  3.01494E-09  3.06062E-09  3.10629E-09  3.15195E-09  3.19758E-09  3.24317E-09  3.28869E-09  3.33414E-09  3.37949E-09
   3.42473E-09  3.46985E-09  3.51481E-09  3.55962E-09  3.60423E-09  3.64864E-09  3.69281E-09  3.73673E-09  3.78036E-09  3.82369E-09
   3.86666E-09  3.90925E-09  3.95138E-09  3.99298E-09  4.03395E-09  4.07419E-09  4.11364E-09  4.15236E-09  4.19101E-09  4.23406E-09
   4.30442E-09  4.37717E-09  4.43262E-09  4.49940E-09  4.57454E-09  4.64597E-09  4.70863E-09  4.76351E-09  4.81131E-09  4.84618E-09
   4.85731E-09  4.85224E-09  4.88018E-09  4.89146E-09  4.86578E-09  4.85999E-09  4.86313E-09  4.86929E-09  4.87618E-09  4.88268E-09
   4.88815E-09  4.89217E-09  4.89446E-09  4.89479E-09  4.89299E-09  4.88890E-09  4.88240E-09  4.87336E-09  4.86167E-09  4.84722E-09
   4.82992E-09  4.80968E-09  4.78642E-09  4.76002E-09  4.73042E-09  4.69753E-09  4.66125E-09  4.62156E-09  4.57851E-09  4.53216E-09
   4.48255E-09  4.42978E-09  4.37390E-09  4.31498E-09  4.25310E-09  4.18833E-09  4.12075E-09  4.05043E-09  3.97746E-09  3.90191E-09
   3.82389E-09  3.74344E-09  3.66069E-09  3.57570E-09  3.48857E-09  3.39939E-09  3.30826E-09  3.21527E-09  3.12051E-09  3.02409E-09
   2.92613E-09  2.82671E-09  2.72600E-09  2.62419E-09  2.52162E-09  2.41921E-09  2.32146E-09  2.24239E-09  2.16445E-09  2.07485E-09
   1.97305E-09  1.86421E-09  1.75389E-09  1.64538E-09  1.53902E-09  1.43134E-09  1.31418E-09  1.17850E-09  1.03309E-09  9.13909E-10
   8.01635E-10  6.91877E-10  5.83622E-10  4.76546E-10  3.70524E-10  2.65516E-10  1.61536E-10  5.85821E-11 -4.32909E-11 -1.44065E-10
  -2.43679E-10 -3.42116E-10 -4.39297E-10 -5.35206E-10 -6.29784E-10 -7.22991E-10 -8.14771E-10 -9.05086E-10 -9.93884E-10 -1.08113E-09
  -1.16677E-09 -1.25076E-09 -1.33306E-09 -1.41362E-09 -1.49240E-09 -1.56936E-09 -1.64447E-09 -1.71767E-09 -1.78893E-09 -1.85821E-09
  -1.92546E-09 -1.99065E-09 -2.05376E-09 -2.11474E-09 -2.17354E-09 -2.23015E-09 -2.28452E-09 -2.33664E-09 -2.38645E-09 -2.43393E-09
  -2.47907E-09 -2.52181E-09 -2.56214E-09 -2.60004E-09 -2.63548E-09 -2.66840E-09 -2.69884E-09 -2.72676E-09 -2.75220E-09 -2.77525E-09
  -2.79600E-09 -2.81454E-09 -2.83095E-09 -2.84533E-09 -2.85775E-09 -2.86831E-09 -2.87708E-09 -2.88416E-09 -2.88963E-09 -2.89358E-09
  -2.89608E-09 -2.89722E-09 -2.89709E-09 -2.89576E-09 -2.89332E-09 -2.88984E-09 -2.88541E-09 -2.88011E-09 -2.87401E-09 -2.86720E-09
  -2.85974E-09 -2.85171E-09 -2.84319E-09 -2.83425E-09 -2.82496E-09 -2.81539E-09 -2.80562E-09 -2.79571E-09 -2.78572E-09 -2.77572E-09
  -2.76578E-09 -2.75596E-09 -2.74632E-09 -2.73692E-09 -2.72782E-09 -2.71908E-09 -2.71074E-09 -2.70288E-09 -2.69552E-09 -2.68873E-09
  -2.68256E-09 -2.67704E-09 -2.67223E-09 -2.66813E-09 -2.66470E-09 -2.66190E-09 -2.65971E-09 -2.65808E-09 -2.65698E-09 -2.65637E-09
  -2.65623E-09 -2.65649E-09 -2.65715E-09 -2.65816E-09 -2.65949E-09 -2.66110E-09 -2.66296E-09 -2.66503E-09 -2.66727E-09 -2.66967E-09
  -2.67218E-09 -2.67476E-09 -2.67739E-09 -2.68005E-09 -2.68267E-09 -2.68525E-09 -2.68775E-09 -2.69014E-09 -2.69238E-09 -2.69445E-09
  -2.69632E-09 -2.69795E-09 -2.69932E-09 -2.70040E-09 -2.70116E-09 -2.70158E-09 -2.70161E-09 -2.70125E-09 -2.70046E-09 -2.69922E-09
  -2.69749E-09 -2.69526E-09 -2.69250E-09 -2.68920E-09 -2.68532E-09 -2.68083E-09 -2.67573E-09 -2.66997E-09 -2.66356E-09 -2.65647E-09
  -2.64870E-09 -2.64021E-09 -2.63101E-09 -2.62107E-09 -2.61038E-09 -2.59893E-09 -2.58671E-09 -2.57371E-09 -2.55991E-09 -2.54529E-09
  -2.52986E-09 -2.51360E-09 -2.49649E-09 -2.47853E-09 -2.45970E-09 -2.44000E-09 -2.41942E-09 -2.39795E-09 -2.37558E-09 -2.35229E-09
  -2.32809E-09 -2.30297E-09 -2.27691E-09 -2.24991E-09 -2.22197E-09 -2.19307E-09 -2.16322E-09 -2.13240E-09 -2.10062E-09 -2.06785E-09
  -2.03412E-09 -1.99940E-09 -1.96369E-09 -1.92700E-09 -1.88932E-09 -1.85064E-09 -1.81096E-09 -1.77030E-09 -1.72863E-09 -1.68596E-09
  -1.64229E-09 -1.59762E-09 -1.55195E-09
 GABA     Conc. = 4.28E-10
   1.62690E-10  1.83058E-10  2.03710E-10  2.24630E-10  2.45798E-10  2.67195E-10  2.88796E-10  3.10573E-10  3.32494E-10  3.54529E-10
   3.76643E-10  3.98778E-10  4.20911E-10  4.42971E-10  4.64897E-10  4.86639E-10  5.08069E-10  5.29058E-10  5.49513E-10  5.69253E-10
   5.88064E-10  6.05720E-10  6.21891E-10  6.36162E-10  6.48068E-10  6.56895E-10  6.61895E-10  6.62645E-10  6.62198E-10  7.00216E-10
   7.82617E-10  8.36374E-10  9.21105E-10  1.09362E-09  1.27142E-09  1.43593E-09  1.61739E-09  1.81106E-09  1.99235E-09  2.12750E-09
   2.20327E-09  2.30092E-09  2.39689E-09  2.34371E-09  2.28956E-09  2.31316E-09  2.28293E-09  2.22955E-09  2.20110E-09  2.18852E-09
   2.18611E-09  2.19056E-09  2.19965E-09  2.21199E-09  2.22661E-09  2.24265E-09  2.25943E-09  2.27640E-09  2.29323E-09  2.31035E-09
   2.33066E-09  2.37257E-09  2.49022E-09  2.60930E-09  2.70192E-09  2.88146E-09  3.08903E-09  3.25136E-09  3.40114E-09  3.55169E-09
   3.69185E-09  3.79325E-09  3.82600E-09  3.82247E-09  3.88211E-09  3.84105E-09  3.70055E-09  3.69132E-09  3.68861E-09  3.63892E-09
   3.64610E-09  3.66476E-09  3.67032E-09  3.74042E-09  3.84030E-09  3.91392E-09  4.01144E-09  4.13369E-09  4.25484E-09  4.37363E-09
   4.46073E-09  4.53640E-09  4.65277E-09  4.70888E-09  4.68643E-09  4.73900E-09  4.77615E-09  4.73577E-09  4.73110E-09  4.74101E-09
   4.73362E-09  4.73244E-09  4.73811E-09  4.74849E-09  4.76206E-09  4.77764E-09  4.79448E-09  4.81204E-09  4.82994E-09  4.84787E-09
   4.86555E-09  4.88263E-09  4.89892E-09  4.91423E-09  4.92841E-09  4.94136E-09  4.95294E-09  4.96299E-09  4.97139E-09  4.97801E-09
   4.98274E-09  4.98550E-09  4.98617E-09  4.98466E-09  4.98086E-09  4.97468E-09  4.96603E-09  4.95482E-09  4.94094E-09  4.92432E-09
   4.90486E-09  4.88249E-09  4.85711E-09  4.82863E-09  4.79698E-09  4.76208E-09  4.72383E-09  4.68220E-09  4.63723E-09  4.58900E-09
   4.53756E-09  4.48298E-09  4.42533E-09  4.36466E-09  4.30106E-09  4.23459E-09  4.16534E-09  4.09337E-09  4.01878E-09  3.94162E-09
   3.86201E-09  3.78000E-09  3.69570E-09  3.60919E-09  3.52055E-09  3.42990E-09  3.33732E-09  3.24294E-09  3.14687E-09  3.04924E-09
   2.95028E-09  2.85021E-09  2.74951E-09  2.64904E-09  2.55094E-09  2.46215E-09  2.41844E-09  2.53808E-09  2.67441E-09  2.71849E-09
   2.66413E-09  2.55385E-09  2.43351E-09  2.32992E-09  2.24572E-09  2.15138E-09  1.97792E-09  1.64827E-09  1.23226E-09  1.03329E-09
   8.89768E-10  7.63135E-10  6.44103E-10  5.29422E-10  4.17664E-10  3.08122E-10  2.00429E-10  9.43506E-11 -1.02104E-11 -1.13338E-10
  -2.15043E-10 -3.15362E-10 -4.14253E-10 -5.11730E-10 -6.07757E-10 -7.02312E-10 -7.95353E-10 -8.86854E-10 -9.76772E-10 -1.06508E-09
  -1.15173E-09 -1.23668E-09 -1.31991E-09 -1.40135E-09 -1.48098E-09 -1.55877E-09 -1.63467E-09 -1.70863E-09 -1.78064E-09 -1.85063E-09
  -1.91858E-09 -1.98445E-09 -2.04822E-09 -2.10985E-09 -2.16927E-09 -2.22649E-09 -2.28146E-09 -2.33416E-09 -2.38455E-09 -2.43258E-09
  -2.47827E-09 -2.52154E-09 -2.56239E-09 -2.60080E-09 -2.63675E-09 -2.67017E-09 -2.70109E-09 -2.72948E-09 -2.75539E-09 -2.77890E-09
  -2.80010E-09 -2.81908E-09 -2.83593E-09 -2.85074E-09 -2.86358E-09 -2.87455E-09 -2.88374E-09 -2.89122E-09 -2.89708E-09 -2.90142E-09
