 LCModel (Version 6.3-1R) Copyright: S.W. Provencher.          Ref.: Magn. Reson. Med. 30:672-679 (1993).                
 onepulse 25x9_ftSpec_smooth_lcm
 26 lines in following concentration table = NCONC+1
    Conc.  %SD   /Cr    Metabolite                                         
    0.000 999%   0.000 Ala                                                 
 7.67E-10  97%   0.000 Asp                                                 
    0.000 999%   0.000 Cr                                                  
 6.17E-10  83%   0.000 GABA                                                
    0.000 999%   0.000 Glc                                                 
 1.87E-09  31%   0.000 Gln                                                 
    0.000 999%   0.000 Glu                                                 
 1.43E-10 999%   0.000 Glyc                                                
    0.000 999%   0.000 GPC                                                 
 1.50E-09  34%   0.000 GSH                                                 
 1.89E-09  74%   0.000 Ins                                                 
    0.000 999%   0.000 Lac                                                 
 5.28E-10  37%   0.000 NAAG                                                
    0.000 999%   0.000 NAA                                                 
 8.73E-11 314%   0.000 PCh                                                 
    0.000 999%   0.000 PCr                                                 
 1.29E-09 161%   0.000 PE                                                  
 2.95E-10  83%   0.000 Scyllo                                              
 4.81E-10 268%   0.000 Ser                                                 
 1.14E-09  82%   0.000 Tau                                                 
 8.73E-11 314%   0.000 GPC+PCh                                             
 5.28E-10  37%   0.000 NAA+NAAG                                            
 2.03E-09  22%   0.000 Ins+Glyc                                            
    0.000 999%   0.000 Cr+PCr                                              
 1.87E-09  31%   0.000 Glu+Gln                                             
   6 lines in following misc. output table
  FWHM = 0.123 ppm    S/N =   4                                            
  Data shift = 0.436 ppm                                                   
  Ph:   2 deg     -42.1 deg/ppm                                            
  alphaB,S = 4.0E-01,   1.3E+01                                            
   10 spline knots.   Ns = 5(1)                                            
  (12) 6 infls.   (11) 3 extrs.                                            
  363 points on ppm-axis = NY
      4.250000     4.238821     4.227641     4.216462     4.205282     4.194103     4.182923     4.171744     4.160564     4.149385
      4.138206     4.127026     4.115847     4.104667     4.093488     4.082308     4.071129     4.059949     4.048770     4.037591
      4.026411     4.015232     4.004052     3.992873     3.981693     3.970514     3.959334     3.948155     3.936975     3.925796
      3.914617     3.903437     3.892258     3.881078     3.869899     3.858719     3.847540     3.836360     3.825181     3.814002
      3.802822     3.791643     3.780463     3.769284     3.758104     3.746925     3.735745     3.724566     3.713387     3.702207
      3.691028     3.679848     3.668669     3.657489     3.646310     3.635130     3.623951     3.612772     3.601592     3.590413
      3.579233     3.568054     3.556874     3.545695     3.534515     3.523336     3.512156     3.500977     3.489798     3.478618
      3.467439     3.456259     3.445080     3.433900     3.422721     3.411541     3.400362     3.389183     3.378003     3.366824
      3.355644     3.344465     3.333285     3.322106     3.310926     3.299747     3.288568     3.277388     3.266209     3.255029
      3.243850     3.232670     3.221491     3.210311     3.199132     3.187953     3.176773     3.165594     3.154414     3.143235
      3.132055     3.120876     3.109696     3.098517     3.087337     3.076158     3.064979     3.053799     3.042620     3.031440
      3.020261     3.009081     2.997902     2.986722     2.975543     2.964364     2.953184     2.942005     2.930825     2.919646
      2.908466     2.897287     2.886107     2.874928     2.863749     2.852569     2.841390     2.830210     2.819031     2.807851
      2.796672     2.785492     2.774313     2.763134     2.751954     2.740775     2.729595     2.718416     2.707236     2.696057
      2.684877     2.673698     2.662519     2.651339     2.640160     2.628980     2.617801     2.606621     2.595442     2.584262
      2.573083     2.561903     2.550724     2.539545     2.528365     2.517186     2.506006     2.494827     2.483647     2.472468
      2.461288     2.450109     2.438930     2.427750     2.416571     2.405391     2.394212     2.383032     2.371853     2.360673
      2.349494     2.338315     2.327135     2.315956     2.304776     2.293597     2.282417     2.271238     2.260058     2.248879
      2.237700     2.226520     2.215341     2.204161     2.192982     2.181802     2.170623     2.159443     2.148264     2.137084
      2.125905     2.114726     2.103546     2.092367     2.081187     2.070008     2.058828     2.047649     2.036469     2.025290
      2.014111     2.002931     1.991752     1.980572     1.969393     1.958213     1.947034     1.935854     1.924675     1.913496
      1.902316     1.891137     1.879957     1.868778     1.857598     1.846419     1.835239     1.824060     1.812881     1.801701
      1.790522     1.779342     1.768163     1.756983     1.745804     1.734624     1.723445     1.712265     1.701086     1.689907
      1.678727     1.667548     1.656368     1.645189     1.634009     1.622830     1.611650     1.600471     1.589292     1.578112
      1.566933     1.555753     1.544574     1.533394     1.522215     1.511035     1.499856     1.488677     1.477497     1.466318
      1.455138     1.443959     1.432779     1.421600     1.410420     1.399241     1.388062     1.376882     1.365703     1.354523
      1.343344     1.332164     1.320985     1.309805     1.298626     1.287446     1.276267     1.265088     1.253908     1.242729
      1.231549     1.220370     1.209190     1.198011     1.186831     1.175652     1.164473     1.153293     1.142114     1.130934
      1.119755     1.108575     1.097396     1.086216     1.075037     1.063858     1.052678     1.041499     1.030319     1.019140
      1.007960     0.996781     0.985601     0.974422     0.963243     0.952063     0.940884     0.929704     0.918525     0.907345
      0.896166     0.884986     0.873807     0.862628     0.851448     0.840269     0.829089     0.817910     0.806730     0.795551
      0.784371     0.773192     0.762012     0.750833     0.739654     0.728474     0.717295     0.706115     0.694936     0.683756
      0.672577     0.661397     0.650218     0.639039     0.627859     0.616680     0.605500     0.594321     0.583141     0.571962
      0.560782     0.549603     0.538424     0.527244     0.516065     0.504885     0.493706     0.482526     0.471347     0.460167
      0.448988     0.437809     0.426629     0.415450     0.404270     0.393091     0.381911     0.370732     0.359552     0.348373
      0.337193     0.326014     0.314835     0.303655     0.292476     0.281296     0.270117     0.258937     0.247758     0.236578
      0.225399     0.214220     0.203040
 NY phased data points follow
   1.04796E-08  1.08767E-08  1.09445E-08  1.11549E-08  1.22604E-08  1.26584E-08  1.23571E-08  1.27348E-08  1.23529E-08  1.16659E-08
   1.18751E-08  1.19974E-08  1.15431E-08  1.09865E-08  1.11121E-08  1.04276E-08  1.16863E-08  1.15844E-08  1.21113E-08  1.11747E-08
   1.12934E-08  1.02605E-08  1.11369E-08  1.15744E-08  1.44669E-08  1.39132E-08  1.41720E-08  1.28392E-08  1.23199E-08  1.09047E-08
   1.07513E-08  9.97068E-09  1.01611E-08  9.37696E-09  9.52102E-09  9.35221E-09  9.34861E-09  8.49213E-09  8.76708E-09  7.39766E-09
   7.81178E-09  7.40998E-09  8.16820E-09  7.39767E-09  8.18984E-09  6.44119E-09  7.92798E-09  6.23125E-09  6.89491E-09  5.07473E-09
   7.18697E-09  6.17850E-09  7.71282E-09  6.32553E-09  8.94813E-09  1.05615E-08  1.37213E-08  1.22637E-08  1.31939E-08  1.08199E-08
   1.08441E-08  8.94089E-09  9.74720E-09  8.58643E-09  8.56349E-09  7.07307E-09  7.18514E-09  5.85996E-09  6.96636E-09  4.59161E-09
   6.61574E-09  7.76285E-09  1.38718E-08  1.50490E-08  1.63031E-08  1.38149E-08  1.49223E-08  1.34323E-08  1.38359E-08  1.21674E-08
   1.35065E-08  1.23090E-08  1.33846E-08  1.12970E-08  1.27090E-08  1.02476E-08  1.26811E-08  9.70675E-09  1.14577E-08  9.23747E-09
   1.00376E-08  8.36485E-09  9.23251E-09  7.76371E-09  9.43480E-09  7.93566E-09  9.17118E-09  7.11410E-09  9.11747E-09  7.81609E-09
   8.66462E-09  7.01697E-09  7.64629E-09  5.37923E-09  6.36858E-09  5.18622E-09  6.98359E-09  5.48336E-09  6.61480E-09  6.01175E-09
   7.79215E-09  5.84561E-09  7.55634E-09  6.08434E-09  7.93395E-09  6.03890E-09  7.66024E-09  5.34311E-09  6.30583E-09  4.02305E-09
   5.76703E-09  4.21155E-09  6.14791E-09  4.50795E-09  5.93764E-09  4.02384E-09  6.55477E-09  5.08965E-09  5.75085E-09  3.91316E-09
   5.25342E-09  3.75514E-09  5.97155E-09  6.10731E-09  7.92050E-09  6.30517E-09  7.19674E-09  6.28059E-09  8.63194E-09  7.69829E-09
   8.88602E-09  7.57919E-09  9.29726E-09  7.62857E-09  9.04972E-09  8.01623E-09  8.70284E-09  7.89530E-09  8.95111E-09  7.58229E-09
   8.54478E-09  6.93102E-09  8.05822E-09  6.72897E-09  8.30072E-09  7.28447E-09  7.94324E-09  6.33411E-09  6.69640E-09  6.52818E-09
   6.42466E-09  3.57037E-09  3.11999E-09  5.77553E-09  1.33082E-08  1.63781E-08  1.84973E-08  1.83591E-08  1.91459E-08  1.85335E-08
   1.93166E-08  1.89945E-08  1.96579E-08  1.84947E-08  1.96024E-08  1.79076E-08  1.83992E-08  1.73236E-08  1.69202E-08  1.47816E-08
   1.39683E-08  1.22037E-08  1.04701E-08  8.37386E-09  6.78950E-09  3.87363E-09  2.28114E-09 -1.48546E-10 -1.23256E-09 -3.23823E-09
  -4.35556E-09 -5.91316E-09 -6.15803E-09 -7.64752E-09 -7.04063E-09 -7.48600E-09 -6.74389E-09 -6.63571E-09 -5.92845E-09 -5.56237E-09
  -3.81023E-09 -4.12348E-09 -2.79936E-09 -2.68892E-09 -1.76470E-09 -2.27692E-09 -1.90773E-09 -1.75241E-09 -1.32946E-09 -1.78435E-09
  -1.46132E-09 -1.75595E-09 -1.37121E-09 -1.50210E-09 -1.47649E-09 -1.18052E-09 -1.35999E-09 -1.27509E-09 -5.45825E-10 -9.58958E-10
  -8.47083E-10 -1.83981E-09 -1.27693E-09 -1.05547E-09 -8.25830E-10 -9.36011E-10 -1.17146E-09 -1.10581E-09 -1.21267E-09 -9.10217E-10
  -3.51362E-10 -8.50082E-10 -1.04001E-09 -1.39088E-09 -9.28183E-10 -1.30127E-09 -1.25109E-09 -1.32916E-09 -1.09611E-09 -1.41950E-09
  -1.14358E-09 -1.45478E-09 -1.03860E-09 -1.08762E-09 -9.24738E-10 -9.89534E-10 -8.52890E-10 -6.26575E-10 -8.60449E-10 -5.93746E-10
  -1.38690E-09 -3.85373E-10 -7.01125E-10 -4.89078E-10 -1.31462E-09 -5.74017E-10 -1.21339E-09 -7.41525E-10 -1.37086E-09 -1.41014E-09
  -1.79546E-09 -1.96118E-09 -2.36543E-09 -2.01473E-09 -2.12285E-09 -1.99020E-09 -2.25293E-09 -1.74804E-09 -2.27346E-09 -1.03627E-09
  -1.04947E-09 -4.62258E-10 -1.13518E-09 -1.24362E-10 -3.91408E-10  3.46686E-11 -4.50543E-10  2.47140E-10 -4.24459E-10 -1.78240E-10
  -6.83136E-10  3.11572E-10 -6.20990E-10  3.57403E-10 -6.23864E-10  2.85603E-10 -6.62000E-10 -4.79837E-10 -1.18092E-10 -2.50462E-10
  -9.41525E-10  3.24544E-10 -6.19486E-10 -4.72703E-10 -7.02412E-10 -3.38938E-10 -7.22889E-10 -3.48717E-10 -8.47576E-10 -7.08069E-11
  -1.23362E-09 -5.23762E-10 -1.01016E-09 -4.65605E-10 -1.08236E-09 -6.10063E-10 -1.15019E-09 -5.74090E-10 -1.07366E-09 -6.37543E-10
  -1.02596E-09 -7.41167E-10 -1.09830E-09 -9.87903E-10 -1.27574E-09 -7.11277E-10 -1.51053E-09 -3.97764E-10 -1.04397E-09 -7.35103E-10
  -1.71021E-09 -1.08764E-09 -1.16913E-09 -7.78948E-10 -1.36993E-09 -6.18308E-10 -1.78303E-09 -6.51379E-10 -1.61636E-09 -5.63109E-10
  -1.42251E-09 -1.16912E-09 -1.75697E-09 -1.25440E-09 -1.34278E-09 -8.61078E-10 -1.68437E-09 -1.04385E-09 -1.58496E-09 -1.08384E-09
  -1.79239E-09 -1.02807E-09 -1.28856E-09 -1.07354E-09 -1.86700E-09 -1.48756E-09 -1.50849E-09 -1.00696E-09 -2.24517E-09 -8.86579E-10
  -2.14441E-09 -1.34087E-09 -2.20565E-09 -1.00458E-09 -2.11159E-09 -1.66120E-09 -2.20459E-09 -9.24562E-10 -1.70986E-09 -1.42507E-09
  -1.94286E-09 -1.23229E-09 -2.18996E-09
 NY points of the fit to the data follow
   1.16278E-08  1.14922E-08  1.10301E-08  1.08289E-08  1.16940E-08  1.21582E-08  1.18177E-08  1.25795E-08  1.47005E-08  1.25890E-08
   1.10624E-08  1.09223E-08  1.05130E-08  1.10216E-08  1.15729E-08  1.09081E-08  1.10190E-08  1.22384E-08  1.26573E-08  1.08276E-08
   1.02059E-08  1.13102E-08  1.19737E-08  1.26213E-08  1.32223E-08  1.34781E-08  1.35173E-08  1.30926E-08  1.23007E-08  1.13806E-08
   1.11588E-08  1.06466E-08  1.00042E-08  9.80038E-09  9.47559E-09  8.56351E-09  8.46402E-09  8.39195E-09  8.26532E-09  8.12202E-09
   7.91199E-09  7.98486E-09  8.22196E-09  8.00909E-09  7.59022E-09  7.15127E-09  6.92887E-09  6.05638E-09  6.07313E-09  6.31803E-09
   6.90907E-09  7.38987E-09  7.71537E-09  8.77614E-09  9.64070E-09  9.41701E-09  1.00604E-08  1.09783E-08  1.11012E-08  1.07560E-08
   1.08905E-08  1.06324E-08  1.05150E-08  1.03987E-08  9.57555E-09  9.20747E-09  9.47428E-09  8.82564E-09  8.31785E-09  8.84719E-09
   9.67432E-09  9.99855E-09  1.05883E-08  1.11756E-08  1.20093E-08  1.30338E-08  1.42029E-08  1.44428E-08  1.43978E-08  1.43591E-08
   1.39875E-08  1.33413E-08  1.28669E-08  1.24112E-08  1.17899E-08  1.12520E-08  1.03841E-08  8.80309E-09  8.23212E-09  8.01908E-09
   7.78492E-09  7.59396E-09  7.59722E-09  7.52388E-09  7.24926E-09  7.22986E-09  7.20536E-09  7.01752E-09  6.96359E-09  6.91183E-09
   6.84196E-09  6.81876E-09  6.80403E-09  6.79015E-09  6.78687E-09  6.79093E-09  6.79936E-09  6.81121E-09  6.82446E-09  6.83889E-09
   6.85406E-09  6.86934E-09  6.88448E-09  6.89917E-09  6.91316E-09  6.92636E-09  6.93857E-09  6.94958E-09  6.95926E-09  6.96748E-09
   6.97411E-09  6.97910E-09  6.98233E-09  6.98371E-09  6.98316E-09  6.98061E-09  6.97598E-09  6.96920E-09  6.96021E-09  6.94894E-09
   6.93533E-09  6.91932E-09  6.90087E-09  6.87992E-09  6.85642E-09  6.83032E-09  6.80159E-09  6.77015E-09  6.73600E-09  6.69908E-09
   6.65937E-09  6.61683E-09  6.57146E-09  6.52323E-09  6.47211E-09  6.41813E-09  6.36130E-09  6.30164E-09  6.23921E-09  6.17409E-09
   6.10638E-09  6.03626E-09  5.96395E-09  5.88978E-09  5.81423E-09  5.73795E-09  5.66196E-09  5.58786E-09  5.51814E-09  5.45662E-09
   5.40969E-09  5.38871E-09  5.41599E-09  5.54146E-09  5.90055E-09  6.99273E-09  1.15654E-08  1.99237E-08  2.08408E-08  1.99363E-08
   1.96825E-08  1.95800E-08  1.94637E-08  1.92708E-08  1.91556E-08  1.93023E-08  1.95710E-08  1.58565E-08  7.22738E-09  4.87420E-09
   3.94910E-09  3.42428E-09  3.05991E-09  2.77487E-09  2.53472E-09  2.32256E-09  2.12914E-09  1.94903E-09  1.77894E-09  1.61669E-09
   1.46085E-09  1.31048E-09  1.16488E-09  1.02367E-09  8.86477E-10  7.53139E-10  6.23523E-10  4.97586E-10  3.75273E-10  2.56625E-10
   1.41669E-10  3.04600E-11 -7.69211E-11 -1.80399E-10 -2.79870E-10 -3.75237E-10 -4.66358E-10 -5.53170E-10 -6.35553E-10 -7.13631E-10
  -7.87499E-10 -8.57270E-10 -9.23043E-10 -9.84931E-10 -1.04302E-09 -1.09744E-09 -1.14825E-09 -1.19557E-09 -1.23949E-09 -1.28012E-09
  -1.31752E-09 -1.35181E-09 -1.38309E-09 -1.41143E-09 -1.43693E-09 -1.45969E-09 -1.47978E-09 -1.49732E-09 -1.51240E-09 -1.52507E-09
  -1.53545E-09 -1.54364E-09 -1.54970E-09 -1.55374E-09 -1.55585E-09 -1.55611E-09 -1.55462E-09 -1.55145E-09 -1.54670E-09 -1.54047E-09
  -1.53282E-09 -1.52386E-09 -1.51367E-09 -1.50235E-09 -1.48997E-09 -1.47663E-09 -1.46242E-09 -1.44744E-09 -1.43173E-09 -1.41541E-09
  -1.39858E-09 -1.38131E-09 -1.36370E-09 -1.34580E-09 -1.32777E-09 -1.30962E-09 -1.29148E-09 -1.27343E-09 -1.25556E-09 -1.23796E-09
  -1.22067E-09 -1.20369E-09 -1.18705E-09 -1.17074E-09 -1.15478E-09 -1.13916E-09 -1.12389E-09 -1.10898E-09 -1.09443E-09 -1.08026E-09
  -1.06647E-09 -1.05305E-09 -1.04003E-09 -1.02740E-09 -1.01517E-09 -1.00335E-09 -9.91940E-10 -9.80949E-10 -9.70380E-10 -9.60247E-10
  -9.50542E-10 -9.41287E-10 -9.32471E-10 -9.24109E-10 -9.16213E-10 -9.08783E-10 -9.01817E-10 -8.95329E-10 -8.89329E-10 -8.83820E-10
  -8.78802E-10 -8.74281E-10 -8.70266E-10 -8.66771E-10 -8.63785E-10 -8.61332E-10 -8.59401E-10 -8.58006E-10 -8.57150E-10 -8.56846E-10
  -8.57098E-10 -8.57894E-10 -8.59267E-10 -8.61202E-10 -8.63711E-10 -8.66810E-10 -8.70495E-10 -8.74763E-10 -8.79643E-10 -8.85115E-10
  -8.91205E-10 -8.97918E-10 -9.05227E-10 -9.13126E-10 -9.21600E-10 -9.30634E-10 -9.40212E-10 -9.50317E-10 -9.60935E-10 -9.72049E-10
  -9.83648E-10 -9.95709E-10 -1.00822E-09 -1.02117E-09 -1.03453E-09 -1.04830E-09 -1.06246E-09 -1.07699E-09 -1.09187E-09 -1.10710E-09
  -1.12265E-09 -1.13851E-09 -1.15466E-09 -1.17110E-09 -1.18779E-09 -1.20473E-09 -1.22191E-09 -1.23930E-09 -1.25689E-09 -1.27467E-09
  -1.29261E-09 -1.31071E-09 -1.32895E-09 -1.34731E-09 -1.36578E-09 -1.38433E-09 -1.40297E-09 -1.42166E-09 -1.44040E-09 -1.45917E-09
  -1.47795E-09 -1.49673E-09 -1.51549E-09 -1.53421E-09 -1.55289E-09 -1.57151E-09 -1.59004E-09 -1.60848E-09 -1.62681E-09 -1.64501E-09
  -1.66307E-09 -1.68097E-09 -1.69870E-09
 NY background values follow
    -3.262E-09   -3.162E-09   -3.063E-09   -2.963E-09   -2.864E-09   -2.764E-09   -2.665E-09   -2.565E-09   -2.466E-09   -2.366E-09
    -2.267E-09   -2.167E-09   -2.068E-09   -1.968E-09   -1.869E-09   -1.769E-09   -1.670E-09   -1.571E-09   -1.472E-09   -1.373E-09
    -1.274E-09   -1.175E-09   -1.076E-09   -9.780E-10   -8.797E-10   -7.815E-10   -6.835E-10   -5.857E-10   -4.881E-10   -3.907E-10
    -2.935E-10   -1.966E-10   -9.986E-11   -3.383E-12    9.285E-11    1.888E-10    2.845E-10    3.799E-10    4.750E-10    5.698E-10
     6.643E-10    7.584E-10    8.523E-10    9.457E-10    1.039E-09    1.132E-09    1.224E-09    1.316E-09    1.408E-09    1.499E-09
     1.590E-09    1.680E-09    1.770E-09    1.859E-09    1.948E-09    2.037E-09    2.125E-09    2.212E-09    2.299E-09    2.386E-09
     2.471E-09    2.557E-09    2.641E-09    2.725E-09    2.808E-09    2.891E-09    2.973E-09    3.054E-09    3.135E-09    3.214E-09
     3.293E-09    3.372E-09    3.449E-09    3.525E-09    3.601E-09    3.676E-09    3.750E-09    3.823E-09    3.895E-09    3.966E-09
     4.036E-09    4.106E-09    4.174E-09    4.241E-09    4.307E-09    4.373E-09    4.437E-09    4.500E-09    4.562E-09    4.622E-09
     4.682E-09    4.740E-09    4.798E-09    4.854E-09    4.909E-09    4.962E-09    5.014E-09    5.066E-09    5.115E-09    5.164E-09
     5.211E-09    5.257E-09    5.301E-09    5.344E-09    5.386E-09    5.426E-09    5.464E-09    5.501E-09    5.537E-09    5.571E-09
     5.603E-09    5.634E-09    5.662E-09    5.689E-09    5.714E-09    5.738E-09    5.759E-09    5.778E-09    5.795E-09    5.811E-09
     5.824E-09    5.834E-09    5.843E-09    5.849E-09    5.854E-09    5.855E-09    5.855E-09    5.851E-09    5.846E-09    5.838E-09
     5.827E-09    5.814E-09    5.798E-09    5.779E-09    5.757E-09    5.733E-09    5.706E-09    5.676E-09    5.643E-09    5.607E-09
     5.568E-09    5.526E-09    5.481E-09    5.432E-09    5.381E-09    5.326E-09    5.268E-09    5.206E-09    5.141E-09    5.073E-09
     5.001E-09    4.926E-09    4.847E-09    4.764E-09    4.678E-09    4.588E-09    4.495E-09    4.397E-09    4.296E-09    4.192E-09
     4.085E-09    3.975E-09    3.862E-09    3.746E-09    3.627E-09    3.507E-09    3.383E-09    3.258E-09    3.131E-09    3.002E-09
     2.872E-09    2.740E-09    2.606E-09    2.472E-09    2.336E-09    2.200E-09    2.063E-09    1.925E-09    1.787E-09    1.649E-09
     1.510E-09    1.372E-09    1.234E-09    1.096E-09    9.589E-10    8.224E-10    6.866E-10    5.518E-10    4.181E-10    2.858E-10
     1.548E-10    2.550E-11   -1.021E-10   -2.278E-10   -3.514E-10   -4.729E-10   -5.920E-10   -7.085E-10   -8.224E-10   -9.335E-10
    -1.042E-09   -1.147E-09   -1.248E-09   -1.346E-09   -1.441E-09   -1.532E-09   -1.619E-09   -1.702E-09   -1.781E-09   -1.856E-09
    -1.926E-09   -1.993E-09   -2.056E-09   -2.116E-09   -2.171E-09   -2.223E-09   -2.272E-09   -2.317E-09   -2.359E-09   -2.398E-09
    -2.434E-09   -2.466E-09   -2.496E-09   -2.523E-09   -2.547E-09   -2.568E-09   -2.587E-09   -2.603E-09   -2.617E-09   -2.628E-09
    -2.637E-09   -2.644E-09   -2.649E-09   -2.652E-09   -2.653E-09   -2.652E-09   -2.650E-09   -2.646E-09   -2.640E-09   -2.633E-09
    -2.624E-09   -2.615E-09   -2.604E-09   -2.591E-09   -2.578E-09   -2.564E-09   -2.549E-09   -2.533E-09   -2.517E-09   -2.500E-09
    -2.482E-09   -2.464E-09   -2.446E-09   -2.427E-09   -2.409E-09   -2.390E-09   -2.371E-09   -2.352E-09   -2.334E-09   -2.316E-09
    -2.298E-09   -2.280E-09   -2.263E-09   -2.246E-09   -2.229E-09   -2.213E-09   -2.197E-09   -2.182E-09   -2.167E-09   -2.152E-09
    -2.137E-09   -2.123E-09   -2.110E-09   -2.097E-09   -2.084E-09   -2.072E-09   -2.060E-09   -2.048E-09   -2.037E-09   -2.026E-09
    -2.016E-09   -2.006E-09   -1.997E-09   -1.988E-09   -1.980E-09   -1.972E-09   -1.964E-09   -1.957E-09   -1.951E-09   -1.944E-09
    -1.939E-09   -1.934E-09   -1.929E-09   -1.925E-09   -1.922E-09   -1.919E-09   -1.916E-09   -1.914E-09   -1.913E-09   -1.912E-09
    -1.912E-09   -1.912E-09   -1.913E-09   -1.915E-09   -1.917E-09   -1.919E-09   -1.922E-09   -1.926E-09   -1.930E-09   -1.935E-09
    -1.941E-09   -1.947E-09   -1.954E-09   -1.961E-09   -1.969E-09   -1.978E-09   -1.987E-09   -1.996E-09   -2.006E-09   -2.017E-09
    -2.028E-09   -2.039E-09   -2.051E-09   -2.064E-09   -2.077E-09   -2.090E-09   -2.103E-09   -2.117E-09   -2.132E-09   -2.146E-09
    -2.161E-09   -2.177E-09   -2.192E-09   -2.208E-09   -2.224E-09   -2.241E-09   -2.257E-09   -2.274E-09   -2.291E-09   -2.308E-09
    -2.326E-09   -2.343E-09   -2.361E-09   -2.378E-09   -2.396E-09   -2.414E-09   -2.432E-09   -2.450E-09   -2.469E-09   -2.487E-09
    -2.505E-09   -2.523E-09   -2.541E-09   -2.559E-09   -2.577E-09   -2.595E-09   -2.613E-09   -2.631E-09   -2.649E-09   -2.666E-09
    -2.684E-09   -2.701E-09   -2.718E-09
 Asp      Conc. = 7.67E-10
  -2.45667E-09 -2.51048E-09 -2.46313E-09 -2.49008E-09 -2.43616E-09 -2.41046E-09 -2.41858E-09 -2.41261E-09 -2.35241E-09 -2.27342E-09
  -2.18607E-09 -2.09451E-09 -2.00016E-09 -1.90233E-09 -1.80413E-09 -1.70563E-09 -1.60673E-09 -1.50743E-09 -1.40785E-09 -1.30798E-09
  -1.20788E-09 -1.10754E-09 -1.00696E-09 -9.06113E-10 -8.04985E-10 -7.03485E-10 -6.01539E-10 -4.99005E-10 -3.95713E-10 -2.91372E-10
  -1.85562E-10 -7.76915E-11  3.33797E-11  1.49630E-10  2.75340E-10  4.21683E-10  6.10901E-10  7.32068E-10  8.85756E-10  9.63180E-10
   1.04438E-09  1.16778E-09  1.38547E-09  1.64768E-09  1.98229E-09  2.28325E-09  2.28684E-09  2.24968E-09  2.52174E-09  2.61189E-09
   2.70961E-09  2.88578E-09  2.99168E-09  2.97021E-09  2.93563E-09  2.84593E-09  2.70327E-09  2.81365E-09  2.93591E-09  2.82463E-09
   2.83869E-09  2.89567E-09  2.89310E-09  2.95133E-09  3.06357E-09  3.15052E-09  3.16661E-09  3.21153E-09  3.26929E-09  3.33320E-09
   3.40040E-09  3.46946E-09  3.53955E-09  3.61014E-09  3.68090E-09  3.75156E-09  3.82195E-09  3.89193E-09  3.96140E-09  4.03025E-09
   4.09842E-09  4.16585E-09  4.23249E-09  4.29827E-09  4.36317E-09  4.42715E-09  4.49016E-09  4.55218E-09  4.61318E-09  4.67312E-09
   4.73199E-09  4.78975E-09  4.84638E-09  4.90185E-09  4.95615E-09  5.00925E-09  5.06112E-09  5.11175E-09  5.16110E-09  5.20917E-09
   5.25591E-09  5.30134E-09  5.34541E-09  5.38810E-09  5.42942E-09  5.46929E-09  5.50769E-09  5.54457E-09  5.57988E-09  5.61357E-09
   5.64561E-09  5.67593E-09  5.70451E-09  5.73129E-09  5.75622E-09  5.77926E-09  5.80037E-09  5.81949E-09  5.83658E-09  5.85160E-09
   5.86450E-09  5.87524E-09  5.88376E-09  5.89003E-09  5.89400E-09  5.89562E-09  5.89484E-09  5.89163E-09  5.88594E-09  5.87772E-09
   5.86692E-09  5.85350E-09  5.83742E-09  5.81862E-09  5.79708E-09  5.77273E-09  5.74554E-09  5.71546E-09  5.68244E-09  5.64645E-09
   5.60744E-09  5.56535E-09  5.52016E-09  5.47182E-09  5.42028E-09  5.36550E-09  5.30744E-09  5.24606E-09  5.18132E-09  5.11319E-09
   5.04162E-09  4.96660E-09  4.88809E-09  4.80605E-09  4.72051E-09  4.63143E-09  4.53889E-09  4.44306E-09  4.34428E-09  4.24291E-09
   4.13953E-09  4.03501E-09  3.93094E-09  3.83059E-09  3.74239E-09  3.69529E-09  3.84529E-09  4.41664E-09  4.38881E-09  4.19676E-09
   4.05624E-09  3.92683E-09  3.79661E-09  3.65787E-09  3.52436E-09  3.40315E-09  3.31382E-09  2.99439E-09  2.17020E-09  1.85596E-09
   1.65634E-09  1.48822E-09  1.33273E-09  1.18369E-09  1.03855E-09  8.96195E-10  7.56021E-10  6.17744E-10  4.81297E-10  3.46633E-10
   2.13776E-10  8.28238E-11 -4.61720E-11 -1.73050E-10 -2.97743E-10 -4.20100E-10 -5.39996E-10 -6.57275E-10 -7.71831E-10 -8.83491E-10
  -9.92119E-10 -1.09758E-09 -1.19970E-09 -1.29837E-09 -1.39341E-09 -1.48468E-09 -1.57202E-09 -1.65531E-09 -1.73442E-09 -1.80944E-09
  -1.88044E-09 -1.94753E-09 -2.01077E-09 -2.07028E-09 -2.12613E-09 -2.17841E-09 -2.22721E-09 -2.27262E-09 -2.31472E-09 -2.35361E-09
  -2.38937E-09 -2.42208E-09 -2.45184E-09 -2.47874E-09 -2.50286E-09 -2.52428E-09 -2.54309E-09 -2.55939E-09 -2.57328E-09 -2.58481E-09
  -2.59408E-09 -2.60119E-09 -2.60621E-09 -2.60925E-09 -2.61037E-09 -2.60969E-09 -2.60727E-09 -2.60320E-09 -2.59758E-09 -2.59049E-09
  -2.58202E-09 -2.57224E-09 -2.56126E-09 -2.54917E-09 -2.53603E-09 -2.52194E-09 -2.50701E-09 -2.49131E-09 -2.47490E-09 -2.45789E-09
  -2.44038E-09 -2.42245E-09 -2.40418E-09 -2.38565E-09 -2.36697E-09 -2.34820E-09 -2.32945E-09 -2.31079E-09 -2.29231E-09 -2.27412E-09
  -2.25624E-09 -2.23869E-09 -2.22147E-09 -2.20459E-09 -2.18806E-09 -2.17189E-09 -2.15606E-09 -2.14061E-09 -2.12552E-09 -2.11080E-09
  -2.09648E-09 -2.08253E-09 -2.06898E-09 -2.05582E-09 -2.04307E-09 -2.03073E-09 -2.01880E-09 -2.00730E-09 -1.99622E-09 -1.98557E-09
  -1.97536E-09 -1.96560E-09 -1.95628E-09 -1.94742E-09 -1.93902E-09 -1.93109E-09 -1.92362E-09 -1.91664E-09 -1.91014E-09 -1.90414E-09
  -1.89862E-09 -1.89361E-09 -1.88910E-09 -1.88511E-09 -1.88163E-09 -1.87868E-09 -1.87625E-09 -1.87436E-09 -1.87301E-09 -1.87221E-09
  -1.87197E-09 -1.87227E-09 -1.87315E-09 -1.87458E-09 -1.87660E-09 -1.87920E-09 -1.88238E-09 -1.88615E-09 -1.89053E-09 -1.89550E-09
  -1.90109E-09 -1.90730E-09 -1.91410E-09 -1.92150E-09 -1.92946E-09 -1.93798E-09 -1.94705E-09 -1.95664E-09 -1.96675E-09 -1.97735E-09
  -1.98843E-09 -1.99997E-09 -2.01196E-09 -2.02439E-09 -2.03723E-09 -2.05047E-09 -2.06410E-09 -2.07810E-09 -2.09245E-09 -2.10714E-09
  -2.12215E-09 -2.13748E-09 -2.15309E-09 -2.16898E-09 -2.18513E-09 -2.20152E-09 -2.21815E-09 -2.23499E-09 -2.25202E-09 -2.26924E-09
  -2.28662E-09 -2.30416E-09 -2.32183E-09 -2.33962E-09 -2.35751E-09 -2.37549E-09 -2.39355E-09 -2.41167E-09 -2.42982E-09 -2.44800E-09
  -2.46619E-09 -2.48437E-09 -2.50254E-09 -2.52067E-09 -2.53874E-09 -2.55675E-09 -2.57468E-09 -2.59250E-09 -2.61021E-09 -2.62779E-09
  -2.64523E-09 -2.66250E-09 -2.67960E-09
 GABA     Conc. = 6.17E-10
  -3.18141E-09 -3.08104E-09 -2.98053E-09 -2.87989E-09 -2.77911E-09 -2.67819E-09 -2.57714E-09 -2.47595E-09 -2.37461E-09 -2.27307E-09
  -2.17140E-09 -2.06951E-09 -1.96734E-09 -1.86501E-09 -1.76224E-09 -1.65916E-09 -1.55583E-09 -1.45175E-09 -1.34699E-09 -1.24153E-09
  -1.13483E-09 -1.02659E-09 -9.16287E-10 -8.03031E-10 -6.85400E-10 -5.61206E-10 -4.25585E-10 -2.68027E-10 -6.01222E-11  2.75760E-10
   3.78171E-10  5.00103E-10  1.01510E-09  1.22286E-09  1.22737E-09  1.49102E-09  1.67731E-09  1.76717E-09  1.84221E-09  1.85178E-09
   1.71041E-09  1.82566E-09  1.90995E-09  1.58833E-09  1.55306E-09  1.68317E-09  1.58610E-09  1.56843E-09  1.61153E-09  1.67780E-09
   1.75581E-09  1.84001E-09  1.92849E-09  2.02075E-09  2.11631E-09  2.21523E-09  2.31855E-09  2.42797E-09  2.54674E-09  2.68261E-09
   2.85323E-09  3.11283E-09  3.40132E-09  3.45073E-09  3.70341E-09  4.09632E-09  4.12488E-09  4.16527E-09  4.33262E-09  4.42509E-09
   4.47675E-09  4.50352E-09  4.41457E-09  4.28756E-09  4.41092E-09  4.31084E-09  4.06685E-09  4.14899E-09  4.20022E-09  4.22459E-09
   4.35142E-09  4.35213E-09  4.46257E-09  4.77199E-09  4.82882E-09  4.88967E-09  5.14543E-09  5.25923E-09  5.32878E-09  5.47303E-09
   5.52151E-09  5.50644E-09  5.64976E-09  5.68008E-09  5.51016E-09  5.58452E-09  5.63596E-09  5.50473E-09  5.49405E-09  5.51501E-09
   5.49571E-09  5.49602E-09  5.50908E-09  5.52909E-09  5.55307E-09  5.57914E-09  5.60631E-09  5.63391E-09  5.66145E-09  5.68862E-09
   5.71517E-09  5.74066E-09  5.76499E-09  5.78801E-09  5.80957E-09  5.82966E-09  5.84818E-09  5.86497E-09  5.87996E-09  5.89307E-09
   5.90422E-09  5.91337E-09  5.92045E-09  5.92540E-09  5.92814E-09  5.92864E-09  5.92684E-09  5.92268E-09  5.91610E-09  5.90706E-09
   5.89549E-09  5.88136E-09  5.86462E-09  5.84521E-09  5.82309E-09  5.79821E-09  5.77052E-09  5.73996E-09  5.70651E-09  5.67010E-09
   5.63070E-09  5.58825E-09  5.54272E-09  5.49406E-09  5.44221E-09  5.38714E-09  5.32881E-09  5.26717E-09  5.20219E-09  5.13382E-09
   5.06202E-09  4.98677E-09  4.90803E-09  4.82578E-09  4.73999E-09  4.65066E-09  4.55783E-09  4.46167E-09  4.36245E-09  4.26053E-09
   4.15636E-09  4.05065E-09  3.94462E-09  3.84068E-09  3.74481E-09  3.67629E-09  3.73166E-09  4.20068E-09  4.18283E-09  4.00083E-09
   3.85794E-09  3.72628E-09  3.59488E-09  3.45560E-09  3.32025E-09  3.19093E-09  3.09848E-09  2.86095E-09  2.14383E-09  1.83952E-09
   1.64757E-09  1.48427E-09  1.33196E-09  1.18515E-09  1.04165E-09  9.00534E-10  7.61332E-10  6.23833E-10  4.88020E-10  3.53881E-10
   2.21464E-10  9.08827E-11 -3.77955E-11 -1.64400E-10 -2.88857E-10 -4.11007E-10 -5.30722E-10 -6.47841E-10 -7.62256E-10 -8.73790E-10
  -9.82307E-10 -1.08766E-09 -1.18970E-09 -1.28828E-09 -1.38325E-09 -1.47446E-09 -1.56174E-09 -1.64498E-09 -1.72404E-09 -1.79901E-09
  -1.86998E-09 -1.93703E-09 -2.00024E-09 -2.05972E-09 -2.11554E-09 -2.16780E-09 -2.21658E-09 -2.26196E-09 -2.30405E-09 -2.34292E-09
  -2.37866E-09 -2.41136E-09 -2.44111E-09 -2.46799E-09 -2.49210E-09 -2.51352E-09 -2.53232E-09 -2.54862E-09 -2.56250E-09 -2.57402E-09
  -2.58328E-09 -2.59039E-09 -2.59541E-09 -2.59844E-09 -2.59956E-09 -2.59887E-09 -2.59646E-09 -2.59239E-09 -2.58677E-09 -2.57967E-09
