 LCModel (Version 6.3-1R) Copyright: S.W. Provencher.          Ref.: Magn. Reson. Med. 30:672-679 (1993).                
 onepulse 26x17_ftSpec_smooth_lcm
 26 lines in following concentration table = NCONC+1
    Conc.  %SD /Cr+PCr  Metabolite                                         
    0.000 999%   0.000 Ala                                                 
    0.000 999%   0.000 Asp                                                 
    0.000 999%   0.000 Cr                                                  
    0.000 999%   0.000 GABA                                                
 2.47E-10 361%  78.400 Glc                                                 
 2.05E-09  34% 651.757 Gln                                                 
    0.000 999%   0.000 Glu                                                 
    0.000 999%   0.000 Glyc                                                
 1.83E-10  58%  58.236 GPC                                                 
    0.000 999%   0.000 GSH                                                 
 1.30E-09  43% 412.965 Ins                                                 
    0.000 999%   0.000 Lac                                                 
 3.37E-10  79% 106.964 NAAG                                                
    0.000 999%   0.000 NAA                                                 
    0.000 999%   0.000 PCh                                                 
 3.15E-12 999%   1.000 PCr                                                 
    0.000 999%   0.000 PE                                                  
 2.46E-10  89%  78.041 Scyllo                                              
 4.70E-09  18% 1.5E+03 Ser                                                 
    0.000 999%   0.000 Tau                                                 
 1.83E-10  58%  58.236 GPC+PCh                                             
 3.37E-10  79% 106.964 NAA+NAAG                                            
 1.30E-09  43% 412.965 Ins+Glyc                                            
 3.15E-12 999%   1.000 Cr+PCr                                              
 2.05E-09  34% 651.757 Glu+Gln                                             
   6 lines in following misc. output table
  FWHM = 0.089 ppm    S/N =   2                                            
  Data shift = 0.380 ppm                                                   
  Ph: -70 deg     -53.9 deg/ppm                                            
  alphaB,S = 5.4E+01,   7.8E+01                                            
    7 spline knots.   Ns = 5(1)                                            
  ( 8) 4 infls.   ( 3) 1 extrs.                                            
  363 points on ppm-axis = NY
      4.250000     4.238821     4.227641     4.216462     4.205282     4.194103     4.182923     4.171744     4.160564     4.149385
      4.138206     4.127026     4.115847     4.104667     4.093488     4.082308     4.071129     4.059949     4.048770     4.037591
      4.026411     4.015232     4.004052     3.992873     3.981693     3.970514     3.959334     3.948155     3.936975     3.925796
      3.914617     3.903437     3.892258     3.881078     3.869899     3.858719     3.847540     3.836360     3.825181     3.814002
      3.802822     3.791643     3.780463     3.769284     3.758104     3.746925     3.735745     3.724566     3.713387     3.702207
      3.691028     3.679848     3.668669     3.657489     3.646310     3.635130     3.623951     3.612772     3.601592     3.590413
      3.579233     3.568054     3.556874     3.545695     3.534515     3.523336     3.512156     3.500977     3.489798     3.478618
      3.467439     3.456259     3.445080     3.433900     3.422721     3.411541     3.400362     3.389183     3.378003     3.366824
      3.355644     3.344465     3.333285     3.322106     3.310926     3.299747     3.288568     3.277388     3.266209     3.255029
      3.243850     3.232670     3.221491     3.210311     3.199132     3.187953     3.176773     3.165594     3.154414     3.143235
      3.132055     3.120876     3.109696     3.098517     3.087337     3.076158     3.064979     3.053799     3.042620     3.031440
      3.020261     3.009081     2.997902     2.986722     2.975543     2.964364     2.953184     2.942005     2.930825     2.919646
      2.908466     2.897287     2.886107     2.874928     2.863749     2.852569     2.841390     2.830210     2.819031     2.807851
      2.796672     2.785492     2.774313     2.763134     2.751954     2.740775     2.729595     2.718416     2.707236     2.696057
      2.684877     2.673698     2.662519     2.651339     2.640160     2.628980     2.617801     2.606621     2.595442     2.584262
      2.573083     2.561903     2.550724     2.539545     2.528365     2.517186     2.506006     2.494827     2.483647     2.472468
      2.461288     2.450109     2.438930     2.427750     2.416571     2.405391     2.394212     2.383032     2.371853     2.360673
      2.349494     2.338315     2.327135     2.315956     2.304776     2.293597     2.282417     2.271238     2.260058     2.248879
      2.237700     2.226520     2.215341     2.204161     2.192982     2.181802     2.170623     2.159443     2.148264     2.137084
      2.125905     2.114726     2.103546     2.092367     2.081187     2.070008     2.058828     2.047649     2.036469     2.025290
      2.014111     2.002931     1.991752     1.980572     1.969393     1.958213     1.947034     1.935854     1.924675     1.913496
      1.902316     1.891137     1.879957     1.868778     1.857598     1.846419     1.835239     1.824060     1.812881     1.801701
      1.790522     1.779342     1.768163     1.756983     1.745804     1.734624     1.723445     1.712265     1.701086     1.689907
      1.678727     1.667548     1.656368     1.645189     1.634009     1.622830     1.611650     1.600471     1.589292     1.578112
      1.566933     1.555753     1.544574     1.533394     1.522215     1.511035     1.499856     1.488677     1.477497     1.466318
      1.455138     1.443959     1.432779     1.421600     1.410420     1.399241     1.388062     1.376882     1.365703     1.354523
      1.343344     1.332164     1.320985     1.309805     1.298626     1.287446     1.276267     1.265088     1.253908     1.242729
      1.231549     1.220370     1.209190     1.198011     1.186831     1.175652     1.164473     1.153293     1.142114     1.130934
      1.119755     1.108575     1.097396     1.086216     1.075037     1.063858     1.052678     1.041499     1.030319     1.019140
      1.007960     0.996781     0.985601     0.974422     0.963243     0.952063     0.940884     0.929704     0.918525     0.907345
      0.896166     0.884986     0.873807     0.862628     0.851448     0.840269     0.829089     0.817910     0.806730     0.795551
      0.784371     0.773192     0.762012     0.750833     0.739654     0.728474     0.717295     0.706115     0.694936     0.683756
      0.672577     0.661397     0.650218     0.639039     0.627859     0.616680     0.605500     0.594321     0.583141     0.571962
      0.560782     0.549603     0.538424     0.527244     0.516065     0.504885     0.493706     0.482526     0.471347     0.460167
      0.448988     0.437809     0.426629     0.415450     0.404270     0.393091     0.381911     0.370732     0.359552     0.348373
      0.337193     0.326014     0.314835     0.303655     0.292476     0.281296     0.270117     0.258937     0.247758     0.236578
      0.225399     0.214220     0.203040
 NY phased data points follow
   1.58718E-08  1.53708E-08  1.43750E-08  1.33803E-08  1.29023E-08  1.28803E-08  1.19436E-08  1.22548E-08  1.17535E-08  1.20657E-08
   1.27489E-08  1.23963E-08  1.26564E-08  1.29730E-08  1.21796E-08  1.24014E-08  1.19929E-08  1.26670E-08  1.20914E-08  1.14122E-08
   1.14130E-08  1.13142E-08  1.21273E-08  1.30434E-08  1.21527E-08  1.18044E-08  1.13986E-08  1.22502E-08  1.21773E-08  1.35779E-08
   1.47886E-08  1.48664E-08  1.37586E-08  1.33046E-08  1.20780E-08  1.11305E-08  1.08773E-08  1.10792E-08  9.90309E-09  9.80975E-09
   9.34619E-09  9.62511E-09  8.70743E-09  9.00862E-09  8.23599E-09  8.22189E-09  7.80933E-09  7.75926E-09  7.58517E-09  8.10757E-09
   7.30529E-09  7.69535E-09  6.68176E-09  6.55933E-09  6.28302E-09  6.85922E-09  6.20905E-09  6.43434E-09  6.97046E-09  8.74099E-09
   1.03687E-08  1.32695E-08  1.41215E-08  1.31233E-08  1.25751E-08  1.12807E-08  1.07036E-08  9.38508E-09  9.07524E-09  8.17070E-09
   7.72499E-09  7.06161E-09  6.63287E-09  6.66483E-09  5.95299E-09  7.41275E-09  1.01486E-08  1.25297E-08  1.39684E-08  1.47171E-08
   1.48634E-08  1.46163E-08  1.42212E-08  1.34749E-08  1.29623E-08  1.27873E-08  1.23521E-08  1.20007E-08  1.15271E-08  1.07527E-08
   1.06260E-08  1.04098E-08  9.49477E-09  9.85823E-09  8.73275E-09  9.09495E-09  9.24262E-09  8.10001E-09  8.80090E-09  8.35832E-09
   8.28266E-09  8.74461E-09  7.88157E-09  8.28511E-09  8.14344E-09  7.02592E-09  6.90128E-09  6.66542E-09  5.96505E-09  5.79819E-09
   6.15662E-09  6.27437E-09  6.50086E-09  6.04738E-09  6.33483E-09  6.07305E-09  7.33575E-09  7.45110E-09  7.49536E-09  6.61399E-09
   6.91100E-09  6.25705E-09  6.17389E-09  4.79867E-09  4.98351E-09  4.84658E-09  5.77492E-09  5.61204E-09  5.44952E-09  4.86183E-09
   5.27676E-09  5.38249E-09  4.46701E-09  4.47777E-09  4.82384E-09  4.21645E-09  4.20664E-09  5.14584E-09  5.21841E-09  5.88463E-09
   5.42408E-09  6.07479E-09  6.01315E-09  6.60046E-09  7.11764E-09  7.65557E-09  7.38543E-09  7.51067E-09  7.78158E-09  7.98480E-09
   7.22446E-09  7.27894E-09  7.19588E-09  7.18157E-09  7.71338E-09  8.07870E-09  7.36111E-09  7.79290E-09  7.14602E-09  7.96437E-09
   7.41229E-09  6.82198E-09  6.41379E-09  6.34897E-09  7.40563E-09  7.97495E-09  9.30501E-09  1.13839E-08  1.56030E-08  1.85517E-08
   1.99955E-08  1.98843E-08  1.91388E-08  1.90820E-08  1.79609E-08  1.71685E-08  1.68746E-08  1.64937E-08  1.57987E-08  1.54514E-08
   1.48592E-08  1.46642E-08  1.38924E-08  1.33853E-08  1.28807E-08  1.24547E-08  1.12392E-08  1.06544E-08  1.01486E-08  8.14002E-09
   7.19951E-09  5.57797E-09  3.53704E-09  2.27180E-09 -1.97132E-10 -2.58829E-09 -5.38676E-09 -7.20177E-09 -9.76058E-09 -1.15585E-08
  -1.35833E-08 -1.50067E-08 -1.59269E-08 -1.63080E-08 -1.64822E-08 -1.67174E-08 -1.58798E-08 -1.47277E-08 -1.32897E-08 -1.16287E-08
  -1.04798E-08 -7.98490E-09 -6.50004E-09 -5.05995E-09 -3.98239E-09 -2.52225E-09 -2.24576E-09 -1.17827E-09 -2.09718E-09 -1.70419E-09
  -1.45145E-09 -2.04729E-09 -2.22363E-09 -1.43255E-09 -1.86775E-09 -1.55356E-09 -1.25798E-09 -9.99688E-10 -7.10934E-10 -8.48930E-10
  -9.93860E-10 -8.44612E-10 -1.13200E-09 -1.57624E-09 -1.60960E-09 -8.02431E-10 -9.60101E-10 -6.01299E-10 -8.96361E-10 -9.65078E-10
  -3.32798E-11 -2.89864E-10 -2.88719E-10 -1.08409E-09 -1.13300E-09 -9.89473E-10 -1.40706E-09 -7.11881E-10 -1.11072E-09 -6.60260E-10
  -5.00738E-10  3.57673E-10 -1.53492E-10 -9.93905E-11  9.04182E-11  6.49217E-10  2.08261E-12 -6.65637E-10 -1.81919E-10 -4.64312E-10
  -7.54676E-10 -1.12547E-09 -8.39042E-10 -1.77877E-09 -9.70403E-10 -1.36653E-09 -1.50640E-09 -5.70186E-10 -6.70557E-10 -9.35865E-11
  -5.68254E-10  6.98018E-11 -3.32578E-11  1.98097E-10  7.45708E-11  8.10263E-10  7.22476E-10  7.25406E-10 -1.42584E-10  4.66211E-10
   1.56845E-10 -2.95029E-10 -1.22127E-10 -6.28881E-10  1.81886E-10 -3.79305E-10 -5.74668E-10 -1.15348E-10 -4.02698E-10 -6.84177E-10
  -3.22321E-10 -3.03176E-10 -8.02390E-10  1.01116E-11 -2.89272E-10 -8.49458E-10 -6.17714E-10 -3.10086E-10 -1.03655E-09 -6.13818E-10
  -7.89179E-10 -8.01979E-10 -5.35773E-10 -8.74913E-10 -8.98375E-10 -6.36328E-10 -9.60363E-10 -9.28908E-10 -1.29638E-09 -9.04599E-10
  -1.24139E-09 -1.15276E-09 -7.98529E-10 -1.12201E-09 -9.27943E-10 -1.38787E-09 -5.69714E-10 -7.94277E-10 -1.22734E-09 -1.46251E-09
  -7.91446E-10 -1.11648E-09 -6.95105E-10 -1.05433E-09 -1.40047E-09 -1.34103E-09 -1.12854E-09 -5.78586E-10 -1.45283E-09 -1.22555E-09
  -1.22071E-09 -7.73101E-10 -1.38579E-09 -1.01825E-09 -1.47668E-09 -9.28862E-10 -1.37331E-09 -1.54451E-09 -1.15219E-09 -1.00550E-09
  -1.76852E-09 -1.63831E-09 -1.04535E-09 -1.25052E-09 -1.31675E-09 -1.86294E-09 -1.20359E-09 -1.23393E-09 -1.32104E-09 -1.08517E-09
  -1.85029E-09 -2.19312E-09 -1.23587E-09 -1.46902E-09 -1.35001E-09 -1.75916E-09 -6.48928E-10 -2.10599E-09 -1.14484E-09 -2.12015E-09
  -2.05858E-09 -1.15666E-09 -1.68741E-09
 NY points of the fit to the data follow
   1.29059E-08  1.38663E-08  1.41092E-08  1.40543E-08  1.42257E-08  1.42260E-08  1.36948E-08  1.27026E-08  1.17626E-08  1.13541E-08
   1.13464E-08  1.16682E-08  1.21259E-08  1.25756E-08  1.29319E-08  1.30115E-08  1.28105E-08  1.24391E-08  1.19804E-08  1.13961E-08
   1.09920E-08  1.08404E-08  1.07665E-08  1.07491E-08  1.10600E-08  1.17045E-08  1.24748E-08  1.31015E-08  1.34023E-08  1.34630E-08
   1.36541E-08  1.37353E-08  1.35397E-08  1.30142E-08  1.21828E-08  1.12925E-08  1.06450E-08  1.01512E-08  9.75477E-09  9.42389E-09
   9.14146E-09  8.90177E-09  8.69640E-09  8.52061E-09  8.36099E-09  8.20382E-09  8.04668E-09  7.89219E-09  7.74095E-09  7.59614E-09
   7.45274E-09  7.31580E-09  7.18510E-09  7.07157E-09  7.09447E-09  7.33264E-09  7.64039E-09  8.10683E-09  8.79241E-09  9.56028E-09
   1.02964E-08  1.09589E-08  1.14587E-08  1.17123E-08  1.16581E-08  1.13370E-08  1.09043E-08  1.03622E-08  9.67232E-09  9.13379E-09
   8.76166E-09  8.55663E-09  8.57255E-09  8.73380E-09  9.06074E-09  9.57358E-09  1.03748E-08  1.13865E-08  1.24322E-08  1.33426E-08
   1.40114E-08  1.43577E-08  1.43944E-08  1.42570E-08  1.38479E-08  1.30919E-08  1.22232E-08  1.13848E-08  1.07754E-08  1.03297E-08
   9.98141E-09  9.69625E-09  9.45296E-09  9.23929E-09  9.04655E-09  8.87260E-09  8.71553E-09  8.57003E-09  8.43170E-09  8.30006E-09
   8.18001E-09  8.06916E-09  7.96213E-09  7.85851E-09  7.76058E-09  7.66754E-09  7.57847E-09  7.49271E-09  7.40970E-09  7.32915E-09
   7.25074E-09  7.17425E-09  7.09943E-09  7.02610E-09  6.95409E-09  6.88325E-09  6.81346E-09  6.74459E-09  6.67658E-09  6.60932E-09
   6.54273E-09  6.47678E-09  6.41138E-09  6.34648E-09  6.28206E-09  6.21807E-09  6.15447E-09  6.09124E-09  6.02837E-09  5.96583E-09
   5.90360E-09  5.84168E-09  5.78006E-09  5.71875E-09  5.65775E-09  5.59706E-09  5.53666E-09  5.47663E-09  5.41696E-09  5.35766E-09
   5.29881E-09  5.24041E-09  5.18254E-09  5.12525E-09  5.06860E-09  5.01268E-09  4.95761E-09  4.90350E-09  4.85052E-09  4.79880E-09
   4.74865E-09  4.70029E-09  4.65407E-09  4.61046E-09  4.57002E-09  4.53347E-09  4.50181E-09  4.47639E-09  4.45910E-09  4.45265E-09
   4.46111E-09  4.49096E-09  4.55311E-09  4.66768E-09  4.87735E-09  5.29374E-09  6.34426E-09  9.36759E-09  1.35836E-08  1.76683E-08
   2.07803E-08  2.25964E-08  2.31188E-08  2.24352E-08  2.05566E-08  1.74258E-08  1.31406E-08  8.34071E-09  4.47719E-09  3.08010E-09
   2.63798E-09  2.41813E-09  2.27733E-09  2.17206E-09  2.08506E-09  2.00830E-09  1.93764E-09  1.87077E-09  1.80633E-09  1.74350E-09
   1.68178E-09  1.62081E-09  1.56038E-09  1.50035E-09  1.44063E-09  1.38116E-09  1.32189E-09  1.26280E-09  1.20390E-09  1.14515E-09
   1.08657E-09  1.02815E-09  9.69933E-10  9.11893E-10  8.54040E-10  7.96409E-10  7.38990E-10  6.81808E-10  6.24864E-10  5.68182E-10
   5.11771E-10  4.55637E-10  3.99796E-10  3.44260E-10  2.89037E-10  2.34156E-10  1.79607E-10  1.25406E-10  7.15701E-11  1.81136E-11
  -3.49624E-11 -8.76353E-11 -1.39912E-10 -1.91760E-10 -2.43186E-10 -2.94167E-10 -3.44719E-10 -3.94780E-10 -4.44393E-10 -4.93529E-10
  -5.42181E-10 -5.90327E-10 -6.37977E-10 -6.85100E-10 -7.31702E-10 -7.77778E-10 -8.23305E-10 -8.68281E-10 -9.12697E-10 -9.56544E-10
  -9.99817E-10 -1.04250E-09 -1.08459E-09 -1.12608E-09 -1.16697E-09 -1.20723E-09 -1.24686E-09 -1.28586E-09 -1.32422E-09 -1.36192E-09
  -1.39898E-09 -1.43536E-09 -1.47108E-09 -1.50612E-09 -1.54047E-09 -1.57413E-09 -1.60709E-09 -1.63934E-09 -1.67087E-09 -1.70170E-09
  -1.73178E-09 -1.76114E-09 -1.78976E-09 -1.81761E-09 -1.84473E-09 -1.87109E-09 -1.89669E-09 -1.92152E-09 -1.94557E-09 -1.96881E-09
  -1.99130E-09 -2.01297E-09 -2.03386E-09 -2.05394E-09 -2.07321E-09 -2.09166E-09 -2.10929E-09 -2.12610E-09 -2.14208E-09 -2.15723E-09
  -2.17153E-09 -2.18499E-09 -2.19761E-09 -2.20937E-09 -2.22028E-09 -2.23033E-09 -2.23951E-09 -2.24782E-09 -2.25526E-09 -2.26183E-09
  -2.26751E-09 -2.27232E-09 -2.27623E-09 -2.27926E-09 -2.28139E-09 -2.28263E-09 -2.28297E-09 -2.28241E-09 -2.28094E-09 -2.27857E-09
  -2.27528E-09 -2.27109E-09 -2.26598E-09 -2.25995E-09 -2.25301E-09 -2.24514E-09 -2.23636E-09 -2.22665E-09 -2.21601E-09 -2.20445E-09
  -2.19196E-09 -2.17854E-09 -2.16419E-09 -2.14891E-09 -2.13269E-09 -2.11554E-09 -2.09746E-09 -2.07844E-09 -2.05849E-09 -2.03760E-09
  -2.01577E-09 -1.99301E-09 -1.96931E-09 -1.94468E-09 -1.91911E-09 -1.89261E-09 -1.86517E-09 -1.83680E-09 -1.80749E-09 -1.77726E-09
  -1.74609E-09 -1.71399E-09 -1.68096E-09 -1.64700E-09 -1.61211E-09 -1.57630E-09 -1.53957E-09 -1.50191E-09 -1.46334E-09 -1.42384E-09
  -1.38343E-09 -1.34211E-09 -1.29987E-09 -1.25673E-09 -1.21268E-09 -1.16772E-09 -1.12187E-09 -1.07511E-09 -1.02747E-09 -9.78925E-10
  -9.29496E-10 -8.79181E-10 -8.27985E-10 -7.75910E-10 -7.22960E-10 -6.69140E-10 -6.14453E-10 -5.58904E-10 -5.02496E-10 -4.45234E-10
  -3.87122E-10 -3.28165E-10 -2.68367E-10
 NY background values follow
     2.743E-09    2.825E-09    2.905E-09    2.985E-09    3.064E-09    3.142E-09    3.218E-09    3.294E-09    3.368E-09    3.442E-09
     3.514E-09    3.586E-09    3.656E-09    3.725E-09    3.794E-09    3.861E-09    3.927E-09    3.992E-09    4.056E-09    4.119E-09
     4.181E-09    4.242E-09    4.301E-09    4.360E-09    4.418E-09    4.474E-09    4.530E-09    4.584E-09    4.637E-09    4.690E-09
     4.741E-09    4.791E-09    4.840E-09    4.888E-09    4.935E-09    4.980E-09    5.025E-09    5.069E-09    5.111E-09    5.153E-09
     5.193E-09    5.233E-09    5.271E-09    5.308E-09    5.344E-09    5.379E-09    5.413E-09    5.446E-09    5.478E-09    5.509E-09
     5.539E-09    5.567E-09    5.595E-09    5.622E-09    5.647E-09    5.672E-09    5.695E-09    5.717E-09    5.739E-09    5.759E-09
     5.779E-09    5.797E-09    5.814E-09    5.830E-09    5.846E-09    5.860E-09    5.873E-09    5.885E-09    5.896E-09    5.907E-09
     5.916E-09    5.924E-09    5.931E-09    5.938E-09    5.943E-09    5.947E-09    5.951E-09    5.953E-09    5.954E-09    5.955E-09
     5.954E-09    5.953E-09    5.951E-09    5.947E-09    5.943E-09    5.938E-09    5.932E-09    5.925E-09    5.918E-09    5.909E-09
     5.899E-09    5.889E-09    5.878E-09    5.865E-09    5.852E-09    5.839E-09    5.824E-09    5.808E-09    5.792E-09    5.775E-09
     5.757E-09    5.738E-09    5.718E-09    5.698E-09    5.677E-09    5.655E-09    5.632E-09    5.608E-09    5.584E-09    5.559E-09
     5.533E-09    5.507E-09    5.480E-09    5.452E-09    5.423E-09    5.394E-09    5.364E-09    5.333E-09    5.302E-09    5.270E-09
     5.237E-09    5.204E-09    5.170E-09    5.135E-09    5.100E-09    5.064E-09    5.028E-09    4.991E-09    4.953E-09    4.915E-09
     4.877E-09    4.837E-09    4.798E-09    4.757E-09    4.716E-09    4.675E-09    4.633E-09    4.591E-09    4.548E-09    4.505E-09
     4.461E-09    4.417E-09    4.372E-09    4.327E-09    4.281E-09    4.235E-09    4.189E-09    4.142E-09    4.095E-09    4.047E-09
     4.000E-09    3.951E-09    3.903E-09    3.854E-09    3.805E-09    3.755E-09    3.705E-09    3.655E-09    3.605E-09    3.554E-09
     3.503E-09    3.452E-09    3.400E-09    3.348E-09    3.297E-09    3.244E-09    3.192E-09    3.140E-09    3.087E-09    3.034E-09
     2.981E-09    2.928E-09    2.875E-09    2.821E-09    2.768E-09    2.714E-09    2.661E-09    2.607E-09    2.553E-09    2.499E-09
     2.445E-09    2.391E-09    2.337E-09    2.283E-09    2.229E-09    2.175E-09    2.121E-09    2.067E-09    2.013E-09    1.959E-09
     1.905E-09    1.851E-09    1.798E-09    1.744E-09    1.690E-09    1.637E-09    1.584E-09    1.530E-09    1.477E-09    1.425E-09
     1.372E-09    1.319E-09    1.267E-09    1.215E-09    1.163E-09    1.111E-09    1.059E-09    1.008E-09    9.571E-10    9.063E-10
     8.558E-10    8.055E-10    7.555E-10    7.058E-10    6.564E-10    6.073E-10    5.585E-10    5.101E-10    4.620E-10    4.142E-10
     3.668E-10    3.198E-10    2.732E-10    2.269E-10    1.811E-10    1.356E-10    9.055E-11    4.596E-11    1.778E-12   -4.196E-11
    -8.525E-11   -1.281E-10   -1.704E-10   -2.123E-10   -2.537E-10   -2.946E-10   -3.350E-10   -3.749E-10   -4.142E-10   -4.531E-10
    -4.914E-10   -5.291E-10   -5.663E-10   -6.029E-10   -6.390E-10   -6.745E-10   -7.094E-10   -7.437E-10   -7.774E-10   -8.105E-10
    -8.430E-10   -8.749E-10   -9.061E-10   -9.367E-10   -9.666E-10   -9.959E-10   -1.025E-09   -1.053E-09   -1.080E-09   -1.106E-09
    -1.132E-09   -1.158E-09   -1.182E-09   -1.206E-09   -1.229E-09   -1.251E-09   -1.273E-09   -1.294E-09   -1.314E-09   -1.334E-09
    -1.352E-09   -1.370E-09   -1.388E-09   -1.404E-09   -1.420E-09   -1.435E-09   -1.449E-09   -1.462E-09   -1.475E-09   -1.486E-09
    -1.497E-09   -1.507E-09   -1.517E-09   -1.525E-09   -1.533E-09   -1.540E-09   -1.546E-09   -1.551E-09   -1.555E-09   -1.559E-09
    -1.562E-09   -1.563E-09   -1.564E-09   -1.565E-09   -1.564E-09   -1.562E-09   -1.560E-09   -1.557E-09   -1.552E-09   -1.547E-09
    -1.541E-09   -1.535E-09   -1.527E-09   -1.518E-09   -1.509E-09   -1.499E-09   -1.487E-09   -1.475E-09   -1.462E-09   -1.448E-09
    -1.434E-09   -1.418E-09   -1.401E-09   -1.384E-09   -1.366E-09   -1.346E-09   -1.326E-09   -1.305E-09   -1.283E-09   -1.260E-09
    -1.236E-09   -1.212E-09   -1.186E-09   -1.160E-09   -1.132E-09   -1.104E-09   -1.075E-09   -1.045E-09   -1.014E-09   -9.819E-10
    -9.491E-10   -9.154E-10   -8.808E-10   -8.453E-10   -8.089E-10   -7.717E-10   -7.335E-10   -6.944E-10   -6.545E-10   -6.136E-10
    -5.719E-10   -5.293E-10   -4.858E-10   -4.415E-10   -3.962E-10   -3.501E-10   -3.031E-10   -2.553E-10   -2.066E-10   -1.570E-10
    -1.065E-10   -5.525E-11   -3.111E-12    4.988E-11    1.037E-10    1.584E-10    2.139E-10    2.703E-10    3.274E-10    3.854E-10
     4.443E-10    5.039E-10    5.644E-10
 Glc      Conc. = 2.47E-10
   2.47982E-09  2.66029E-09  2.84565E-09  3.03010E-09  3.19533E-09  3.33589E-09  3.44145E-09  3.51811E-09  3.56228E-09  3.58224E-09
   3.60497E-09  3.63410E-09  3.66931E-09  3.72096E-09  3.81121E-09  3.94824E-09  4.12732E-09  4.33473E-09  4.54188E-09  4.73220E-09
   4.90427E-09  5.04672E-09  5.14608E-09  5.20178E-09  5.21064E-09  5.18918E-09  5.17988E-09  5.19355E-09  5.22413E-09  5.26169E-09
   5.29510E-09  5.32456E-09  5.35375E-09  5.37671E-09  5.39241E-09  5.41014E-09  5.42878E-09  5.44434E-09  5.46036E-09  5.47967E-09
   5.50123E-09  5.52409E-09  5.54779E-09  5.57194E-09  5.59626E-09  5.62059E-09  5.64474E-09  5.66862E-09  5.69211E-09  5.71512E-09
   5.73763E-09  5.75954E-09  5.78080E-09  5.80142E-09  5.82132E-09  5.84048E-09  5.85888E-09  5.87651E-09  5.89332E-09  5.90932E-09
   5.92450E-09  5.93883E-09  5.95233E-09  5.96496E-09  5.97671E-09  5.98761E-09  5.99763E-09  6.00675E-09  6.01500E-09  6.02235E-09
   6.02883E-09  6.03442E-09  6.03909E-09  6.04290E-09  6.04580E-09  6.04782E-09  6.04894E-09  6.04918E-09  6.04851E-09  6.04697E-09
   6.04454E-09  6.04123E-09  6.03706E-09  6.03202E-09  6.02609E-09  6.01932E-09  6.01164E-09  6.00311E-09  5.99378E-09  5.98357E-09
   5.97250E-09  5.96055E-09  5.94782E-09  5.93425E-09  5.91986E-09  5.90465E-09  5.88863E-09  5.87181E-09  5.85418E-09  5.83577E-09
   5.81656E-09  5.79657E-09  5.77581E-09  5.75428E-09  5.73198E-09  5.70894E-09  5.68514E-09  5.66061E-09  5.63534E-09  5.60935E-09
   5.58264E-09  5.55522E-09  5.52709E-09  5.49828E-09  5.46878E-09  5.43860E-09  5.40776E-09  5.37623E-09  5.34407E-09  5.31126E-09
   5.27780E-09  5.24373E-09  5.20904E-09  5.17373E-09  5.13782E-09  5.10132E-09  5.06423E-09  5.02657E-09  4.98834E-09  4.94957E-09
   4.91023E-09  4.87037E-09  4.82997E-09  4.78906E-09  4.74764E-09  4.70574E-09  4.66332E-09  4.62043E-09  4.57709E-09  4.53328E-09
   4.48903E-09  4.44434E-09  4.39924E-09  4.35373E-09  4.30780E-09  4.26149E-09  4.21481E-09  4.16776E-09  4.12037E-09  4.07261E-09
   4.02458E-09  3.97623E-09  3.92759E-09  3.87871E-09  3.82959E-09  3.78026E-09  3.73076E-09  3.68115E-09  3.63148E-09  3.58185E-09
   3.53236E-09  3.48323E-09  3.43480E-09  3.38762E-09  3.34317E-09  3.30514E-09  3.28934E-09  3.33484E-09  3.40472E-09  3.46358E-09
   3.49168E-09  3.48289E-09  3.43874E-09  3.36164E-09  3.25118E-09  3.10553E-09  2.92904E-09  2.74364E-09  2.59441E-09  2.51705E-09
   2.45480E-09  2.39679E-09  2.34047E-09  2.28494E-09  2.22986E-09  2.17504E-09  2.12040E-09  2.06590E-09  2.01150E-09  1.95719E-09
   1.90298E-09  1.84886E-09  1.79483E-09  1.74090E-09  1.68709E-09  1.63339E-09  1.57982E-09  1.52637E-09  1.47308E-09  1.41994E-09
   1.36696E-09  1.31415E-09  1.26154E-09  1.20912E-09  1.15689E-09  1.10488E-09  1.05310E-09  1.00155E-09  9.50235E-10  8.99181E-10
   8.48394E-10  7.97876E-10  7.47642E-10  6.97701E-10  6.48057E-10  5.98741E-10  5.49738E-10  5.01064E-10  4.52733E-10  4.04758E-10
   3.57139E-10  3.09897E-10  2.63024E-10  2.16552E-10  1.70472E-10  1.24806E-10  7.95377E-11  3.47284E-11 -9.66700E-12 -5.36178E-11
  -9.71202E-11 -1.40151E-10 -1.82721E-10 -2.24801E-10 -2.66396E-10 -3.07501E-10 -3.48095E-10 -3.88176E-10 -4.27733E-10 -4.66760E-10
  -5.05252E-10 -5.43188E-10 -5.80578E-10 -6.17402E-10 -6.53662E-10 -6.89339E-10 -7.24424E-10 -7.58913E-10 -7.92807E-10 -8.26082E-10
  -8.58745E-10 -8.90780E-10 -9.22181E-10 -9.52956E-10 -9.83069E-10 -1.01254E-09 -1.04134E-09 -1.06947E-09 -1.09694E-09 -1.12372E-09
  -1.14981E-09 -1.17521E-09 -1.19991E-09 -1.22389E-09 -1.24717E-09 -1.26972E-09 -1.29155E-09 -1.31265E-09 -1.33302E-09 -1.35261E-09
  -1.37149E-09 -1.38958E-09 -1.40694E-09 -1.42352E-09 -1.43932E-09 -1.45435E-09 -1.46860E-09 -1.48206E-09 -1.49473E-09 -1.50660E-09
  -1.51767E-09 -1.52794E-09 -1.53739E-09 -1.54602E-09 -1.55384E-09 -1.56083E-09 -1.56699E-09 -1.57232E-09 -1.57682E-09 -1.58047E-09
  -1.58328E-09 -1.58524E-09 -1.58635E-09 -1.58661E-09 -1.58600E-09 -1.58454E-09 -1.58222E-09 -1.57902E-09 -1.57496E-09 -1.57002E-09
  -1.56421E-09 -1.55752E-09 -1.54995E-09 -1.54150E-09 -1.53216E-09 -1.52194E-09 -1.51083E-09 -1.49883E-09 -1.48594E-09 -1.47215E-09
  -1.45746E-09 -1.44189E-09 -1.42541E-09 -1.40803E-09 -1.38975E-09 -1.37057E-09 -1.35049E-09 -1.32951E-09 -1.30763E-09 -1.28484E-09
  -1.26114E-09 -1.23655E-09 -1.21105E-09 -1.18464E-09 -1.15733E-09 -1.12912E-09 -1.10000E-09 -1.06998E-09 -1.03906E-09 -1.00723E-09
  -9.74505E-10 -9.40879E-10 -9.06355E-10 -8.70933E-10 -8.34614E-10 -7.97401E-10 -7.59294E-10 -7.20295E-10 -6.80406E-10 -6.39629E-10
  -5.97966E-10 -5.55418E-10 -5.11989E-10 -4.67680E-10 -4.22496E-10 -3.76435E-10 -3.29504E-10 -2.81703E-10 -2.33037E-10 -1.83508E-10
  -1.33119E-10 -8.18734E-11 -2.97751E-11  2.31727E-11  7.69665E-11  1.31602E-10  1.87076E-10  2.43385E-10  3.00523E-10  3.58488E-10
   4.17274E-10  4.76877E-10  5.37293E-10
 Gln      Conc. = 2.05E-09
   1.11221E-09  1.47555E-09  1.97124E-09  2.57452E-09  3.22440E-09  3.84898E-09  4.37917E-09  4.76497E-09  5.00130E-09  5.13565E-09
   5.07569E-09  4.96055E-09  4.83606E-09  4.65064E-09  4.52409E-09  4.44246E-09  4.38980E-09  4.35657E-09  4.33696E-09  4.32718E-09
   4.32463E-09  4.32751E-09  4.33452E-09  4.34474E-09  4.35751E-09  4.37220E-09  4.38809E-09  4.40487E-09  4.42211E-09  4.43937E-09
   4.45637E-09  4.47288E-09  4.48865E-09  4.50349E-09  4.51720E-09  4.52959E-09  4.54045E-09  4.54957E-09  4.55670E-09  4.56164E-09
   4.56415E-09  4.56399E-09  4.56101E-09  4.55495E-09  4.54538E-09  4.53200E-09  4.51423E-09  4.49113E-09  4.46260E-09  4.42851E-09
   4.38778E-09  4.34125E-09  4.29388E-09  4.26605E-09  4.37144E-09  4.68330E-09  5.06775E-09  5.61169E-09  6.37869E-09  7.24150E-09
   8.07719E-09  8.82678E-09  9.39840E-09  9.71027E-09  9.72375E-09  9.47754E-09  9.10418E-09  8.60629E-09  7.93762E-09  7.38827E-09
   6.99060E-09  6.73225E-09  6.66623E-09  6.75424E-09  7.05411E-09  7.55049E-09  8.12516E-09  8.74212E-09  9.34237E-09  9.85608E-09
   1.02206E-08  1.03658E-08  1.02947E-08  1.01250E-08  9.81808E-09  9.36249E-09  8.97286E-09  8.61996E-09  8.26287E-09  7.98449E-09
   7.76802E-09  7.59262E-09  7.44604E-09  7.31959E-09  7.20787E-09  7.10814E-09  7.01795E-09  6.93529E-09  6.85887E-09  6.78755E-09
   6.72025E-09  6.65628E-09  6.59518E-09  6.53656E-09  6.48007E-09  6.42534E-09  6.37203E-09  6.31995E-09  6.26890E-09  6.21873E-09
   6.16927E-09  6.12041E-09  6.07205E-09  6.02410E-09  5.97646E-09  5.92908E-09  5.88189E-09  5.83480E-09  5.78783E-09  5.74087E-09
   5.69392E-09  5.64695E-09  5.59991E-09  5.55278E-09  5.50556E-09  5.45820E-09  5.41070E-09  5.36303E-09  5.31521E-09  5.26722E-09
   5.21902E-09  5.17064E-09  5.12206E-09  5.07330E-09  5.02432E-09  4.97517E-09  4.92578E-09  4.87622E-09  4.82649E-09  4.77655E-09
   4.72646E-09  4.67621E-09  4.62582E-09  4.57531E-09  4.52467E-09  4.47395E-09  4.42317E-09  4.37235E-09  4.32154E-09  4.27076E-09
   4.22013E-09  4.16964E-09  4.11940E-09  4.06953E-09  4.02016E-09  3.97143E-09  3.92360E-09  3.87698E-09  3.83202E-09  3.78936E-09
   3.74997E-09  3.71545E-09  3.68855E-09  3.67440E-09  3.68463E-09  3.75145E-09  4.01148E-09  4.77477E-09  5.73486E-09  6.60159E-09
   7.21361E-09  7.52183E-09  7.53873E-09  7.28369E-09  6.75272E-09  5.93159E-09  4.85903E-09  3.72028E-09  2.89032E-09  2.64445E-09
   2.52143E-09  2.43359E-09  2.35991E-09  2.29312E-09  2.23011E-09  2.16933E-09  2.10996E-09  2.05152E-09  1.99374E-09  1.93643E-09
   1.87949E-09  1.82284E-09  1.76643E-09  1.71023E-09  1.65423E-09  1.59842E-09  1.54279E-09  1.48734E-09  1.43208E-09  1.37700E-09
   1.32212E-09  1.26742E-09  1.21296E-09  1.15870E-09  1.10465E-09  1.05085E-09  9.97287E-10  9.43978E-10  8.90923E-10  8.38143E-10
   7.85646E-10  7.33433E-10  6.81520E-10  6.29916E-10  5.78626E-10  5.27677E-10  4.77058E-10  4.26782E-10  3.76864E-10  3.27318E-10
   2.78142E-10  2.29359E-10  1.80958E-10  1.32973E-10  8.53936E-11  3.82436E-11 -8.49557E-12 -5.47609E-11 -1.00598E-10 -1.45977E-10
