 LCModel (Version 6.3-1R) Copyright: S.W. Provencher.          Ref.: Magn. Reson. Med. 30:672-679 (1993).                
 onepulse 26x19_ftSpec_smooth_lcm
 26 lines in following concentration table = NCONC+1
    Conc.  %SD /Cr+PCr  Metabolite                                         
    0.000 999%   0.000 Ala                                                 
 5.06E-10 231%   1.384 Asp                                                 
 3.66E-10 163%   1.000 Cr                                                  
    0.000 999%   0.000 GABA                                                
    0.000 999%   0.000 Glc                                                 
 2.31E-09  56%   6.314 Gln                                                 
 6.63E-10 225%   1.812 Glu                                                 
 9.74E-10  69%   2.663 Glyc                                                
    0.000 999%   0.000 GPC                                                 
    0.000 999%   0.000 GSH                                                 
    0.000 999%   0.000 Ins                                                 
    0.000 999%   0.000 Lac                                                 
    0.000 999%   0.000 NAAG                                                
 4.10E-10 110%   1.120 NAA                                                 
 1.51E-10 116%   0.412 PCh                                                 
    0.000 999%   0.000 PCr                                                 
    0.000 999%   0.000 PE                                                  
 7.56E-11 541%   0.207 Scyllo                                              
 2.23E-09  49%   6.101 Ser                                                 
 9.16E-10 132%   2.504 Tau                                                 
 1.51E-10 116%   0.412 GPC+PCh                                             
 4.10E-10 110%   1.120 NAA+NAAG                                            
 9.74E-10  69%   2.663 Ins+Glyc                                            
 3.66E-10 163%   1.000 Cr+PCr                                              
 2.97E-09  38%   8.126 Glu+Gln                                             
   6 lines in following misc. output table
  FWHM = 0.089 ppm    S/N =   2                                            
  Data shift = 0.335 ppm                                                   
  Ph: -70 deg     -31.8 deg/ppm                                            
  alphaB,S = 1.8E-01,   4.3E+01                                            
   16 spline knots.   Ns = 5(1)                                            
  ( 8) 2 infls.   ( 5) 1 extrs.                                            
  363 points on ppm-axis = NY
      4.250000     4.238821     4.227641     4.216462     4.205282     4.194103     4.182923     4.171744     4.160564     4.149385
      4.138206     4.127026     4.115847     4.104667     4.093488     4.082308     4.071129     4.059949     4.048770     4.037591
      4.026411     4.015232     4.004052     3.992873     3.981693     3.970514     3.959334     3.948155     3.936975     3.925796
      3.914617     3.903437     3.892258     3.881078     3.869899     3.858719     3.847540     3.836360     3.825181     3.814002
      3.802822     3.791643     3.780463     3.769284     3.758104     3.746925     3.735745     3.724566     3.713387     3.702207
      3.691028     3.679848     3.668669     3.657489     3.646310     3.635130     3.623951     3.612772     3.601592     3.590413
      3.579233     3.568054     3.556874     3.545695     3.534515     3.523336     3.512156     3.500977     3.489798     3.478618
      3.467439     3.456259     3.445080     3.433900     3.422721     3.411541     3.400362     3.389183     3.378003     3.366824
      3.355644     3.344465     3.333285     3.322106     3.310926     3.299747     3.288568     3.277388     3.266209     3.255029
      3.243850     3.232670     3.221491     3.210311     3.199132     3.187953     3.176773     3.165594     3.154414     3.143235
      3.132055     3.120876     3.109696     3.098517     3.087337     3.076158     3.064979     3.053799     3.042620     3.031440
      3.020261     3.009081     2.997902     2.986722     2.975543     2.964364     2.953184     2.942005     2.930825     2.919646
      2.908466     2.897287     2.886107     2.874928     2.863749     2.852569     2.841390     2.830210     2.819031     2.807851
      2.796672     2.785492     2.774313     2.763134     2.751954     2.740775     2.729595     2.718416     2.707236     2.696057
      2.684877     2.673698     2.662519     2.651339     2.640160     2.628980     2.617801     2.606621     2.595442     2.584262
      2.573083     2.561903     2.550724     2.539545     2.528365     2.517186     2.506006     2.494827     2.483647     2.472468
      2.461288     2.450109     2.438930     2.427750     2.416571     2.405391     2.394212     2.383032     2.371853     2.360673
      2.349494     2.338315     2.327135     2.315956     2.304776     2.293597     2.282417     2.271238     2.260058     2.248879
      2.237700     2.226520     2.215341     2.204161     2.192982     2.181802     2.170623     2.159443     2.148264     2.137084
      2.125905     2.114726     2.103546     2.092367     2.081187     2.070008     2.058828     2.047649     2.036469     2.025290
      2.014111     2.002931     1.991752     1.980572     1.969393     1.958213     1.947034     1.935854     1.924675     1.913496
      1.902316     1.891137     1.879957     1.868778     1.857598     1.846419     1.835239     1.824060     1.812881     1.801701
      1.790522     1.779342     1.768163     1.756983     1.745804     1.734624     1.723445     1.712265     1.701086     1.689907
      1.678727     1.667548     1.656368     1.645189     1.634009     1.622830     1.611650     1.600471     1.589292     1.578112
      1.566933     1.555753     1.544574     1.533394     1.522215     1.511035     1.499856     1.488677     1.477497     1.466318
      1.455138     1.443959     1.432779     1.421600     1.410420     1.399241     1.388062     1.376882     1.365703     1.354523
      1.343344     1.332164     1.320985     1.309805     1.298626     1.287446     1.276267     1.265088     1.253908     1.242729
      1.231549     1.220370     1.209190     1.198011     1.186831     1.175652     1.164473     1.153293     1.142114     1.130934
      1.119755     1.108575     1.097396     1.086216     1.075037     1.063858     1.052678     1.041499     1.030319     1.019140
      1.007960     0.996781     0.985601     0.974422     0.963243     0.952063     0.940884     0.929704     0.918525     0.907345
      0.896166     0.884986     0.873807     0.862628     0.851448     0.840269     0.829089     0.817910     0.806730     0.795551
      0.784371     0.773192     0.762012     0.750833     0.739654     0.728474     0.717295     0.706115     0.694936     0.683756
      0.672577     0.661397     0.650218     0.639039     0.627859     0.616680     0.605500     0.594321     0.583141     0.571962
      0.560782     0.549603     0.538424     0.527244     0.516065     0.504885     0.493706     0.482526     0.471347     0.460167
      0.448988     0.437809     0.426629     0.415450     0.404270     0.393091     0.381911     0.370732     0.359552     0.348373
      0.337193     0.326014     0.314835     0.303655     0.292476     0.281296     0.270117     0.258937     0.247758     0.236578
      0.225399     0.214220     0.203040
 NY phased data points follow
   7.72432E-09  9.03900E-09  6.81609E-09  6.58765E-09  3.20951E-09  3.92322E-09  2.02318E-09  2.57821E-09  1.79869E-09  2.67813E-09
   9.27289E-10  3.60848E-09  2.20473E-09  3.55028E-09  2.85698E-09  3.96022E-09  2.65038E-09  3.60352E-09  2.31962E-09  3.20791E-09
   2.07070E-09  3.36343E-09  1.58455E-09  2.95631E-09  2.22887E-09  3.16057E-09  3.30412E-09  4.17188E-09  2.16680E-09  3.22949E-09
   2.64443E-09  4.45410E-09  3.14433E-09  4.87921E-09  3.17907E-09  3.19073E-09  7.67669E-10  7.42083E-10 -5.82988E-10 -7.01501E-11
  -5.60336E-10 -6.04139E-12 -8.24515E-10  4.19198E-10 -3.89131E-10  7.89866E-10 -4.46441E-10  3.84713E-10 -5.13926E-10  1.09040E-09
   1.98057E-10  1.55194E-09  9.33415E-10  2.01039E-09  1.04318E-09  1.75798E-09  1.20640E-09  2.51854E-09  1.62698E-09  3.94702E-09
   2.91308E-09  5.30167E-09  5.35681E-09  7.68758E-09  7.31636E-09  9.11322E-09  6.67755E-09  5.76838E-09  3.42489E-09  3.23506E-09
   1.85115E-09  2.19622E-09  1.00385E-09  2.13291E-09  1.35163E-09  2.30562E-09  2.34074E-09  4.32773E-09  4.12302E-09  7.78386E-09
   8.42436E-09  1.03107E-08  8.50710E-09  8.53782E-09  6.69260E-09  6.18503E-09  4.37681E-09  4.09901E-09  3.48941E-09  3.39609E-09
   2.46203E-09  2.59447E-09  1.27372E-09  1.98668E-09  1.41719E-09  1.49715E-09  4.52740E-10  1.64850E-09 -2.77088E-11  1.29942E-09
   7.42208E-10  9.98417E-10  1.29330E-09  1.15990E-09  1.10764E-09  1.37025E-09  8.55701E-10  1.28025E-09  3.79745E-10  7.21994E-10
   1.46520E-10  4.05700E-10 -7.54316E-10  7.85178E-10  7.62189E-10  1.44123E-09  8.62581E-10  1.16643E-09  1.49660E-09  1.98574E-09
   2.26474E-09  2.24116E-09  1.57612E-09  1.10138E-09  1.21297E-09  6.98020E-10  7.19863E-10 -1.98752E-10  6.83930E-10  1.10846E-09
   1.73057E-09  1.41694E-09  1.46908E-09  1.42355E-09  1.93418E-09  1.66726E-09  1.00223E-09  1.82966E-09  1.81447E-09  1.87817E-09
   2.56762E-09  3.12255E-09  3.46419E-09  3.64244E-09  3.79316E-09  4.25900E-09  4.17040E-09  5.26412E-09  5.23754E-09  5.21143E-09
   4.94028E-09  5.11546E-09  5.25950E-09  5.43252E-09  4.66503E-09  5.34987E-09  5.08110E-09  4.99360E-09  6.05065E-09  5.97009E-09
   5.74976E-09  6.03329E-09  5.46626E-09  6.50597E-09  5.52503E-09  5.76973E-09  5.99800E-09  7.17265E-09  8.07020E-09  9.68468E-09
   1.14001E-08  1.34092E-08  1.58488E-08  1.63979E-08  1.59326E-08  1.45789E-08  1.27407E-08  1.12767E-08  9.39016E-09  8.72679E-09
   7.66523E-09  6.96204E-09  6.16963E-09  5.43405E-09  4.92373E-09  4.02770E-09  3.02651E-09  2.59666E-09  2.22294E-09  1.36053E-09
  -3.38794E-10 -6.24918E-10 -1.97250E-09 -3.98950E-09 -4.38040E-09 -6.35484E-09 -8.25886E-09 -9.68748E-09 -1.20313E-08 -1.39112E-08
  -1.61616E-08 -1.79125E-08 -1.94652E-08 -2.11281E-08 -2.26099E-08 -2.31039E-08 -2.37293E-08 -2.31490E-08 -2.29086E-08 -2.21356E-08
  -2.05810E-08 -1.84819E-08 -1.58130E-08 -1.41321E-08 -1.22070E-08 -9.14811E-09 -7.43146E-09 -5.11908E-09 -3.01843E-09 -1.55874E-09
  -8.54983E-10 -4.20900E-11 -4.34999E-10 -1.84717E-10 -6.25305E-10 -1.16415E-09 -1.41910E-09 -1.18644E-09 -1.64577E-09 -1.45553E-09
  -6.24966E-10 -6.05427E-10 -9.04176E-10 -1.92819E-10 -4.13550E-10 -3.42473E-10 -9.18148E-10 -1.12577E-09 -1.30977E-09 -6.28816E-10
  -6.90100E-10 -8.19040E-10 -3.57646E-10 -3.52215E-10  1.22797E-10 -8.20935E-11  1.50315E-10 -8.02249E-10 -6.83135E-10 -3.71571E-10
  -7.42208E-10 -9.49354E-10 -4.69769E-10 -3.04474E-10 -1.75280E-10  1.73351E-10  2.69092E-10 -2.32138E-10  5.88494E-10  9.70399E-10
   5.18471E-10 -2.29545E-10  4.12082E-10 -4.09489E-10 -5.16479E-10 -9.08363E-10 -3.54572E-10 -1.28682E-09 -7.29861E-10 -9.80595E-10
  -4.21946E-10 -2.83752E-10  3.88412E-10  1.99658E-10  8.75188E-11  5.84855E-10  7.52336E-10  3.68003E-10  3.27156E-10  1.05158E-09
   9.56938E-10  3.56323E-10  3.80367E-10  7.82332E-10  4.70586E-10 -8.86713E-11  2.96517E-10 -3.65242E-10  6.80119E-10 -5.13985E-10
   1.93944E-10 -5.57195E-11  2.34237E-10 -6.43268E-10  5.27104E-10 -3.08529E-10 -6.35232E-11  6.51055E-10  2.60129E-10 -3.84516E-10
  -1.03956E-10 -5.64638E-11 -8.67429E-10 -3.48049E-11 -6.28239E-10 -1.00258E-10 -2.70340E-11 -6.74069E-10 -4.38938E-10 -3.92101E-10
  -6.98094E-10 -6.29854E-10 -4.37641E-10 -6.89955E-10 -6.49135E-10 -8.79496E-10 -3.00304E-10 -6.77626E-10 -6.50232E-10 -1.07306E-09
  -1.40912E-10 -5.10666E-10 -6.14378E-10 -1.27926E-09 -3.87685E-10 -8.95744E-10 -4.34465E-10 -9.85309E-10 -8.49851E-10 -1.33720E-09
  -8.92328E-10 -5.94253E-11 -1.04811E-09 -1.22869E-09 -8.73132E-10 -9.32317E-10 -7.30329E-10 -1.00016E-09 -1.07077E-09 -7.21120E-10
  -8.69748E-10 -1.64926E-09 -7.99620E-10 -6.04453E-10 -9.37860E-10 -1.53917E-09 -7.48526E-10 -1.45786E-09 -1.18458E-09 -1.81190E-09
  -1.20055E-09 -1.37731E-09 -9.94274E-10 -1.42344E-09 -1.37394E-09 -1.81681E-09 -1.12911E-09 -1.38240E-09 -1.22719E-09 -1.59387E-09
  -6.73210E-10 -1.74349E-09 -1.11042E-09
 NY points of the fit to the data follow
   8.67556E-09  7.36025E-09  6.08333E-09  5.44682E-09  5.15463E-09  4.47753E-09  3.50115E-09  2.67530E-09  2.40068E-09  2.45823E-09
   2.38635E-09  2.28584E-09  2.46688E-09  2.55965E-09  2.93584E-09  3.31883E-09  3.57598E-09  3.51180E-09  2.98420E-09  2.13858E-09
   1.87129E-09  1.97873E-09  2.18227E-09  2.50511E-09  2.90840E-09  3.23647E-09  3.55034E-09  3.68482E-09  3.80970E-09  3.85061E-09
   3.74891E-09  3.51992E-09  3.19952E-09  2.46619E-09  1.59051E-09  9.30482E-10  8.34672E-10  9.16559E-10  1.00461E-09  9.93845E-10
   7.96462E-10  3.42109E-10 -2.68961E-10 -5.84569E-10 -5.36126E-10 -3.92194E-10 -2.57896E-10 -1.36055E-10  4.87583E-11  2.61036E-10
   5.01290E-10  7.21090E-10  9.05287E-10  1.04181E-09  1.23478E-09  1.63485E-09  2.12520E-09  2.74792E-09  3.54418E-09  4.30424E-09
   4.93015E-09  5.51035E-09  6.04201E-09  6.35431E-09  6.36541E-09  6.01448E-09  5.46708E-09  4.92851E-09  4.04713E-09  3.11573E-09
   2.67657E-09  2.45873E-09  2.21898E-09  2.24070E-09  2.60853E-09  3.21995E-09  3.96707E-09  5.05691E-09  6.16717E-09  7.09189E-09
   7.77871E-09  8.16779E-09  8.14033E-09  7.88313E-09  7.47481E-09  6.62284E-09  5.46983E-09  4.24687E-09  2.87987E-09  2.19960E-09
   1.86167E-09  1.66905E-09  1.54974E-09  1.46980E-09  1.42292E-09  1.39494E-09  1.37838E-09  1.37447E-09  1.37970E-09  1.39180E-09
   1.40898E-09  1.42997E-09  1.45422E-09  1.48125E-09  1.51056E-09  1.54184E-09  1.57459E-09  1.60858E-09  1.64362E-09  1.67956E-09
   1.71626E-09  1.75359E-09  1.79146E-09  1.82971E-09  1.86813E-09  1.90655E-09  1.94479E-09  1.98267E-09  2.02003E-09  2.05672E-09
   2.09257E-09  2.12744E-09  2.16118E-09  2.19363E-09  2.22467E-09  2.25415E-09  2.28193E-09  2.30787E-09  2.33185E-09  2.35372E-09
   2.37336E-09  2.39064E-09  2.40543E-09  2.41761E-09  2.42704E-09  2.43361E-09  2.43719E-09  2.43768E-09  2.43494E-09  2.42887E-09
   2.41935E-09  2.40631E-09  2.38967E-09  2.36935E-09  2.34530E-09  2.31746E-09  2.28579E-09  2.25024E-09  2.21079E-09  2.16745E-09
   2.12023E-09  2.06918E-09  2.01439E-09  1.95601E-09  1.89426E-09  1.82946E-09  1.76210E-09  1.69288E-09  1.62286E-09  1.55365E-09
   1.48779E-09  1.42949E-09  1.38612E-09  1.37193E-09  1.41841E-09  1.61249E-09  2.30712E-09  4.75379E-09  7.79199E-09  1.04510E-08
   1.26744E-08  1.45858E-08  1.61616E-08  1.71833E-08  1.73997E-08  1.64010E-08  1.35657E-08  8.49300E-09  2.65877E-09  6.23421E-11
  -8.74449E-10 -1.40435E-09 -1.78311E-09 -2.08940E-09 -2.35488E-09 -2.59451E-09 -2.81610E-09 -3.02397E-09 -3.22059E-09 -3.40742E-09
  -3.58524E-09 -3.75447E-09 -3.91522E-09 -4.06746E-09 -4.21104E-09 -4.34570E-09 -4.47125E-09 -4.58788E-09 -4.69580E-09 -4.79520E-09
  -4.88626E-09 -4.96912E-09 -5.04393E-09 -5.11082E-09 -5.16993E-09 -5.22136E-09 -5.26524E-09 -5.30168E-09 -5.33077E-09 -5.35262E-09
  -5.36734E-09 -5.37502E-09 -5.37575E-09 -5.36965E-09 -5.35679E-09 -5.33728E-09 -5.31120E-09 -5.27864E-09 -5.23971E-09 -5.19449E-09
  -5.14306E-09 -5.08552E-09 -5.02195E-09 -4.95245E-09 -4.87718E-09 -4.79646E-09 -4.71062E-09 -4.61999E-09 -4.52491E-09 -4.42573E-09
  -4.32276E-09 -4.21635E-09 -4.10684E-09 -3.99455E-09 -3.87982E-09 -3.76299E-09 -3.64438E-09 -3.52434E-09 -3.40318E-09 -3.28127E-09
  -3.15892E-09 -3.03647E-09 -2.91425E-09 -2.79260E-09 -2.67185E-09 -2.55233E-09 -2.43437E-09 -2.31831E-09 -2.20450E-09 -2.09326E-09
  -1.98490E-09 -1.87979E-09 -1.77809E-09 -1.67975E-09 -1.58475E-09 -1.49305E-09 -1.40458E-09 -1.31930E-09 -1.23718E-09 -1.15815E-09
  -1.08219E-09 -1.00924E-09 -9.39258E-10 -8.72192E-10 -8.08009E-10 -7.46656E-10 -6.88068E-10 -6.32241E-10 -5.79108E-10 -5.28614E-10
  -4.80716E-10 -4.35385E-10 -3.92553E-10 -3.52184E-10 -3.14248E-10 -2.78663E-10 -2.45423E-10 -2.14459E-10 -1.85736E-10 -1.59194E-10
  -1.34796E-10 -1.12496E-10 -9.22409E-11 -7.39820E-11 -5.76793E-11 -4.32762E-11 -3.07319E-11 -1.99921E-11 -1.10106E-11 -3.74423E-12
   1.86018E-12  5.84838E-12  8.26961E-12  9.17100E-12  8.59895E-12  6.60516E-12  3.23419E-12 -1.46377E-12 -7.44671E-12 -1.46537E-11
  -2.30527E-11 -3.25836E-11 -4.32014E-11 -5.48663E-11 -6.75206E-11 -8.11189E-11 -9.56168E-11 -1.10960E-10 -1.27117E-10 -1.44057E-10
  -1.61748E-10 -1.80160E-10 -1.99262E-10 -2.19021E-10 -2.39410E-10 -2.60396E-10 -2.81949E-10 -3.04038E-10 -3.26632E-10 -3.49700E-10
  -3.73213E-10 -3.97138E-10 -4.21445E-10 -4.46105E-10 -4.71084E-10 -4.96354E-10 -5.21882E-10 -5.47639E-10 -5.73594E-10 -5.99716E-10
  -6.25974E-10 -6.52337E-10 -6.78775E-10 -7.05257E-10 -7.31753E-10 -7.58233E-10 -7.84692E-10 -8.11130E-10 -8.37548E-10 -8.63946E-10
  -8.90326E-10 -9.16688E-10 -9.43033E-10 -9.69361E-10 -9.95675E-10 -1.02197E-09 -1.04826E-09 -1.07453E-09 -1.10079E-09 -1.12704E-09
  -1.15328E-09 -1.17950E-09 -1.20572E-09 -1.23193E-09 -1.25813E-09 -1.28433E-09 -1.31052E-09 -1.33670E-09 -1.36288E-09 -1.38905E-09
  -1.41523E-09 -1.44140E-09 -1.46757E-09
 NY background values follow
    -4.833E-09   -4.777E-09   -4.720E-09   -4.664E-09   -4.607E-09   -4.551E-09   -4.494E-09   -4.438E-09   -4.381E-09   -4.325E-09
    -4.269E-09   -4.212E-09   -4.156E-09   -4.099E-09   -4.043E-09   -3.987E-09   -3.931E-09   -3.875E-09   -3.819E-09   -3.763E-09
    -3.707E-09   -3.651E-09   -3.595E-09   -3.540E-09   -3.484E-09   -3.429E-09   -3.374E-09   -3.319E-09   -3.264E-09   -3.209E-09
    -3.154E-09   -3.100E-09   -3.046E-09   -2.991E-09   -2.937E-09   -2.883E-09   -2.829E-09   -2.776E-09   -2.722E-09   -2.669E-09
    -2.615E-09   -2.562E-09   -2.509E-09   -2.456E-09   -2.403E-09   -2.350E-09   -2.297E-09   -2.244E-09   -2.191E-09   -2.139E-09
    -2.086E-09   -2.034E-09   -1.981E-09   -1.929E-09   -1.877E-09   -1.824E-09   -1.772E-09   -1.720E-09   -1.668E-09   -1.615E-09
    -1.563E-09   -1.511E-09   -1.459E-09   -1.407E-09   -1.356E-09   -1.304E-09   -1.252E-09   -1.200E-09   -1.149E-09   -1.097E-09
    -1.046E-09   -9.944E-10   -9.431E-10   -8.919E-10   -8.407E-10   -7.896E-10   -7.386E-10   -6.877E-10   -6.369E-10   -5.862E-10
    -5.355E-10   -4.850E-10   -4.346E-10   -3.842E-10   -3.340E-10   -2.839E-10   -2.339E-10   -1.840E-10   -1.342E-10   -8.453E-11
    -3.500E-11    1.440E-11    6.366E-11    1.128E-10    1.618E-10    2.106E-10    2.593E-10    3.078E-10    3.562E-10    4.044E-10
     4.525E-10    5.003E-10    5.481E-10    5.956E-10    6.429E-10    6.901E-10    7.370E-10    7.838E-10    8.304E-10    8.768E-10
     9.229E-10    9.689E-10    1.015E-09    1.060E-09    1.105E-09    1.150E-09    1.193E-09    1.236E-09    1.279E-09    1.320E-09
     1.359E-09    1.398E-09    1.435E-09    1.471E-09    1.505E-09    1.537E-09    1.567E-09    1.595E-09    1.621E-09    1.645E-09
     1.666E-09    1.685E-09    1.701E-09    1.715E-09    1.725E-09    1.732E-09    1.736E-09    1.737E-09    1.735E-09    1.728E-09
     1.719E-09    1.705E-09    1.687E-09    1.666E-09    1.640E-09    1.611E-09    1.577E-09    1.539E-09    1.496E-09    1.448E-09
     1.397E-09    1.340E-09    1.278E-09    1.212E-09    1.140E-09    1.064E-09    9.821E-10    8.950E-10    8.025E-10    7.044E-10
     6.008E-10    4.915E-10    3.764E-10    2.554E-10    1.285E-10   -4.577E-12   -1.438E-10   -2.893E-10   -4.410E-10   -5.987E-10
    -7.617E-10   -9.296E-10   -1.102E-09   -1.278E-09   -1.457E-09   -1.639E-09   -1.823E-09   -2.009E-09   -2.196E-09   -2.384E-09
    -2.572E-09   -2.759E-09   -2.946E-09   -3.131E-09   -3.314E-09   -3.495E-09   -3.672E-09   -3.847E-09   -4.017E-09   -4.182E-09
    -4.342E-09   -4.497E-09   -4.646E-09   -4.788E-09   -4.922E-09   -5.049E-09   -5.168E-09   -5.279E-09   -5.382E-09   -5.476E-09
    -5.563E-09   -5.642E-09   -5.714E-09   -5.778E-09   -5.834E-09   -5.883E-09   -5.924E-09   -5.958E-09   -5.986E-09   -6.006E-09
    -6.019E-09   -6.025E-09   -6.024E-09   -6.016E-09   -6.002E-09   -5.981E-09   -5.954E-09   -5.920E-09   -5.880E-09   -5.834E-09
    -5.782E-09   -5.723E-09   -5.659E-09   -5.588E-09   -5.512E-09   -5.431E-09   -5.344E-09   -5.253E-09   -5.157E-09   -5.057E-09
    -4.954E-09   -4.847E-09   -4.737E-09   -4.624E-09   -4.509E-09   -4.391E-09   -4.272E-09   -4.151E-09   -4.030E-09   -3.907E-09
    -3.785E-09   -3.662E-09   -3.539E-09   -3.417E-09   -3.296E-09   -3.176E-09   -3.057E-09   -2.941E-09   -2.827E-09   -2.715E-09
    -2.606E-09   -2.501E-09   -2.399E-09   -2.300E-09   -2.205E-09   -2.113E-09   -2.024E-09   -1.938E-09   -1.856E-09   -1.776E-09
    -1.700E-09   -1.627E-09   -1.557E-09   -1.489E-09   -1.425E-09   -1.363E-09   -1.304E-09   -1.248E-09   -1.195E-09   -1.144E-09
    -1.096E-09   -1.050E-09   -1.007E-09   -9.662E-10   -9.280E-10   -8.921E-10   -8.586E-10   -8.273E-10   -7.983E-10   -7.715E-10
    -7.468E-10   -7.243E-10   -7.037E-10   -6.852E-10   -6.686E-10   -6.540E-10   -6.411E-10   -6.301E-10   -6.209E-10   -6.133E-10
    -6.075E-10   -6.032E-10   -6.005E-10   -5.994E-10   -5.997E-10   -6.014E-10   -6.045E-10   -6.090E-10   -6.147E-10   -6.216E-10
    -6.298E-10   -6.390E-10   -6.494E-10   -6.608E-10   -6.732E-10   -6.865E-10   -7.008E-10   -7.159E-10   -7.318E-10   -7.484E-10
    -7.659E-10   -7.840E-10   -8.029E-10   -8.224E-10   -8.425E-10   -8.632E-10   -8.845E-10   -9.063E-10   -9.287E-10   -9.515E-10
    -9.747E-10   -9.984E-10   -1.022E-09   -1.047E-09   -1.072E-09   -1.097E-09   -1.122E-09   -1.147E-09   -1.173E-09   -1.199E-09
    -1.225E-09   -1.251E-09   -1.277E-09   -1.303E-09   -1.330E-09   -1.356E-09   -1.382E-09   -1.408E-09   -1.434E-09   -1.460E-09
    -1.486E-09   -1.513E-09   -1.539E-09   -1.565E-09   -1.591E-09   -1.617E-09   -1.643E-09   -1.669E-09   -1.695E-09   -1.721E-09
    -1.747E-09   -1.772E-09   -1.798E-09   -1.824E-09   -1.850E-09   -1.876E-09   -1.902E-09   -1.928E-09   -1.954E-09   -1.980E-09
    -2.006E-09   -2.031E-09   -2.057E-09
 Asp      Conc. = 5.06E-10
  -4.23258E-09 -4.25096E-09 -4.25683E-09 -4.27585E-09 -4.28359E-09 -4.30955E-09 -4.32844E-09 -4.32888E-09 -4.29917E-09 -4.25789E-09
  -4.21099E-09 -4.16076E-09 -4.10824E-09 -4.05412E-09 -3.99957E-09 -3.94469E-09 -3.88945E-09 -3.83395E-09 -3.77822E-09 -3.72230E-09
  -3.66622E-09 -3.61000E-09 -3.55366E-09 -3.49718E-09 -3.44054E-09 -3.38376E-09 -3.32677E-09 -3.26951E-09 -3.21192E-09 -3.15388E-09
  -3.09523E-09 -3.03569E-09 -2.97486E-09 -2.91207E-09 -2.84601E-09 -2.77374E-09 -2.68823E-09 -2.60104E-09 -2.50734E-09 -2.42149E-09
  -2.34446E-09 -2.27044E-09 -2.18625E-09 -2.08166E-09 -1.95650E-09 -1.81119E-09 -1.69777E-09 -1.60987E-09 -1.48141E-09 -1.34419E-09
  -1.20198E-09 -1.09565E-09 -1.05271E-09 -1.09208E-09 -1.18722E-09 -1.27843E-09 -1.31682E-09 -1.27555E-09 -1.27393E-09 -1.31574E-09
  -1.30707E-09 -1.28318E-09 -1.25764E-09 -1.20730E-09 -1.15408E-09 -1.12489E-09 -1.11426E-09 -1.08665E-09 -1.05077E-09 -1.01049E-09
  -9.67543E-10 -9.22845E-10 -8.76925E-10 -8.30136E-10 -7.82697E-10 -7.34786E-10 -6.86511E-10 -6.37954E-10 -5.89192E-10 -5.40283E-10
  -4.91248E-10 -4.42149E-10 -3.92981E-10 -3.43805E-10 -2.94603E-10 -2.45423E-10 -1.96268E-10 -1.47153E-10 -9.80920E-11 -4.90922E-11
  -1.72452E-13  4.86690E-11  9.74139E-11  1.46060E-10  1.94596E-10  2.43022E-10  2.91321E-10  3.39493E-10  3.87530E-10  4.35422E-10
   4.83174E-10  5.30770E-10  5.78209E-10  6.25485E-10  6.72593E-10  7.19531E-10  7.66287E-10  8.12865E-10  8.59255E-10  9.05454E-10
   9.51453E-10  9.97254E-10  1.04285E-09  1.08816E-09  1.13305E-09  1.17741E-09  1.22110E-09  1.26401E-09  1.30601E-09  1.34697E-09
   1.38676E-09  1.42527E-09  1.46236E-09  1.49790E-09  1.53179E-09  1.56388E-09  1.59405E-09  1.62218E-09  1.64814E-09  1.67182E-09
   1.69307E-09  1.71178E-09  1.72782E-09  1.74107E-09  1.75139E-09  1.75868E-09  1.76279E-09  1.76362E-09  1.76102E-09  1.75488E-09
   1.74508E-09  1.73151E-09  1.71407E-09  1.69268E-09  1.66724E-09  1.63765E-09  1.60382E-09  1.56566E-09  1.52309E-09  1.47600E-09
   1.42431E-09  1.36792E-09  1.30677E-09  1.24076E-09  1.16982E-09  1.09387E-09  1.01286E-09  9.26729E-10  8.35463E-10  7.39063E-10
   6.37599E-10  5.31247E-10  4.20402E-10  3.05916E-10  1.89906E-10  7.87528E-11  1.31525E-12  3.58021E-11  7.55497E-11  7.96581E-11
   5.46612E-11  8.06150E-12 -6.37882E-11 -1.75681E-10 -3.42571E-10 -5.91823E-10 -9.62713E-10 -1.46979E-09 -1.98760E-09 -2.26726E-09
  -2.48892E-09 -2.69339E-09 -2.89001E-09 -3.08170E-09 -3.26943E-09 -3.45344E-09 -3.63363E-09 -3.80972E-09 -3.98135E-09 -4.14810E-09
  -4.30952E-09 -4.46514E-09 -4.61447E-09 -4.75700E-09 -4.89226E-09 -5.01971E-09 -5.13898E-09 -5.25009E-09 -5.35312E-09 -5.44818E-09
  -5.53534E-09 -5.61470E-09 -5.68635E-09 -5.75037E-09 -5.80686E-09 -5.85590E-09 -5.89757E-09 -5.93198E-09 -5.95919E-09 -5.97930E-09
  -5.99240E-09 -5.99857E-09 -5.99789E-09 -5.99046E-09 -5.97636E-09 -5.95567E-09 -5.92848E-09 -5.89488E-09 -5.85496E-09 -5.80879E-09
  -5.75646E-09 -5.69806E-09 -5.63368E-09 -5.56340E-09 -5.48739E-09 -5.40595E-09 -5.31942E-09 -5.22813E-09 -5.13242E-09 -5.03262E-09
  -4.92906E-09 -4.82208E-09 -4.71201E-09 -4.59919E-09 -4.48393E-09 -4.36660E-09 -4.24750E-09 -4.12698E-09 -4.00536E-09 -3.88299E-09
  -3.76021E-09 -3.63732E-09 -3.51468E-09 -3.39262E-09 -3.27146E-09 -3.15155E-09 -3.03321E-09 -2.91677E-09 -2.80258E-09 -2.69098E-09
  -2.58226E-09 -2.47681E-09 -2.37475E-09 -2.27608E-09 -2.18074E-09 -2.08871E-09 -1.99991E-09 -1.91432E-09 -1.83187E-09 -1.75254E-09
  -1.67627E-09 -1.60301E-09 -1.53272E-09 -1.46536E-09 -1.40088E-09 -1.33924E-09 -1.28036E-09 -1.22424E-09 -1.17083E-09 -1.12005E-09
  -1.07187E-09 -1.02627E-09 -9.83159E-10 -9.42518E-10 -9.04312E-10 -8.68457E-10 -8.34950E-10 -8.03721E-10 -7.74733E-10 -7.47928E-10
  -7.23269E-10 -7.00709E-10 -6.80195E-10 -6.61679E-10 -6.45120E-10 -6.30461E-10 -6.17662E-10 -6.06669E-10 -5.97435E-10 -5.89916E-10
  -5.84061E-10 -5.79821E-10 -5.77150E-10 -5.75999E-10 -5.76322E-10 -5.78067E-10 -5.81190E-10 -5.85640E-10 -5.91375E-10 -5.98334E-10
  -6.06486E-10 -6.15770E-10 -6.26141E-10 -6.37560E-10 -6.49967E-10 -6.63319E-10 -6.77570E-10 -6.92667E-10 -7.08578E-10 -7.25271E-10
  -7.42715E-10 -7.60879E-10 -7.79734E-10 -7.99247E-10 -8.19387E-10 -8.40125E-10 -8.61430E-10 -8.83270E-10 -9.05615E-10 -9.28433E-10
  -9.51696E-10 -9.75370E-10 -9.99425E-10 -1.02383E-09 -1.04856E-09 -1.07358E-09 -1.09885E-09 -1.12435E-09 -1.15005E-09 -1.17592E-09
  -1.20192E-09 -1.22803E-09 -1.25421E-09 -1.28043E-09 -1.30667E-09 -1.33289E-09 -1.35909E-09 -1.38526E-09 -1.41142E-09 -1.43755E-09
  -1.46366E-09 -1.48976E-09 -1.51584E-09 -1.54190E-09 -1.56794E-09 -1.59397E-09 -1.61998E-09 -1.64598E-09 -1.67197E-09 -1.69794E-09
  -1.72390E-09 -1.74985E-09 -1.77579E-09 -1.80172E-09 -1.82764E-09 -1.85355E-09 -1.87945E-09 -1.90535E-09 -1.93124E-09 -1.95712E-09
  -1.98301E-09 -2.00888E-09 -2.03476E-09
 Cr       Conc. = 3.66E-10
  -3.32054E-09 -3.53622E-09 -3.94445E-09 -4.36046E-09 -4.43360E-09 -4.42513E-09 -4.39276E-09 -4.35046E-09 -4.30312E-09 -4.25288E-09
  -4.20085E-09 -4.14760E-09 -4.09353E-09 -4.03883E-09 -3.98365E-09 -3.92810E-09 -3.87222E-09 -3.81606E-09 -3.75961E-09 -3.70287E-09
  -3.64579E-09 -3.58831E-09 -3.53032E-09 -3.47164E-09 -3.41197E-09 -3.35089E-09 -3.28760E-09 -3.22063E-09 -3.14695E-09 -3.05900E-09
  -2.93115E-09 -2.62915E-09 -2.18054E-09 -1.75555E-09 -1.38949E-09 -1.06605E-09 -7.80689E-10 -5.53903E-10 -4.16631E-10 -4.11191E-10
  -6.07842E-10 -1.07798E-09 -1.73662E-09 -2.13928E-09 -2.21126E-09 -2.21131E-09 -2.18695E-09 -2.15165E-09 -2.11058E-09 -2.06615E-09
  -2.01964E-09 -1.97172E-09 -1.92287E-09 -1.87334E-09 -1.82336E-09 -1.77297E-09 -1.72231E-09 -1.67145E-09 -1.62044E-09 -1.56931E-09
  -1.51810E-09 -1.46683E-09 -1.41553E-09 -1.36419E-09 -1.31286E-09 -1.26153E-09 -1.21021E-09 -1.15892E-09 -1.10765E-09 -1.05643E-09
  -1.00524E-09 -9.54107E-10 -9.03025E-10 -8.52006E-10 -8.01044E-10 -7.50157E-10 -6.99341E-10 -6.48595E-10 -5.97928E-10 -5.47352E-10
  -4.96846E-10 -4.46443E-10 -3.96114E-10 -3.45898E-10 -2.95760E-10 -2.45735E-10 -1.95815E-10 -1.46003E-10 -9.63077E-11 -4.67274E-11
   2.72472E-12  5.20556E-11  1.01251E-10  1.50314E-10  1.99236E-10  2.48018E-10  2.96649E-10  3.45129E-10  3.93454E-10  4.41615E-10
   4.89618E-10  5.37449E-10  5.85108E-10  6.32591E-10  6.79893E-10  7.27015E-10  7.73942E-10  8.20683E-10  8.67225E-10  9.13566E-10
   9.59700E-10  1.00563E-09  1.05134E-09  1.09676E-09  1.14177E-09  1.18623E-09  1.23002E-09  1.27302E-09  1.31510E-09  1.35614E-09
   1.39601E-09  1.43459E-09  1.47174E-09  1.50736E-09  1.54130E-09  1.57345E-09  1.60367E-09  1.63185E-09  1.65786E-09  1.68158E-09
   1.70287E-09  1.72161E-09  1.73769E-09  1.75097E-09  1.76132E-09  1.76863E-09  1.77276E-09  1.77360E-09  1.77101E-09  1.76488E-09
   1.75508E-09  1.74151E-09  1.72407E-09  1.70266E-09  1.67720E-09  1.64759E-09  1.61373E-09  1.57553E-09  1.53291E-09  1.48575E-09
   1.43399E-09  1.37752E-09  1.31625E-09  1.25011E-09  1.17901E-09  1.10287E-09  1.02161E-09  9.35189E-10  8.43550E-10  7.46674E-10
   6.44589E-10  5.37401E-10  4.25390E-10  3.09186E-10  1.90441E-10  7.43490E-11 -1.42010E-11 -2.89338E-11 -4.51305E-11 -8.84433E-11
  -1.53460E-10 -2.35248E-10 -3.37022E-10 -4.69279E-10 -6.43136E-10 -8.78867E-10 -1.20409E-09 -1.62285E-09 -2.03403E-09 -2.28188E-09
  -2.49294E-09 -2.69238E-09 -2.88614E-09 -3.07602E-09 -3.26252E-09 -3.44565E-09 -3.62519E-09 -3.80078E-09 -3.97201E-09 -4.13845E-09
  -4.29961E-09 -4.45502E-09 -4.60417E-09 -4.74656E-09 -4.88168E-09 -5.00903E-09 -5.12820E-09 -5.23923E-09 -5.34219E-09 -5.43717E-09
  -5.52428E-09 -5.60358E-09 -5.67518E-09 -5.73917E-09 -5.79561E-09 -5.84462E-09 -5.88626E-09 -5.92063E-09 -5.94782E-09 -5.96791E-09
  -5.98098E-09 -5.98713E-09 -5.98643E-09 -5.97898E-09 -5.96486E-09 -5.94416E-09 -5.91696E-09 -5.88334E-09 -5.84340E-09 -5.79722E-09
  -5.74489E-09 -5.68648E-09 -5.62208E-09 -5.55179E-09 -5.47577E-09 -5.39432E-09 -5.30778E-09 -5.21649E-09 -5.12077E-09 -5.02096E-09
