 LCModel (Version 6.3-1R) Copyright: S.W. Provencher.          Ref.: Magn. Reson. Med. 30:672-679 (1993).                
 onepulse 26x18_ftSpec_smooth_lcm
 26 lines in following concentration table = NCONC+1
    Conc.  %SD /Cr+PCr  Metabolite                                         
    0.000 999%   0.000 Ala                                                 
    0.000 999%   0.000 Asp                                                 
    0.000 999%   0.000 Cr                                                  
    0.000 999%   0.000 GABA                                                
    0.000 999%   0.000 Glc                                                 
 2.46E-09  30%  20.408 Gln                                                 
    0.000 999%   0.000 Glu                                                 
    0.000 999%   0.000 Glyc                                                
 1.35E-10 103%   1.120 GPC                                                 
    0.000 999%   0.000 GSH                                                 
 1.20E-09  41%   9.989 Ins                                                 
    0.000 999%   0.000 Lac                                                 
 1.40E-10 315%   1.157 NAAG                                                
 2.03E-10 288%   1.684 NAA                                                 
    0.000 999%   0.000 PCh                                                 
 1.21E-10 265%   1.000 PCr                                                 
    0.000 999%   0.000 PE                                                  
 1.09E-10 327%   0.904 Scyllo                                              
 4.16E-09  25%  34.456 Ser                                                 
 6.77E-10 156%   5.613 Tau                                                 
 1.35E-10 103%   1.120 GPC+PCh                                             
 3.43E-10 105%   2.841 NAA+NAAG                                            
 1.20E-09  41%   9.989 Ins+Glyc                                            
 1.21E-10 265%   1.000 Cr+PCr                                              
 2.46E-09  30%  20.408 Glu+Gln                                             
   6 lines in following misc. output table
  FWHM = 0.101 ppm    S/N =   2                                            
  Data shift = 0.369 ppm                                                   
  Ph: -63 deg     -40.4 deg/ppm                                            
  alphaB,S = 7.2E-01,   4.5E+01                                            
    8 spline knots.   Ns = 5(1)                                            
  ( 8) 2 infls.   ( 5) 1 extrs.                                            
  363 points on ppm-axis = NY
      4.250000     4.238821     4.227641     4.216462     4.205282     4.194103     4.182923     4.171744     4.160564     4.149385
      4.138206     4.127026     4.115847     4.104667     4.093488     4.082308     4.071129     4.059949     4.048770     4.037591
      4.026411     4.015232     4.004052     3.992873     3.981693     3.970514     3.959334     3.948155     3.936975     3.925796
      3.914617     3.903437     3.892258     3.881078     3.869899     3.858719     3.847540     3.836360     3.825181     3.814002
      3.802822     3.791643     3.780463     3.769284     3.758104     3.746925     3.735745     3.724566     3.713387     3.702207
      3.691028     3.679848     3.668669     3.657489     3.646310     3.635130     3.623951     3.612772     3.601592     3.590413
      3.579233     3.568054     3.556874     3.545695     3.534515     3.523336     3.512156     3.500977     3.489798     3.478618
      3.467439     3.456259     3.445080     3.433900     3.422721     3.411541     3.400362     3.389183     3.378003     3.366824
      3.355644     3.344465     3.333285     3.322106     3.310926     3.299747     3.288568     3.277388     3.266209     3.255029
      3.243850     3.232670     3.221491     3.210311     3.199132     3.187953     3.176773     3.165594     3.154414     3.143235
      3.132055     3.120876     3.109696     3.098517     3.087337     3.076158     3.064979     3.053799     3.042620     3.031440
      3.020261     3.009081     2.997902     2.986722     2.975543     2.964364     2.953184     2.942005     2.930825     2.919646
      2.908466     2.897287     2.886107     2.874928     2.863749     2.852569     2.841390     2.830210     2.819031     2.807851
      2.796672     2.785492     2.774313     2.763134     2.751954     2.740775     2.729595     2.718416     2.707236     2.696057
      2.684877     2.673698     2.662519     2.651339     2.640160     2.628980     2.617801     2.606621     2.595442     2.584262
      2.573083     2.561903     2.550724     2.539545     2.528365     2.517186     2.506006     2.494827     2.483647     2.472468
      2.461288     2.450109     2.438930     2.427750     2.416571     2.405391     2.394212     2.383032     2.371853     2.360673
      2.349494     2.338315     2.327135     2.315956     2.304776     2.293597     2.282417     2.271238     2.260058     2.248879
      2.237700     2.226520     2.215341     2.204161     2.192982     2.181802     2.170623     2.159443     2.148264     2.137084
      2.125905     2.114726     2.103546     2.092367     2.081187     2.070008     2.058828     2.047649     2.036469     2.025290
      2.014111     2.002931     1.991752     1.980572     1.969393     1.958213     1.947034     1.935854     1.924675     1.913496
      1.902316     1.891137     1.879957     1.868778     1.857598     1.846419     1.835239     1.824060     1.812881     1.801701
      1.790522     1.779342     1.768163     1.756983     1.745804     1.734624     1.723445     1.712265     1.701086     1.689907
      1.678727     1.667548     1.656368     1.645189     1.634009     1.622830     1.611650     1.600471     1.589292     1.578112
      1.566933     1.555753     1.544574     1.533394     1.522215     1.511035     1.499856     1.488677     1.477497     1.466318
      1.455138     1.443959     1.432779     1.421600     1.410420     1.399241     1.388062     1.376882     1.365703     1.354523
      1.343344     1.332164     1.320985     1.309805     1.298626     1.287446     1.276267     1.265088     1.253908     1.242729
      1.231549     1.220370     1.209190     1.198011     1.186831     1.175652     1.164473     1.153293     1.142114     1.130934
      1.119755     1.108575     1.097396     1.086216     1.075037     1.063858     1.052678     1.041499     1.030319     1.019140
      1.007960     0.996781     0.985601     0.974422     0.963243     0.952063     0.940884     0.929704     0.918525     0.907345
      0.896166     0.884986     0.873807     0.862628     0.851448     0.840269     0.829089     0.817910     0.806730     0.795551
      0.784371     0.773192     0.762012     0.750833     0.739654     0.728474     0.717295     0.706115     0.694936     0.683756
      0.672577     0.661397     0.650218     0.639039     0.627859     0.616680     0.605500     0.594321     0.583141     0.571962
      0.560782     0.549603     0.538424     0.527244     0.516065     0.504885     0.493706     0.482526     0.471347     0.460167
      0.448988     0.437809     0.426629     0.415450     0.404270     0.393091     0.381911     0.370732     0.359552     0.348373
      0.337193     0.326014     0.314835     0.303655     0.292476     0.281296     0.270117     0.258937     0.247758     0.236578
      0.225399     0.214220     0.203040
 NY phased data points follow
   1.86627E-08  1.64804E-08  1.63397E-08  1.49591E-08  1.44704E-08  1.34493E-08  1.41212E-08  1.21959E-08  1.31049E-08  1.24143E-08
   1.29662E-08  1.30079E-08  1.33995E-08  1.29554E-08  1.35855E-08  1.26211E-08  1.31574E-08  1.23176E-08  1.32798E-08  1.22432E-08
   1.20572E-08  1.18129E-08  1.19538E-08  1.22799E-08  1.35905E-08  1.22889E-08  1.23362E-08  1.17464E-08  1.30372E-08  1.25698E-08
   1.41561E-08  1.45928E-08  1.48221E-08  1.34021E-08  1.28371E-08  1.14954E-08  1.08715E-08  1.02987E-08  1.05282E-08  9.15762E-09
   9.51275E-09  8.79418E-09  9.43985E-09  8.46970E-09  8.80786E-09  7.60516E-09  8.19293E-09  7.54108E-09  7.87265E-09  7.44379E-09
   8.16840E-09  7.35771E-09  7.74885E-09  6.60535E-09  7.25720E-09  6.33258E-09  7.56821E-09  6.70527E-09  7.56066E-09  8.25482E-09
   1.01812E-08  1.13099E-08  1.38784E-08  1.41873E-08  1.32668E-08  1.22318E-08  1.11709E-08  1.02082E-08  9.27063E-09  8.49620E-09
   8.05436E-09  7.46669E-09  7.13623E-09  6.67382E-09  7.36360E-09  6.84103E-09  9.04221E-09  1.13793E-08  1.36057E-08  1.43879E-08
   1.48159E-08  1.46559E-08  1.41807E-08  1.34573E-08  1.24988E-08  1.20220E-08  1.17830E-08  1.11588E-08  1.08840E-08  9.86783E-09
   9.51380E-09  9.40709E-09  9.10668E-09  8.12861E-09  8.66812E-09  7.38780E-09  7.67626E-09  7.83259E-09  6.84170E-09  7.74598E-09
   7.14151E-09  7.24558E-09  7.30999E-09  6.83676E-09  7.10112E-09  6.57368E-09  5.90284E-09  5.81368E-09  5.57544E-09  4.62397E-09
   4.89345E-09  5.31611E-09  5.45182E-09  5.54367E-09  5.05115E-09  5.51261E-09  5.52908E-09  6.62928E-09  6.48351E-09  6.34311E-09
   5.29424E-09  5.73542E-09  4.92108E-09  4.99327E-09  3.51227E-09  3.99993E-09  4.01913E-09  4.93488E-09  4.63860E-09  4.48310E-09
   4.05261E-09  4.64759E-09  4.56012E-09  3.61662E-09  3.84815E-09  4.20393E-09  3.69326E-09  4.19326E-09  4.78103E-09  5.06124E-09
   5.35113E-09  5.30386E-09  5.89726E-09  5.84213E-09  6.57697E-09  7.02946E-09  7.21670E-09  6.85897E-09  7.01502E-09  7.21035E-09
   7.38861E-09  6.65275E-09  6.86531E-09  6.90594E-09  6.62600E-09  7.57084E-09  7.63725E-09  7.13705E-09  7.54479E-09  6.85265E-09
   7.82047E-09  7.02842E-09  6.71688E-09  6.69300E-09  7.25040E-09  8.41073E-09  9.53307E-09  1.14506E-08  1.34668E-08  1.70320E-08
   1.84980E-08  1.90071E-08  1.81214E-08  1.69272E-08  1.60171E-08  1.42433E-08  1.33720E-08  1.27319E-08  1.18773E-08  1.11316E-08
   1.03589E-08  9.80273E-09  9.07272E-09  8.06506E-09  7.47177E-09  6.94906E-09  6.16772E-09  4.55688E-09  4.02318E-09  3.00213E-09
   5.74964E-10 -2.43974E-11 -2.09226E-09 -4.09814E-09 -5.61712E-09 -8.11974E-09 -1.03187E-08 -1.28304E-08 -1.46595E-08 -1.66028E-08
  -1.82215E-08 -1.99074E-08 -2.06162E-08 -2.10625E-08 -2.06651E-08 -2.04789E-08 -1.99947E-08 -1.83566E-08 -1.66071E-08 -1.42350E-08
  -1.24124E-08 -1.06603E-08 -7.75469E-09 -6.25486E-09 -4.35571E-09 -2.74567E-09 -1.46591E-09 -1.01631E-09 -2.41871E-10 -1.11065E-09
  -6.22531E-10 -1.02587E-09 -1.57072E-09 -1.64528E-09 -1.09342E-09 -1.60686E-09 -1.38209E-09 -7.62654E-10 -5.65684E-10 -6.50607E-10
  -4.31296E-10 -6.76467E-10 -5.10442E-10 -1.02538E-09 -1.33709E-09 -1.29975E-09 -5.31494E-10 -7.30027E-10 -5.63193E-10 -5.76584E-10
  -3.79705E-10  2.76132E-10 -9.75496E-11 -1.47533E-10 -1.05862E-09 -7.94249E-10 -6.13861E-10 -9.27979E-10 -6.64866E-10 -5.24845E-10
  -1.20451E-10 -1.63961E-11  5.07734E-10  1.34567E-10  5.13230E-11  4.48122E-10  1.00874E-09 -5.27046E-11 -4.41635E-10  9.20736E-11
  -4.64141E-10 -6.79252E-10 -9.64257E-10 -5.45800E-10 -1.43632E-09 -4.63238E-10 -9.59811E-10 -3.71743E-10  7.35071E-11  4.18689E-10
   4.53833E-10  2.13153E-10  8.13599E-10  6.17903E-10  5.73348E-10  6.14967E-10  1.32048E-09  9.14058E-10  5.50603E-10  1.70712E-10
   8.99864E-10  1.38269E-10 -5.16556E-12  5.03747E-11 -4.10244E-10  5.38178E-10 -4.03946E-10  4.98805E-11  3.86720E-11  3.43767E-11
  -4.52416E-10  4.55594E-10 -2.11186E-10 -6.78801E-11  6.20558E-10 -1.80818E-11 -5.14903E-10  1.14966E-11 -7.37258E-11 -7.49297E-10
   6.96113E-11 -5.19527E-10  7.69038E-11 -5.37911E-11 -5.49682E-10 -3.30892E-10 -1.60748E-10 -5.21446E-10 -3.51160E-10 -5.31517E-10
  -2.63504E-10 -6.19551E-10 -2.98148E-10 -1.17051E-10 -3.21255E-10 -3.32418E-10 -4.77152E-10  3.25044E-10 -2.05474E-10 -5.37642E-10
  -5.81177E-10  8.77434E-11 -3.14038E-10  1.33848E-10 -5.67682E-10 -4.27094E-10 -5.79136E-10  1.38559E-10  3.78544E-10 -7.26199E-10
  -3.45993E-10 -1.35655E-10 -5.15403E-11 -3.02309E-10 -2.67922E-10 -3.95601E-10  1.47301E-10 -4.73530E-10 -5.21290E-10  7.59612E-11
   1.03088E-10 -7.70899E-10 -3.40029E-10 -3.94741E-11 -3.06696E-10 -4.67467E-10 -6.65267E-10 -1.76810E-11 -1.52787E-10 -1.85145E-10
  -2.00873E-10 -7.37963E-10 -4.25020E-10  1.40580E-10 -8.57053E-11 -8.12581E-11 -1.20385E-10  4.54031E-10 -7.70181E-10  2.19080E-10
  -8.63686E-10  7.48060E-11  9.93624E-11
 NY points of the fit to the data follow
   1.66749E-08  1.65239E-08  1.58196E-08  1.54922E-08  1.53596E-08  1.50153E-08  1.41873E-08  1.31466E-08  1.24421E-08  1.22373E-08
   1.23133E-08  1.25147E-08  1.27993E-08  1.30285E-08  1.32696E-08  1.33301E-08  1.32924E-08  1.32897E-08  1.30863E-08  1.24746E-08
   1.19237E-08  1.15876E-08  1.14019E-08  1.13916E-08  1.16999E-08  1.22674E-08  1.29482E-08  1.34779E-08  1.37944E-08  1.39015E-08
   1.39579E-08  1.38101E-08  1.34994E-08  1.29379E-08  1.21918E-08  1.14129E-08  1.08188E-08  1.03856E-08  1.00534E-08  9.77431E-09
   9.50589E-09  9.20531E-09  8.85090E-09  8.50451E-09  8.25801E-09  8.05534E-09  7.87183E-09  7.69665E-09  7.53102E-09  7.38249E-09
   7.24767E-09  7.12829E-09  7.02921E-09  6.96420E-09  7.07698E-09  7.46122E-09  7.89067E-09  8.48362E-09  9.32924E-09  1.02150E-08
   1.09802E-08  1.16282E-08  1.20882E-08  1.22811E-08  1.21525E-08  1.17290E-08  1.12008E-08  1.05819E-08  9.71930E-09  9.00507E-09
   8.54662E-09  8.29879E-09  8.26602E-09  8.38145E-09  8.72260E-09  9.30031E-09  1.00368E-08  1.10007E-08  1.20557E-08  1.29933E-08
   1.36807E-08  1.40148E-08  1.39914E-08  1.38424E-08  1.34969E-08  1.27965E-08  1.19924E-08  1.11256E-08  1.02603E-08  9.66223E-09
   9.25423E-09  8.94277E-09  8.69016E-09  8.47681E-09  8.28978E-09  8.12450E-09  7.97740E-09  7.84364E-09  7.71945E-09  7.60306E-09
   7.49635E-09  7.39741E-09  7.30288E-09  7.21215E-09  7.12600E-09  7.04369E-09  6.96448E-09  6.88786E-09  6.81333E-09  6.74056E-09
   6.66932E-09  6.59930E-09  6.53028E-09  6.46205E-09  6.39444E-09  6.32728E-09  6.26044E-09  6.19376E-09  6.12711E-09  6.06043E-09
   5.99354E-09  5.92641E-09  5.85892E-09  5.79100E-09  5.72258E-09  5.65357E-09  5.58390E-09  5.51355E-09  5.44243E-09  5.37050E-09
   5.29771E-09  5.22400E-09  5.14936E-09  5.07374E-09  4.99710E-09  4.91940E-09  4.84067E-09  4.76083E-09  4.67990E-09  4.59784E-09
   4.51470E-09  4.43045E-09  4.34512E-09  4.25870E-09  4.17127E-09  4.08286E-09  3.99357E-09  3.90357E-09  3.81309E-09  3.72236E-09
   3.63167E-09  3.54138E-09  3.45188E-09  3.36369E-09  3.27744E-09  3.19396E-09  3.11432E-09  3.03997E-09  2.97297E-09  2.91626E-09
   2.87434E-09  2.85446E-09  2.86915E-09  2.94238E-09  3.12726E-09  3.57243E-09  4.89777E-09  8.86786E-09  1.34525E-08  1.71714E-08
   1.94564E-08  2.03800E-08  2.02859E-08  1.94780E-08  1.79592E-08  1.53848E-08  1.13856E-08  6.28026E-09  1.91745E-09  7.22550E-10
   2.55068E-10 -1.62488E-11 -2.10756E-10 -3.68111E-10 -5.04909E-10 -6.29134E-10 -7.45003E-10 -8.54888E-10 -9.60256E-10 -1.06195E-09
  -1.16050E-09 -1.25628E-09 -1.34947E-09 -1.44022E-09 -1.52858E-09 -1.61459E-09 -1.69827E-09 -1.77957E-09 -1.85848E-09 -1.93497E-09
  -2.00900E-09 -2.08050E-09 -2.14943E-09 -2.21573E-09 -2.27936E-09 -2.34023E-09 -2.39832E-09 -2.45356E-09 -2.50590E-09 -2.55525E-09
  -2.60162E-09 -2.64490E-09 -2.68505E-09 -2.72204E-09 -2.75582E-09 -2.78631E-09 -2.81348E-09 -2.83730E-09 -2.85771E-09 -2.87478E-09
  -2.88857E-09 -2.89918E-09 -2.90667E-09 -2.91115E-09 -2.91267E-09 -2.91135E-09 -2.90724E-09 -2.90043E-09 -2.89101E-09 -2.87905E-09
  -2.86464E-09 -2.84787E-09 -2.82880E-09 -2.80754E-09 -2.78414E-09 -2.75871E-09 -2.73131E-09 -2.70203E-09 -2.67096E-09 -2.63815E-09
  -2.60371E-09 -2.56771E-09 -2.53023E-09 -2.49134E-09 -2.45112E-09 -2.40965E-09 -2.36701E-09 -2.32327E-09 -2.27852E-09 -2.23282E-09
  -2.18625E-09 -2.13888E-09 -2.09080E-09 -2.04205E-09 -1.99273E-09 -1.94290E-09 -1.89264E-09 -1.84200E-09 -1.79106E-09 -1.73988E-09
  -1.68853E-09 -1.63709E-09 -1.58561E-09 -1.53416E-09 -1.48279E-09 -1.43157E-09 -1.38057E-09 -1.32983E-09 -1.27942E-09 -1.22940E-09
  -1.17982E-09 -1.13073E-09 -1.08219E-09 -1.03425E-09 -9.86970E-10 -9.40383E-10 -8.94548E-10 -8.49517E-10 -8.05319E-10 -7.62012E-10
  -7.19640E-10 -6.78238E-10 -6.37853E-10 -5.98511E-10 -5.60261E-10 -5.23137E-10 -4.87177E-10 -4.52391E-10 -4.18841E-10 -3.86542E-10
  -3.55514E-10 -3.25779E-10 -2.97300E-10 -2.70051E-10 -2.44002E-10 -2.19135E-10 -1.95409E-10 -1.72809E-10 -1.51304E-10 -1.30867E-10
  -1.11475E-10 -9.30993E-11 -7.57205E-11 -5.93083E-11 -4.38374E-11 -2.92865E-11 -1.56340E-11 -2.85594E-12  9.07624E-12  2.01823E-11
   3.04824E-11  4.00026E-11  4.87571E-11  5.67764E-11  6.40736E-11  7.06736E-11  7.65924E-11  8.18553E-11  8.64753E-11  9.04724E-11
   9.38641E-11  9.66770E-11  9.89145E-11  1.00599E-10  1.01750E-10  1.02386E-10  1.02507E-10  1.02141E-10  1.01296E-10  9.99929E-11
   9.82368E-11  9.60449E-11  9.34320E-11  9.04060E-11  8.69751E-11  8.31549E-11  7.89525E-11  7.43818E-11  6.94436E-11  6.41603E-11
   5.85226E-11  5.25515E-11  4.62447E-11  3.96115E-11  3.26665E-11  2.53962E-11  1.78204E-11  9.93416E-12  1.74855E-12 -6.74016E-12
  -1.55285E-11 -2.46114E-11 -3.39920E-11 -4.36666E-11 -5.36394E-11 -6.39066E-11 -7.44768E-11 -8.53440E-11 -9.65144E-11 -1.07993E-10
  -1.19780E-10 -1.31882E-10 -1.44307E-10
 NY background values follow
     4.298E-09    4.338E-09    4.378E-09    4.417E-09    4.455E-09    4.493E-09    4.529E-09    4.565E-09    4.600E-09    4.634E-09
     4.668E-09    4.701E-09    4.733E-09    4.764E-09    4.794E-09    4.824E-09    4.853E-09    4.881E-09    4.909E-09    4.935E-09
     4.961E-09    4.986E-09    5.011E-09    5.035E-09    5.058E-09    5.080E-09    5.102E-09    5.123E-09    5.143E-09    5.163E-09
     5.182E-09    5.200E-09    5.217E-09    5.234E-09    5.250E-09    5.266E-09    5.281E-09    5.295E-09    5.309E-09    5.322E-09
     5.335E-09    5.347E-09    5.358E-09    5.369E-09    5.379E-09    5.389E-09    5.398E-09    5.407E-09    5.415E-09    5.422E-09
     5.429E-09    5.436E-09    5.442E-09    5.448E-09    5.453E-09    5.458E-09    5.462E-09    5.466E-09    5.469E-09    5.472E-09
     5.475E-09    5.477E-09    5.479E-09    5.481E-09    5.482E-09    5.483E-09    5.484E-09    5.484E-09    5.484E-09    5.484E-09
     5.483E-09    5.482E-09    5.481E-09    5.480E-09    5.478E-09    5.477E-09    5.475E-09    5.472E-09    5.470E-09    5.467E-09
     5.464E-09    5.460E-09    5.456E-09    5.451E-09    5.447E-09    5.441E-09    5.435E-09    5.429E-09    5.422E-09    5.415E-09
     5.407E-09    5.399E-09    5.389E-09    5.380E-09    5.369E-09    5.358E-09    5.346E-09    5.334E-09    5.320E-09    5.306E-09
     5.291E-09    5.275E-09    5.259E-09    5.241E-09    5.223E-09    5.203E-09    5.183E-09    5.161E-09    5.139E-09    5.115E-09
     5.091E-09    5.065E-09    5.038E-09    5.010E-09    4.980E-09    4.950E-09    4.918E-09    4.885E-09    4.850E-09    4.815E-09
     4.777E-09    4.739E-09    4.699E-09    4.657E-09    4.614E-09    4.570E-09    4.524E-09    4.476E-09    4.427E-09    4.376E-09
     4.324E-09    4.270E-09    4.214E-09    4.156E-09    4.097E-09    4.036E-09    3.973E-09    3.908E-09    3.842E-09    3.773E-09
     3.703E-09    3.631E-09    3.556E-09    3.480E-09    3.402E-09    3.322E-09    3.239E-09    3.155E-09    3.069E-09    2.981E-09
     2.892E-09    2.801E-09    2.708E-09    2.614E-09    2.518E-09    2.421E-09    2.323E-09    2.224E-09    2.124E-09    2.023E-09
     1.921E-09    1.818E-09    1.714E-09    1.610E-09    1.506E-09    1.401E-09    1.295E-09    1.189E-09    1.083E-09    9.775E-10
     8.714E-10    7.655E-10    6.597E-10    5.541E-10    4.489E-10    3.441E-10    2.397E-10    1.360E-10    3.295E-11   -6.937E-11
    -1.708E-10   -2.714E-10   -3.710E-10   -4.695E-10   -5.668E-10   -6.629E-10   -7.576E-10   -8.509E-10   -9.428E-10   -1.033E-09
    -1.122E-09   -1.209E-09   -1.294E-09   -1.377E-09   -1.459E-09   -1.538E-09   -1.615E-09   -1.690E-09   -1.763E-09   -1.834E-09
    -1.902E-09   -1.968E-09   -2.031E-09   -2.092E-09   -2.150E-09   -2.205E-09   -2.258E-09   -2.308E-09   -2.355E-09   -2.399E-09
    -2.440E-09   -2.478E-09   -2.513E-09   -2.545E-09   -2.573E-09   -2.599E-09   -2.621E-09   -2.639E-09   -2.655E-09   -2.667E-09
    -2.676E-09   -2.681E-09   -2.684E-09   -2.684E-09   -2.680E-09   -2.674E-09   -2.665E-09   -2.654E-09   -2.640E-09   -2.623E-09
    -2.604E-09   -2.582E-09   -2.559E-09   -2.533E-09   -2.505E-09   -2.475E-09   -2.443E-09   -2.410E-09   -2.374E-09   -2.337E-09
    -2.298E-09   -2.258E-09   -2.216E-09   -2.173E-09   -2.129E-09   -2.083E-09   -2.036E-09   -1.988E-09   -1.940E-09   -1.890E-09
    -1.839E-09   -1.788E-09   -1.736E-09   -1.683E-09   -1.630E-09   -1.576E-09   -1.522E-09   -1.468E-09   -1.413E-09   -1.358E-09
    -1.303E-09   -1.248E-09   -1.193E-09   -1.138E-09   -1.083E-09   -1.028E-09   -9.738E-10   -9.196E-10   -8.657E-10   -8.123E-10
    -7.593E-10   -7.068E-10   -6.549E-10   -6.036E-10   -5.531E-10   -5.032E-10   -4.541E-10   -4.059E-10   -3.585E-10   -3.121E-10
    -2.666E-10   -2.220E-10   -1.786E-10   -1.362E-10   -9.492E-11   -5.479E-11   -1.586E-11    2.188E-11    5.835E-11    9.355E-11
     1.274E-10    1.600E-10    1.913E-10    2.214E-10    2.502E-10    2.778E-10    3.043E-10    3.296E-10    3.538E-10    3.768E-10
     3.989E-10    4.198E-10    4.398E-10    4.588E-10    4.768E-10    4.938E-10    5.100E-10    5.252E-10    5.396E-10    5.531E-10
     5.658E-10    5.777E-10    5.888E-10    5.992E-10    6.088E-10    6.177E-10    6.258E-10    6.333E-10    6.402E-10    6.464E-10
     6.519E-10    6.569E-10    6.613E-10    6.651E-10    6.683E-10    6.710E-10    6.732E-10    6.749E-10    6.760E-10    6.767E-10
     6.769E-10    6.767E-10    6.760E-10    6.749E-10    6.733E-10    6.714E-10    6.690E-10    6.663E-10    6.631E-10    6.596E-10
     6.557E-10    6.515E-10    6.469E-10    6.420E-10    6.368E-10    6.311E-10    6.252E-10    6.190E-10    6.124E-10    6.055E-10
     5.983E-10    5.907E-10    5.829E-10    5.747E-10    5.662E-10    5.575E-10    5.483E-10    5.389E-10    5.292E-10    5.191E-10
     5.087E-10    4.979E-10    4.869E-10
 Gln      Conc. = 2.46E-09
   3.04399E-09  3.48296E-09  4.05605E-09  4.71788E-09  5.38957E-09  5.99453E-09  6.46811E-09  6.76475E-09  6.89767E-09  6.95779E-09
   6.77711E-09  6.52410E-09  6.30381E-09  5.98762E-09  5.76228E-09  5.60411E-09  5.48705E-09  5.39680E-09  5.32512E-09  5.26683E-09
   5.21847E-09  5.17763E-09  5.14259E-09  5.11217E-09  5.08558E-09  5.06208E-09  5.04069E-09  5.02112E-09  5.00289E-09  4.98546E-09
   4.96852E-09  4.95180E-09  4.93506E-09  4.91811E-09  4.90072E-09  4.88276E-09  4.86399E-09  4.84423E-09  4.82326E-09  4.80090E-09
   4.77701E-09  4.75141E-09  4.72408E-09  4.69481E-09  4.66329E-09  4.62938E-09  4.59280E-09  4.55266E-09  4.50975E-09  4.46510E-09
   4.41817E-09  4.37227E-09  4.33686E-09  4.34204E-09  4.53058E-09  4.98805E-09  5.48012E-09  6.12419E-09  7.01843E-09  7.97047E-09
   8.81932E-09  9.55815E-09  1.00990E-08  1.03519E-08  1.02677E-08  9.89044E-09  9.41493E-09  8.86015E-09  8.04909E-09  7.37009E-09
   6.92876E-09  6.68557E-09  6.65817E-09  6.79923E-09  7.18616E-09  7.80138E-09  8.45451E-09  9.12247E-09  9.75209E-09  1.02728E-08
   1.06291E-08  1.07394E-08  1.05801E-08  1.03464E-08  9.99010E-09  9.41612E-09  8.92956E-09  8.52636E-09  8.09056E-09  7.75001E-09
   7.49349E-09  7.29073E-09  7.12491E-09  6.98450E-09  6.86194E-09  6.75394E-09  6.65753E-09  6.57010E-09  6.49018E-09  6.41640E-09
   6.34739E-09  6.28219E-09  6.22025E-09  6.16110E-09  6.10433E-09  6.04945E-09  5.99605E-09  5.94388E-09  5.89265E-09  5.84211E-09
   5.79214E-09  5.74250E-09  5.69304E-09  5.64364E-09  5.59415E-09  5.54447E-09  5.49449E-09  5.44410E-09  5.39320E-09  5.34175E-09
   5.28960E-09  5.23674E-09  5.18306E-09  5.12852E-09  5.07305E-09  5.01658E-09  4.95904E-09  4.90043E-09  4.84067E-09  4.77970E-09
   4.71750E-09  4.65400E-09  4.58919E-09  4.52301E-09  4.45544E-09  4.38640E-09  4.31593E-09  4.24395E-09  4.17044E-09  4.09536E-09
   4.01872E-09  3.94048E-09  3.86063E-09  3.77913E-09  3.69600E-09  3.61122E-09  3.52481E-09  3.43688E-09  3.34754E-09  3.25690E-09
   3.16510E-09  3.07229E-09  2.97864E-09  2.88434E-09  2.78962E-09  2.69476E-09  2.60011E-09  2.50611E-09  2.41339E-09  2.32277E-09
   2.23550E-09  2.15358E-09  2.08034E-09  2.02209E-09  1.99259E-09  2.02958E-09  2.28631E-09  3.25936E-09  4.41357E-09  5.34287E-09
   5.88792E-09  6.06484E-09  5.96563E-09  5.67417E-09  5.19485E-09  4.43701E-09  3.29784E-09  1.85064E-09  5.77241E-10  1.67842E-10
  -3.39104E-11 -1.80749E-10 -3.06014E-10 -4.20513E-10 -5.28703E-10 -6.32671E-10 -7.33475E-10 -8.31669E-10 -9.27615E-10 -1.02146E-09
  -1.11326E-09 -1.20309E-09 -1.29093E-09 -1.37675E-09 -1.46051E-09 -1.54217E-09 -1.62170E-09 -1.69898E-09 -1.77400E-09 -1.84669E-09
  -1.91699E-09 -1.98482E-09 -2.05013E-09 -2.11285E-09 -2.17294E-09 -2.23031E-09 -2.28491E-09 -2.33669E-09 -2.38559E-09 -2.43153E-09
  -2.47450E-09 -2.51440E-09 -2.55120E-09 -2.58485E-09 -2.61531E-09 -2.64249E-09 -2.66637E-09 -2.68693E-09 -2.70408E-09 -2.71791E-09
  -2.72849E-09 -2.73590E-09 -2.74021E-09 -2.74153E-09 -2.73991E-09 -2.73546E-09 -2.72824E-09 -2.71835E-09 -2.70585E-09 -2.69085E-09
  -2.67341E-09 -2.65363E-09 -2.63157E-09 -2.60733E-09 -2.58099E-09 -2.55262E-09 -2.52232E-09 -2.49014E-09 -2.45619E-09 -2.42054E-09
  -2.38326E-09 -2.34445E-09 -2.30417E-09 -2.26251E-09 -2.21954E-09 -2.17533E-09 -2.12998E-09 -2.08356E-09 -2.03613E-09 -1.98777E-09
  -1.93857E-09 -1.88859E-09 -1.83792E-09 -1.78659E-09 -1.73471E-09 -1.68235E-09 -1.62956E-09 -1.57643E-09 -1.52301E-09 -1.46937E-09
  -1.41559E-09 -1.36173E-09 -1.30785E-09 -1.25401E-09 -1.20028E-09 -1.14671E-09 -1.09339E-09 -1.04034E-09 -9.87641E-10 -9.35350E-10
  -8.83512E-10 -8.32188E-10 -7.81437E-10 -7.31295E-10 -6.81836E-10 -6.33086E-10 -5.85108E-10 -5.37952E-10 -4.91645E-10 -4.46246E-10
  -4.01801E-10 -3.58342E-10 -3.15919E-10 -2.74555E-10 -2.34301E-10 -1.95189E-10 -1.57259E-10 -1.20519E-10 -8.50319E-11 -5.08133E-11
  -1.78826E-11  1.37388E-11  4.40885E-11  7.31910E-11  1.01077E-10  1.27765E-10  1.53296E-10  1.77684E-10  2.00963E-10  2.23157E-10
   2.44289E-10  2.64390E-10  2.83478E-10  3.01584E-10  3.18732E-10  3.34946E-10  3.50246E-10  3.64656E-10  3.78205E-10  3.90912E-10
   4.02798E-10  4.13890E-10  4.24200E-10  4.33760E-10  4.42584E-10  4.50695E-10  4.58110E-10  4.64854E-10  4.70942E-10  4.76391E-10
   4.81221E-10  4.85457E-10  4.89104E-10  4.92183E-10  4.94715E-10  4.96716E-10  4.98190E-10  4.99162E-10  4.99641E-10  4.99648E-10
   4.99188E-10  4.98279E-10  4.96935E-10  4.95164E-10  4.92974E-10  4.90381E-10  4.87393E-10  4.84022E-10  4.80270E-10  4.76160E-10
   4.71682E-10  4.66858E-10  4.61684E-10  4.56171E-10  4.50333E-10  4.44157E-10  4.37661E-10  4.30842E-10  4.23711E-10  4.16263E-10
   4.08503E-10  4.00435E-10  3.92056E-10  3.83371E-10  3.74374E-10  3.65071E-10  3.55452E-10  3.45523E-10  3.35278E-10  3.24712E-10
   3.13825E-10  3.02610E-10  2.91061E-10
 GPC      Conc. = 1.35E-10
   4.40311E-09  4.43155E-09  4.41240E-09  4.36662E-09  4.35116E-09  4.40454E-09  4.53072E-09  4.68906E-09  4.84938E-09  4.99381E-09
   5.11608E-09  5.21045E-09  5.26439E-09  5.26566E-09  5.21209E-09  5.10498E-09  4.98708E-09  4.87903E-09  4.79022E-09  4.70400E-09
   4.60764E-09  4.48861E-09  4.33801E-09  4.31499E-09  4.63020E-09  5.15497E-09  5.73557E-09  6.26942E-09  6.71710E-09  7.08461E-09
   7.39031E-09  7.62127E-09  7.70497E-09  7.53210E-09  7.07496E-09  6.61084E-09  6.37492E-09  6.23086E-09  6.13248E-09  6.06072E-09
   6.00611E-09  5.96323E-09  5.92878E-09  5.90056E-09  5.87709E-09  5.85728E-09  5.84037E-09  5.82573E-09  5.81294E-09  5.80165E-09
   5.79155E-09  5.78246E-09  5.77415E-09  5.76649E-09  5.75937E-09  5.75264E-09  5.74626E-09  5.74018E-09  5.73425E-09  5.72852E-09
   5.72291E-09  5.71738E-09  5.71192E-09  5.70651E-09  5.70114E-09  5.69575E-09  5.69035E-09  5.68491E-09  5.67945E-09  5.67397E-09
   5.66843E-09  5.66284E-09  5.65724E-09  5.65156E-09  5.64584E-09  5.64003E-09  5.63410E-09  5.62804E-09  5.62180E-09  5.61537E-09
   5.60871E-09  5.60180E-09  5.59461E-09  5.58711E-09  5.57930E-09  5.57112E-09  5.56254E-09  5.55357E-09  5.54416E-09  5.53427E-09
   5.52389E-09  5.51300E-09  5.50154E-09  5.48953E-09  5.47690E-09  5.46363E-09  5.44971E-09  5.43510E-09  5.41978E-09  5.40371E-09
   5.38686E-09  5.36922E-09  5.35074E-09  5.33142E-09  5.31119E-09  5.29005E-09  5.26796E-09  5.24492E-09  5.22086E-09  5.19575E-09
   5.16961E-09  5.14236E-09  5.11399E-09  5.08446E-09  5.05376E-09  5.02185E-09  4.98872E-09  4.95432E-09  4.91861E-09  4.88161E-09
   4.84322E-09  4.80347E-09  4.76230E-09  4.71971E-09  4.67565E-09  4.63009E-09  4.58300E-09  4.53438E-09  4.48418E-09  4.43237E-09
   4.37893E-09  4.32382E-09  4.26705E-09  4.20856E-09  4.14834E-09  4.08633E-09  4.02257E-09  3.95698E-09  3.88956E-09  3.82026E-09
   3.74909E-09  3.67602E-09  3.60101E-09  3.52403E-09  3.44509E-09  3.36416E-09  3.28123E-09  3.19639E-09  3.10970E-09  3.02127E-09
   2.93116E-09  2.83947E-09  2.74627E-09  2.65167E-09  2.55574E-09  2.45858E-09  2.36030E-09  2.26098E-09  2.16076E-09  2.05975E-09
   1.95809E-09  1.85600E-09  1.75371E-09  1.65170E-09  1.55083E-09  1.45349E-09  1.36972E-09  1.32434E-09  1.28672E-09  1.23577E-09
   1.16367E-09  1.07185E-09  9.65497E-10  8.49015E-10  7.22318E-10  5.80269E-10  4.17700E-10  2.40103E-10  7.57290E-11 -4.19363E-11
  -1.48965E-10 -2.52365E-10 -3.53709E-10 -4.53436E-10 -5.51720E-10 -6.48595E-10 -7.44035E-10 -8.37975E-10 -9.30408E-10 -1.02124E-09
  -1.11040E-09 -1.19783E-09 -1.28346E-09 -1.36721E-09 -1.44900E-09 -1.52877E-09 -1.60647E-09 -1.68198E-09 -1.75525E-09 -1.82624E-09
  -1.89485E-09 -1.96103E-09 -2.02470E-09 -2.08580E-09 -2.14428E-09 -2.20006E-09 -2.25308E-09 -2.30330E-09 -2.35065E-09 -2.39504E-09
  -2.43648E-09 -2.47487E-09 -2.51016E-09 -2.54231E-09 -2.57128E-09 -2.59699E-09 -2.61941E-09 -2.63851E-09 -2.65422E-09 -2.66662E-09
  -2.67578E-09 -2.68178E-09 -2.68470E-09 -2.68462E-09 -2.68163E-09 -2.67581E-09 -2.66724E-09 -2.65600E-09 -2.64218E-09 -2.62585E-09
