 LCModel (Version 6.3-1R) Copyright: S.W. Provencher.          Ref.: Magn. Reson. Med. 30:672-679 (1993).                
 onepulse 26x12_ftSpec_smooth_lcm
 26 lines in following concentration table = NCONC+1
    Conc.  %SD   /Cr    Metabolite                                         
 5.82E-10  55%   0.000 Ala                                                 
 2.42E-09  27%   0.000 Asp                                                 
    0.000 999%   0.000 Cr                                                  
 1.46E-09  32%   0.000 GABA                                                
 1.89E-09  40%   0.000 Glc                                                 
    0.000 999%   0.000 Gln                                                 
    0.000 999%   0.000 Glu                                                 
    0.000 999%   0.000 Glyc                                                
    0.000 999%   0.000 GPC                                                 
 1.41E-10 276%   0.000 GSH                                                 
 8.50E-10  52%   0.000 Ins                                                 
 6.77E-11 467%   0.000 Lac                                                 
 9.61E-10  35%   0.000 NAAG                                                
 1.01E-10 467%   0.000 NAA                                                 
    0.000 999%   0.000 PCh                                                 
    0.000 999%   0.000 PCr                                                 
 2.71E-09  23%   0.000 PE                                                  
 2.32E-11 843%   0.000 Scyllo                                              
    0.000 999%   0.000 Ser                                                 
    0.000 999%   0.000 Tau                                                 
    0.000 999%   0.000 GPC+PCh                                             
 1.06E-09  22%   0.000 NAA+NAAG                                            
 8.50E-10  52%   0.000 Ins+Glyc                                            
    0.000 999%   0.000 Cr+PCr                                              
    0.000 999%   0.000 Glu+Gln                                             
   6 lines in following misc. output table
  FWHM = 0.123 ppm    S/N =   3                                            
  Data shift = 0.492 ppm                                                   
  Ph:  73 deg     -23.8 deg/ppm                                            
  alphaB,S = 1.2E+00,   6.4E+00                                            
    9 spline knots.   Ns = 5(1)                                            
  (10) 8 infls.   (11) 5 extrs.                                            
  363 points on ppm-axis = NY
      4.250000     4.238821     4.227641     4.216462     4.205282     4.194103     4.182923     4.171744     4.160564     4.149385
      4.138206     4.127026     4.115847     4.104667     4.093488     4.082308     4.071129     4.059949     4.048770     4.037591
      4.026411     4.015232     4.004052     3.992873     3.981693     3.970514     3.959334     3.948155     3.936975     3.925796
      3.914617     3.903437     3.892258     3.881078     3.869899     3.858719     3.847540     3.836360     3.825181     3.814002
      3.802822     3.791643     3.780463     3.769284     3.758104     3.746925     3.735745     3.724566     3.713387     3.702207
      3.691028     3.679848     3.668669     3.657489     3.646310     3.635130     3.623951     3.612772     3.601592     3.590413
      3.579233     3.568054     3.556874     3.545695     3.534515     3.523336     3.512156     3.500977     3.489798     3.478618
      3.467439     3.456259     3.445080     3.433900     3.422721     3.411541     3.400362     3.389183     3.378003     3.366824
      3.355644     3.344465     3.333285     3.322106     3.310926     3.299747     3.288568     3.277388     3.266209     3.255029
      3.243850     3.232670     3.221491     3.210311     3.199132     3.187953     3.176773     3.165594     3.154414     3.143235
      3.132055     3.120876     3.109696     3.098517     3.087337     3.076158     3.064979     3.053799     3.042620     3.031440
      3.020261     3.009081     2.997902     2.986722     2.975543     2.964364     2.953184     2.942005     2.930825     2.919646
      2.908466     2.897287     2.886107     2.874928     2.863749     2.852569     2.841390     2.830210     2.819031     2.807851
      2.796672     2.785492     2.774313     2.763134     2.751954     2.740775     2.729595     2.718416     2.707236     2.696057
      2.684877     2.673698     2.662519     2.651339     2.640160     2.628980     2.617801     2.606621     2.595442     2.584262
      2.573083     2.561903     2.550724     2.539545     2.528365     2.517186     2.506006     2.494827     2.483647     2.472468
      2.461288     2.450109     2.438930     2.427750     2.416571     2.405391     2.394212     2.383032     2.371853     2.360673
      2.349494     2.338315     2.327135     2.315956     2.304776     2.293597     2.282417     2.271238     2.260058     2.248879
      2.237700     2.226520     2.215341     2.204161     2.192982     2.181802     2.170623     2.159443     2.148264     2.137084
      2.125905     2.114726     2.103546     2.092367     2.081187     2.070008     2.058828     2.047649     2.036469     2.025290
      2.014111     2.002931     1.991752     1.980572     1.969393     1.958213     1.947034     1.935854     1.924675     1.913496
      1.902316     1.891137     1.879957     1.868778     1.857598     1.846419     1.835239     1.824060     1.812881     1.801701
      1.790522     1.779342     1.768163     1.756983     1.745804     1.734624     1.723445     1.712265     1.701086     1.689907
      1.678727     1.667548     1.656368     1.645189     1.634009     1.622830     1.611650     1.600471     1.589292     1.578112
      1.566933     1.555753     1.544574     1.533394     1.522215     1.511035     1.499856     1.488677     1.477497     1.466318
      1.455138     1.443959     1.432779     1.421600     1.410420     1.399241     1.388062     1.376882     1.365703     1.354523
      1.343344     1.332164     1.320985     1.309805     1.298626     1.287446     1.276267     1.265088     1.253908     1.242729
      1.231549     1.220370     1.209190     1.198011     1.186831     1.175652     1.164473     1.153293     1.142114     1.130934
      1.119755     1.108575     1.097396     1.086216     1.075037     1.063858     1.052678     1.041499     1.030319     1.019140
      1.007960     0.996781     0.985601     0.974422     0.963243     0.952063     0.940884     0.929704     0.918525     0.907345
      0.896166     0.884986     0.873807     0.862628     0.851448     0.840269     0.829089     0.817910     0.806730     0.795551
      0.784371     0.773192     0.762012     0.750833     0.739654     0.728474     0.717295     0.706115     0.694936     0.683756
      0.672577     0.661397     0.650218     0.639039     0.627859     0.616680     0.605500     0.594321     0.583141     0.571962
      0.560782     0.549603     0.538424     0.527244     0.516065     0.504885     0.493706     0.482526     0.471347     0.460167
      0.448988     0.437809     0.426629     0.415450     0.404270     0.393091     0.381911     0.370732     0.359552     0.348373
      0.337193     0.326014     0.314835     0.303655     0.292476     0.281296     0.270117     0.258937     0.247758     0.236578
      0.225399     0.214220     0.203040
 NY phased data points follow
   6.85470E-09  7.05176E-09  7.43408E-09  8.37030E-09  7.61228E-09  8.46578E-09  8.03836E-09  8.33138E-09  7.55547E-09  7.81133E-09
   6.08961E-09  6.68374E-09  7.38685E-09  8.49486E-09  7.99583E-09  7.77805E-09  6.40741E-09  6.02822E-09  6.14221E-09  8.34516E-09
   9.61002E-09  1.03265E-08  1.14767E-08  1.11644E-08  1.03280E-08  9.52569E-09  9.12480E-09  9.24387E-09  9.14247E-09  8.92085E-09
   8.06583E-09  8.54261E-09  7.85423E-09  8.16650E-09  7.47439E-09  6.65468E-09  5.75179E-09  5.84368E-09  5.62442E-09  6.28091E-09
   5.51323E-09  5.67745E-09  4.66359E-09  4.14202E-09  3.03003E-09  2.76060E-09  2.64791E-09  2.39745E-09  2.63911E-11 -4.56874E-10
   1.75417E-09  5.70887E-09  7.67326E-09  8.79018E-09  8.22595E-09  8.05917E-09  7.48316E-09  7.00589E-09  6.97577E-09  5.94709E-09
   5.27481E-09  4.96127E-09  3.69153E-09  2.89677E-09  1.31780E-09 -4.85038E-10 -1.73469E-09  1.79020E-09  6.23457E-09  9.41565E-09
   8.54894E-09  8.98315E-09  9.17959E-09  1.01625E-08  9.20965E-09  9.81406E-09  8.88979E-09  1.00785E-08  9.78479E-09  1.06766E-08
   9.22236E-09  1.02862E-08  9.27549E-09  9.76722E-09  8.97529E-09  9.23533E-09  8.55895E-09  8.88789E-09  7.58023E-09  8.19770E-09
   7.60677E-09  8.26488E-09  7.06711E-09  7.65855E-09  8.48177E-09  8.57179E-09  7.64787E-09  7.38538E-09  6.20521E-09  5.29129E-09
   4.70570E-09  5.41083E-09  5.34870E-09  5.30798E-09  4.53072E-09  5.82364E-09  5.43421E-09  5.71288E-09  5.37708E-09  6.41823E-09
   6.23301E-09  6.26820E-09  5.78056E-09  5.29186E-09  4.22455E-09  3.84758E-09  3.89255E-09  4.60285E-09  3.85475E-09  3.88961E-09
   3.65861E-09  4.14474E-09  3.96890E-09  3.74152E-09  3.83480E-09  3.00847E-09  1.55728E-09  1.77642E-09  2.86954E-09  4.22401E-09
   3.99706E-09  4.04254E-09  3.43323E-09  4.01504E-09  4.19646E-09  5.39602E-09  4.96318E-09  5.67741E-09  5.49059E-09  6.24560E-09
   5.46721E-09  5.84602E-09  5.69696E-09  5.97263E-09  5.53732E-09  5.77882E-09  5.71637E-09  5.48389E-09  4.52160E-09  5.20063E-09
   4.79067E-09  4.94273E-09  4.39294E-09  3.99340E-09  3.37697E-09  3.44270E-09  6.41497E-10 -2.74830E-09 -2.98827E-09  3.81041E-09
   9.81212E-09  1.30096E-08  1.31257E-08  1.43339E-08  1.48078E-08  1.56366E-08  1.63145E-08  1.67865E-08  1.72541E-08  1.82847E-08
   1.87840E-08  1.88318E-08  1.93831E-08  2.01545E-08  1.97316E-08  1.94595E-08  1.93461E-08  1.88834E-08  1.83921E-08  1.81529E-08
   1.65821E-08  1.54713E-08  1.33215E-08  1.23891E-08  1.06076E-08  8.32607E-09  6.11463E-09  4.74795E-09  2.69733E-09  9.49432E-10
  -4.94987E-10 -2.06098E-09 -2.79215E-09 -3.75292E-09 -4.27912E-09 -3.66270E-09 -4.07576E-09 -3.45907E-09 -3.55138E-09 -2.88749E-09
  -2.27766E-09 -2.29088E-09 -1.98645E-09 -4.90960E-10 -1.09806E-09 -5.68897E-10 -6.97057E-10 -6.82298E-10 -9.74598E-10 -1.11786E-09
  -1.10182E-09 -7.17088E-10 -5.41757E-10  5.76767E-11 -6.27752E-10 -6.74937E-11 -5.91978E-10 -2.84272E-10 -3.16321E-10 -6.49762E-10
  -2.68667E-10 -5.37117E-10 -8.27686E-10 -9.63841E-10 -3.60912E-10  2.16828E-10 -4.32460E-10 -3.45078E-10  1.53827E-12 -1.33491E-10
  -4.55392E-10 -8.65100E-10 -7.57440E-10 -7.28995E-10 -1.15901E-09 -7.41138E-10 -1.28351E-09 -8.97605E-10 -7.86760E-10 -4.89490E-10
  -4.76829E-10 -2.04198E-10 -2.52732E-10 -2.86499E-10  2.04817E-10 -2.58774E-10 -5.26176E-11 -5.01127E-10  3.57475E-11 -1.71961E-10
  -4.24936E-11 -2.05981E-10 -9.72225E-10 -9.93332E-10 -1.27951E-09 -1.40316E-09 -1.50893E-09 -1.67065E-09 -1.89583E-09 -2.18994E-09
  -1.33778E-09 -1.67625E-09 -1.64519E-09 -1.32769E-09 -9.82566E-10 -6.65615E-10 -1.81990E-10 -4.24708E-10 -5.94903E-11  6.05467E-11
   1.55488E-10 -2.02793E-10 -2.98138E-10 -2.03232E-10 -1.61527E-10 -1.75239E-10 -1.23745E-10  2.05370E-10 -1.61485E-10 -1.88746E-10
  -4.40569E-10 -3.14581E-10 -4.20990E-10 -6.14535E-11 -1.49342E-10 -4.01467E-10 -3.09028E-11 -6.18001E-10 -3.03471E-10 -7.36313E-10
  -1.05699E-10 -4.64715E-10 -5.20644E-10 -6.62864E-10 -1.36446E-10 -2.76784E-10 -5.78087E-10 -7.32144E-10 -7.16189E-10 -9.16780E-10
  -6.37884E-10 -8.11405E-10 -6.18964E-10 -4.94086E-10 -8.84846E-10 -8.21829E-10 -9.70837E-10 -6.82308E-10 -1.03866E-09 -8.26547E-10
  -1.25508E-09 -1.16184E-09 -8.51647E-10 -1.13718E-09 -1.47369E-09 -1.21558E-09 -8.36254E-10 -1.30717E-09 -1.19778E-09 -1.12995E-09
  -1.45474E-09 -1.42364E-09 -1.43103E-09 -1.39617E-09 -1.00834E-09 -1.56415E-09 -1.45124E-09 -1.36056E-09 -1.33126E-09 -1.34988E-09
  -1.49956E-09 -1.70954E-09 -1.64647E-09 -2.11116E-09 -1.99014E-09 -2.08985E-09 -1.62333E-09 -1.99666E-09 -1.76044E-09 -1.94114E-09
  -1.56071E-09 -1.93009E-09 -2.15063E-09 -2.25277E-09 -1.14003E-09 -2.26383E-09 -2.03663E-09 -2.37166E-09 -1.80466E-09 -2.54275E-09
  -1.97724E-09 -2.72624E-09 -1.69934E-09 -1.86014E-09 -2.42466E-09 -2.40468E-09 -1.75802E-09 -2.60780E-09 -2.24935E-09 -2.22070E-09
  -2.07891E-09 -2.39587E-09 -2.32756E-09
 NY points of the fit to the data follow
   1.01056E-08  9.04169E-09  8.00075E-09  7.52801E-09  7.69683E-09  7.50985E-09  6.94441E-09  7.33591E-09  7.06998E-09  6.55151E-09
   6.18757E-09  6.12535E-09  6.27805E-09  7.57658E-09  8.85825E-09  8.31330E-09  7.91454E-09  8.49753E-09  8.63168E-09  8.23182E-09
   8.52714E-09  9.35658E-09  9.83815E-09  1.06185E-08  1.01124E-08  9.58345E-09  9.22751E-09  9.13596E-09  9.33925E-09  9.87203E-09
   1.00010E-08  9.28748E-09  9.09700E-09  8.56532E-09  6.87695E-09  6.73429E-09  5.96193E-09  5.57724E-09  5.40015E-09  5.59593E-09
   4.95448E-09  4.70043E-09  5.46364E-09  5.10948E-09  4.66605E-09  5.62032E-09  5.96350E-09  5.08120E-09  4.76261E-09  5.63785E-09
   5.48093E-09  5.47081E-09  5.88048E-09  5.86560E-09  5.79999E-09  5.99255E-09  5.62634E-09  4.56281E-09  4.72987E-09  5.08303E-09
   4.58032E-09  4.58877E-09  5.14363E-09  4.74367E-09  5.17241E-09  6.41841E-09  6.41648E-09  6.05193E-09  6.59418E-09  6.88243E-09
   7.41588E-09  8.03967E-09  7.91310E-09  7.04360E-09  7.77204E-09  9.72119E-09  1.02396E-08  9.77667E-09  9.92057E-09  9.69208E-09
   9.75173E-09  9.64600E-09  9.27221E-09  9.68705E-09  9.67811E-09  1.02701E-08  1.00253E-08  7.23442E-09  6.20233E-09  6.22324E-09
   6.05271E-09  5.58959E-09  5.75995E-09  6.10029E-09  5.29894E-09  5.15042E-09  5.48090E-09  5.02652E-09  4.92246E-09  5.23961E-09
   5.63253E-09  5.17639E-09  5.31093E-09  5.98919E-09  5.90477E-09  5.92475E-09  6.04768E-09  6.09766E-09  6.10023E-09  6.35211E-09
   6.26472E-09  5.25375E-09  5.47749E-09  5.62783E-09  4.80597E-09  4.54955E-09  4.46335E-09  4.38573E-09  4.24985E-09  4.26274E-09
   4.22583E-09  4.13594E-09  4.10630E-09  4.09329E-09  4.08670E-09  4.08322E-09  4.08138E-09  4.08032E-09  4.07961E-09  4.07897E-09
   4.07815E-09  4.07702E-09  4.07549E-09  4.07349E-09  4.07095E-09  4.06783E-09  4.06411E-09  4.05977E-09  4.05480E-09  4.04922E-09
   4.04302E-09  4.03624E-09  4.02891E-09  4.02106E-09  4.01273E-09  4.00399E-09  3.99491E-09  3.98561E-09  3.97621E-09  3.96686E-09
   3.95776E-09  3.94915E-09  3.94138E-09  3.93488E-09  3.93024E-09  3.92827E-09  3.93013E-09  3.93746E-09  3.95279E-09  3.98008E-09
   4.02591E-09  4.10208E-09  4.23179E-09  4.46726E-09  4.95198E-09  6.23130E-09  1.12743E-08  1.77670E-08  1.84923E-08  1.75813E-08
   1.77626E-08  1.82339E-08  1.90930E-08  1.99904E-08  2.01410E-08  2.03144E-08  2.20501E-08  1.98768E-08  1.12285E-08  6.02811E-09
   4.56953E-09  3.95880E-09  3.61958E-09  3.39770E-09  3.23610E-09  3.10909E-09  3.00352E-09  2.91197E-09  2.83000E-09  2.75479E-09
   2.68446E-09  2.61775E-09  2.55376E-09  2.49185E-09  2.43154E-09  2.37247E-09  2.31440E-09  2.25712E-09  2.20046E-09  2.14433E-09
   2.08863E-09  2.03328E-09  1.97825E-09  1.92348E-09  1.86895E-09  1.81465E-09  1.76055E-09  1.70666E-09  1.65297E-09  1.59947E-09
   1.54618E-09  1.49311E-09  1.44026E-09  1.38765E-09  1.33528E-09  1.28318E-09  1.23136E-09  1.17984E-09  1.12863E-09  1.07776E-09
   1.02724E-09  9.77104E-10  9.27360E-10  8.78029E-10  8.29131E-10  7.80707E-10  7.32756E-10  6.85308E-10  6.38396E-10  5.92035E-10
   5.46247E-10  5.01059E-10  4.56495E-10  4.12572E-10  3.69323E-10  3.26769E-10  2.84932E-10  2.43836E-10  2.03508E-10  1.63975E-10
   1.25255E-10  8.73784E-11  5.03655E-11  1.42157E-11 -2.10894E-11 -5.55673E-11 -8.92350E-11 -1.22107E-10 -1.54202E-10 -1.85538E-10
  -2.16131E-10 -2.46001E-10 -2.75162E-10 -3.03630E-10 -3.31425E-10 -3.58560E-10 -3.85057E-10 -4.10929E-10 -4.36194E-10 -4.60868E-10
  -4.84968E-10 -5.08514E-10 -5.31519E-10 -5.54001E-10 -5.75979E-10 -5.97466E-10 -6.18478E-10 -6.39037E-10 -6.59157E-10 -6.78852E-10
  -6.98145E-10 -7.17045E-10 -7.35577E-10 -7.53749E-10 -7.71585E-10 -7.89097E-10 -8.06305E-10 -8.23223E-10 -8.39869E-10 -8.56257E-10
  -8.72405E-10 -8.88340E-10 -9.04063E-10 -9.19596E-10 -9.34956E-10 -9.50165E-10 -9.65227E-10 -9.80169E-10 -9.95011E-10 -1.00976E-09
  -1.02444E-09 -1.03905E-09 -1.05363E-09 -1.06819E-09 -1.08274E-09 -1.09730E-09 -1.11189E-09 -1.12652E-09 -1.14121E-09 -1.15597E-09
  -1.17084E-09 -1.18581E-09 -1.20091E-09 -1.21614E-09 -1.23150E-09 -1.24700E-09 -1.26262E-09 -1.27837E-09 -1.29423E-09 -1.31022E-09
  -1.32632E-09 -1.34253E-09 -1.35886E-09 -1.37528E-09 -1.39181E-09 -1.40844E-09 -1.42517E-09 -1.44199E-09 -1.45890E-09 -1.47590E-09
  -1.49298E-09 -1.51014E-09 -1.52738E-09 -1.54470E-09 -1.56208E-09 -1.57954E-09 -1.59706E-09 -1.61464E-09 -1.63229E-09 -1.64999E-09
  -1.66774E-09 -1.68555E-09 -1.70340E-09 -1.72129E-09 -1.73923E-09 -1.75720E-09 -1.77521E-09 -1.79325E-09 -1.81132E-09 -1.82942E-09
  -1.84754E-09 -1.86567E-09 -1.88382E-09 -1.90199E-09 -1.92017E-09 -1.93835E-09 -1.95654E-09 -1.97473E-09 -1.99292E-09 -2.01110E-09
  -2.02927E-09 -2.04744E-09 -2.06558E-09 -2.08371E-09 -2.10182E-09 -2.11991E-09 -2.13797E-09 -2.15600E-09 -2.17399E-09 -2.19195E-09
  -2.20987E-09 -2.22775E-09 -2.24559E-09
 NY background values follow
    -3.699E-09   -3.633E-09   -3.567E-09   -3.500E-09   -3.434E-09   -3.367E-09   -3.301E-09   -3.235E-09   -3.168E-09   -3.102E-09
    -3.035E-09   -2.969E-09   -2.902E-09   -2.836E-09   -2.769E-09   -2.703E-09   -2.636E-09   -2.570E-09   -2.503E-09   -2.437E-09
    -2.370E-09   -2.304E-09   -2.238E-09   -2.171E-09   -2.105E-09   -2.039E-09   -1.973E-09   -1.907E-09   -1.841E-09   -1.775E-09
    -1.709E-09   -1.643E-09   -1.578E-09   -1.512E-09   -1.447E-09   -1.381E-09   -1.316E-09   -1.251E-09   -1.186E-09   -1.121E-09
    -1.056E-09   -9.911E-10   -9.265E-10   -8.620E-10   -7.977E-10   -7.335E-10   -6.694E-10   -6.055E-10   -5.418E-10   -4.782E-10
    -4.147E-10   -3.515E-10   -2.884E-10   -2.255E-10   -1.627E-10   -1.002E-10   -3.779E-11    2.438E-11    8.636E-11    1.481E-10
     2.097E-10    2.710E-10    3.322E-10    3.931E-10    4.537E-10    5.140E-10    5.741E-10    6.339E-10    6.933E-10    7.524E-10
     8.111E-10    8.694E-10    9.274E-10    9.849E-10    1.042E-09    1.099E-09    1.155E-09    1.211E-09    1.266E-09    1.320E-09
     1.375E-09    1.428E-09    1.481E-09    1.534E-09    1.585E-09    1.637E-09    1.687E-09    1.737E-09    1.786E-09    1.835E-09
     1.883E-09    1.930E-09    1.976E-09    2.022E-09    2.067E-09    2.111E-09    2.154E-09    2.197E-09    2.238E-09    2.279E-09
     2.319E-09    2.358E-09    2.396E-09    2.433E-09    2.469E-09    2.504E-09    2.538E-09    2.571E-09    2.603E-09    2.635E-09
     2.665E-09    2.694E-09    2.722E-09    2.748E-09    2.774E-09    2.799E-09    2.822E-09    2.844E-09    2.865E-09    2.885E-09
     2.904E-09    2.921E-09    2.937E-09    2.952E-09    2.965E-09    2.978E-09    2.989E-09    2.999E-09    3.008E-09    3.015E-09
     3.022E-09    3.027E-09    3.031E-09    3.034E-09    3.036E-09    3.037E-09    3.036E-09    3.034E-09    3.032E-09    3.028E-09
     3.023E-09    3.017E-09    3.010E-09    3.002E-09    2.993E-09    2.983E-09    2.972E-09    2.960E-09    2.947E-09    2.932E-09
     2.917E-09    2.901E-09    2.884E-09    2.866E-09    2.847E-09    2.827E-09    2.806E-09    2.784E-09    2.762E-09    2.738E-09
     2.713E-09    2.688E-09    2.662E-09    2.634E-09    2.606E-09    2.578E-09    2.548E-09    2.517E-09    2.486E-09    2.454E-09
     2.421E-09    2.387E-09    2.352E-09    2.317E-09    2.281E-09    2.244E-09    2.207E-09    2.168E-09    2.129E-09    2.089E-09
     2.049E-09    2.008E-09    1.966E-09    1.923E-09    1.880E-09    1.836E-09    1.792E-09    1.747E-09    1.702E-09    1.656E-09
     1.609E-09    1.562E-09    1.515E-09    1.467E-09    1.419E-09    1.370E-09    1.322E-09    1.272E-09    1.223E-09    1.173E-09
     1.123E-09    1.073E-09    1.023E-09    9.726E-10    9.221E-10    8.714E-10    8.207E-10    7.699E-10    7.191E-10    6.683E-10
     6.175E-10    5.668E-10    5.162E-10    4.657E-10    4.153E-10    3.650E-10    3.150E-10    2.651E-10    2.155E-10    1.661E-10
     1.171E-10    6.831E-11    1.989E-11   -2.817E-11   -7.585E-11   -1.231E-10   -1.699E-10   -2.163E-10   -2.621E-10   -3.075E-10
    -3.523E-10   -3.965E-10   -4.402E-10   -4.832E-10   -5.256E-10   -5.673E-10   -6.083E-10   -6.486E-10   -6.882E-10   -7.269E-10
    -7.649E-10   -8.021E-10   -8.384E-10   -8.738E-10   -9.085E-10   -9.423E-10   -9.753E-10   -1.008E-09   -1.039E-09   -1.070E-09
    -1.100E-09   -1.129E-09   -1.158E-09   -1.185E-09   -1.213E-09   -1.239E-09   -1.265E-09   -1.291E-09   -1.315E-09   -1.339E-09
    -1.363E-09   -1.386E-09   -1.408E-09   -1.430E-09   -1.452E-09   -1.473E-09   -1.493E-09   -1.514E-09   -1.533E-09   -1.552E-09
    -1.571E-09   -1.590E-09   -1.608E-09   -1.625E-09   -1.643E-09   -1.660E-09   -1.677E-09   -1.693E-09   -1.709E-09   -1.725E-09
    -1.741E-09   -1.757E-09   -1.772E-09   -1.787E-09   -1.802E-09   -1.817E-09   -1.831E-09   -1.846E-09   -1.860E-09   -1.875E-09
    -1.889E-09   -1.903E-09   -1.917E-09   -1.931E-09   -1.945E-09   -1.960E-09   -1.974E-09   -1.988E-09   -2.002E-09   -2.017E-09
    -2.031E-09   -2.046E-09   -2.060E-09   -2.075E-09   -2.090E-09   -2.105E-09   -2.121E-09   -2.136E-09   -2.151E-09   -2.167E-09
    -2.183E-09   -2.198E-09   -2.214E-09   -2.230E-09   -2.247E-09   -2.263E-09   -2.279E-09   -2.296E-09   -2.312E-09   -2.329E-09
    -2.345E-09   -2.362E-09   -2.379E-09   -2.396E-09   -2.413E-09   -2.430E-09   -2.447E-09   -2.464E-09   -2.481E-09   -2.499E-09
    -2.516E-09   -2.534E-09   -2.551E-09   -2.568E-09   -2.586E-09   -2.604E-09   -2.621E-09   -2.639E-09   -2.656E-09   -2.674E-09
    -2.692E-09   -2.710E-09   -2.727E-09   -2.745E-09   -2.763E-09   -2.781E-09   -2.798E-09   -2.816E-09   -2.834E-09   -2.852E-09
    -2.869E-09   -2.887E-09   -2.905E-09   -2.922E-09   -2.940E-09   -2.958E-09   -2.975E-09   -2.993E-09   -3.011E-09   -3.028E-09
    -3.046E-09   -3.063E-09   -3.080E-09
 Ala      Conc. = 5.82E-10
  -3.25167E-09 -3.23436E-09 -3.12304E-09 -3.01396E-09 -2.98828E-09 -2.93752E-09 -2.79182E-09 -2.81958E-09 -2.87967E-09 -2.70268E-09
  -2.69338E-09 -2.76759E-09 -2.68657E-09 -2.64258E-09 -2.62457E-09 -2.58523E-09 -2.53575E-09 -2.48090E-09 -2.42289E-09 -2.36283E-09
  -2.30140E-09 -2.23900E-09 -2.17589E-09 -2.11227E-09 -2.04828E-09 -1.98399E-09 -1.91948E-09 -1.85481E-09 -1.79003E-09 -1.72516E-09
  -1.66024E-09 -1.59529E-09 -1.53032E-09 -1.46538E-09 -1.40044E-09 -1.33554E-09 -1.27069E-09 -1.20590E-09 -1.14118E-09 -1.07654E-09
  -1.01196E-09 -9.47489E-10 -8.83113E-10 -8.18853E-10 -7.54687E-10 -6.90656E-10 -6.26739E-10 -5.62943E-10 -4.99300E-10 -4.35793E-10
  -3.72427E-10 -3.09199E-10 -2.46140E-10 -1.83242E-10 -1.20493E-10 -5.79085E-11  4.49920E-12  6.67221E-11  1.28779E-10  1.90625E-10
   2.52303E-10  3.13791E-10  3.75076E-10  4.36140E-10  4.96974E-10  5.57557E-10  6.17877E-10  6.77915E-10  7.37663E-10  7.97103E-10
   8.56221E-10  9.15007E-10  9.73444E-10  1.03153E-09  1.08925E-09  1.14659E-09  1.20355E-09  1.26012E-09  1.31630E-09  1.37209E-09
   1.42750E-09  1.48253E-09  1.53720E-09  1.59153E-09  1.64556E-09  1.69933E-09  1.75291E-09  1.80641E-09  1.85995E-09  1.91373E-09
   1.96803E-09  2.02325E-09  2.08004E-09  2.13940E-09  2.20305E-09  2.27408E-09  2.35868E-09  2.47131E-09  2.65420E-09  3.07906E-09
   3.72693E-09  3.41576E-09  3.65941E-09  4.44331E-09  4.43472E-09  4.50269E-09  4.63181E-09  4.65656E-09  4.72883E-09  4.96120E-09
   4.83761E-09  3.85659E-09  4.09430E-09  4.25248E-09  3.44626E-09  3.19721E-09  3.10157E-09  3.05885E-09  3.03954E-09  3.03213E-09
   3.03131E-09  3.03421E-09  3.03920E-09  3.04530E-09  3.05189E-09  3.05853E-09  3.06493E-09  3.07090E-09  3.07627E-09  3.08095E-09
   3.08484E-09  3.08790E-09  3.09008E-09  3.09133E-09  3.09164E-09  3.09100E-09  3.08937E-09  3.08677E-09  3.08317E-09  3.07858E-09
   3.07300E-09  3.06642E-09  3.05886E-09  3.05031E-09  3.04078E-09  3.03028E-09  3.01882E-09  3.00640E-09  2.99305E-09  2.97876E-09
   2.96356E-09  2.94746E-09  2.93050E-09  2.91269E-09  2.89407E-09  2.87470E-09  2.85462E-09  2.83393E-09  2.81276E-09  2.79132E-09
   2.76994E-09  2.74920E-09  2.73028E-09  2.71573E-09  2.71248E-09  2.74531E-09  2.95339E-09  3.43848E-09  3.29174E-09  3.21958E-09
   3.21752E-09  3.20348E-09  3.22144E-09  3.24611E-09  3.21360E-09  3.16906E-09  3.24679E-09  3.20511E-09  2.46819E-09  2.26290E-09
   2.16793E-09  2.10142E-09  2.04533E-09  1.99382E-09  1.94453E-09  1.89633E-09  1.84865E-09  1.80114E-09  1.75363E-09  1.70598E-09
   1.65814E-09  1.61006E-09  1.56171E-09  1.51310E-09  1.46421E-09  1.41506E-09  1.36565E-09  1.31600E-09  1.26612E-09  1.21604E-09
   1.16577E-09  1.11532E-09  1.06473E-09  1.01402E-09  9.63198E-10  9.12298E-10  8.61339E-10  8.10357E-10  7.59359E-10  7.08375E-10
   6.57430E-10  6.06554E-10  5.55767E-10  5.05098E-10  4.54557E-10  4.04183E-10  3.54005E-10  3.04037E-10  2.54303E-10  2.04839E-10
   1.55668E-10  1.06813E-10  5.82979E-11  1.01448E-11 -3.76216E-11 -8.49584E-11 -1.31862E-10 -1.78300E-10 -2.24238E-10 -2.69658E-10
  -3.14535E-10 -3.58842E-10 -4.02551E-10 -4.45645E-10 -4.88088E-10 -5.29858E-10 -5.70933E-10 -6.11286E-10 -6.50891E-10 -6.89717E-10
  -7.27749E-10 -7.64953E-10 -8.01308E-10 -8.36813E-10 -8.71488E-10 -9.05348E-10 -9.38410E-10 -9.70688E-10 -1.00220E-09 -1.03296E-09
  -1.06299E-09 -1.09231E-09 -1.12093E-09 -1.14886E-09 -1.17612E-09 -1.20274E-09 -1.22872E-09 -1.25409E-09 -1.27886E-09 -1.30304E-09
  -1.32665E-09 -1.34972E-09 -1.37225E-09 -1.39426E-09 -1.41577E-09 -1.43680E-09 -1.45736E-09 -1.47747E-09 -1.49714E-09 -1.51640E-09
  -1.53525E-09 -1.55372E-09 -1.57182E-09 -1.58957E-09 -1.60698E-09 -1.62407E-09 -1.64086E-09 -1.65736E-09 -1.67360E-09 -1.68958E-09
  -1.70532E-09 -1.72085E-09 -1.73617E-09 -1.75130E-09 -1.76626E-09 -1.78107E-09 -1.79574E-09 -1.81029E-09 -1.82474E-09 -1.83910E-09
  -1.85339E-09 -1.86762E-09 -1.88181E-09 -1.89598E-09 -1.91015E-09 -1.92434E-09 -1.93854E-09 -1.95279E-09 -1.96710E-09 -1.98148E-09
  -1.99597E-09 -2.01057E-09 -2.02529E-09 -2.04014E-09 -2.05513E-09 -2.07025E-09 -2.08550E-09 -2.10087E-09 -2.11636E-09 -2.13198E-09
  -2.14770E-09 -2.16354E-09 -2.17949E-09 -2.19554E-09 -2.21170E-09 -2.22795E-09 -2.24431E-09 -2.26075E-09 -2.27728E-09 -2.29391E-09
  -2.31061E-09 -2.32740E-09 -2.34426E-09 -2.36120E-09 -2.37821E-09 -2.39529E-09 -2.41243E-09 -2.42963E-09 -2.44690E-09 -2.46421E-09
  -2.48158E-09 -2.49901E-09 -2.51647E-09 -2.53398E-09 -2.55154E-09 -2.56912E-09 -2.58674E-09 -2.60440E-09 -2.62208E-09 -2.63978E-09
  -2.65751E-09 -2.67525E-09 -2.69301E-09 -2.71078E-09 -2.72856E-09 -2.74634E-09 -2.76413E-09 -2.78192E-09 -2.79970E-09 -2.81748E-09
  -2.83525E-09 -2.85300E-09 -2.87074E-09 -2.88846E-09 -2.90615E-09 -2.92382E-09 -2.94146E-09 -2.95907E-09 -2.97665E-09 -2.99419E-09
  -3.01168E-09 -3.02914E-09 -3.04654E-09
 Asp      Conc. = 2.42E-09
  -9.69836E-10 -8.88739E-10 -1.43467E-09 -1.36976E-09 -1.79751E-09 -1.88206E-09 -1.94549E-09 -2.29885E-09 -2.59573E-09 -2.68561E-09
  -2.70228E-09 -2.68576E-09 -2.65329E-09 -2.61227E-09 -2.55470E-09 -2.49581E-09 -2.43552E-09 -2.37336E-09 -2.30951E-09 -2.24421E-09
  -2.17759E-09 -2.10977E-09 -2.04078E-09 -1.97063E-09 -1.89925E-09 -1.82651E-09 -1.75222E-09 -1.67610E-09 -1.59778E-09 -1.51665E-09
  -1.43191E-09 -1.34227E-09 -1.24573E-09 -1.13890E-09 -1.01526E-09 -8.60514E-10 -6.35315E-10 -2.78954E-10 -2.14998E-10  4.47865E-11
   2.40197E-12  7.88444E-11  3.07258E-10  8.61864E-10  1.35633E-09  2.24071E-09  2.72594E-09  2.35186E-09  2.10491E-09  3.03450E-09
   2.83967E-09  3.00916E-09  3.53276E-09  3.64440E-09  3.37315E-09  3.49693E-09  2.88653E-09  1.84246E-09  1.99418E-09  2.48652E-09
   1.68920E-09  1.48854E-09  1.57363E-09  1.25042E-09  1.16877E-09  1.37931E-09  1.50481E-09  1.32183E-09  1.24891E-09  1.22568E-09
   1.22731E-09  1.24331E-09  1.26844E-09  1.29974E-09  1.33537E-09  1.37413E-09  1.41519E-09  1.45793E-09  1.50194E-09  1.54684E-09
   1.59240E-09  1.63839E-09  1.68465E-09  1.73103E-09  1.77741E-09  1.82371E-09  1.86981E-09  1.91567E-09  1.96120E-09  2.00636E-09
   2.05108E-09  2.09532E-09  2.13904E-09  2.18220E-09  2.22476E-09  2.26669E-09  2.30795E-09  2.34851E-09  2.38835E-09  2.42743E-09
   2.46573E-09  2.50323E-09  2.53990E-09  2.57571E-09  2.61065E-09  2.64469E-09  2.67781E-09  2.70998E-09  2.74118E-09  2.77140E-09
   2.80061E-09  2.82881E-09  2.85595E-09  2.88203E-09  2.90702E-09  2.93091E-09  2.95367E-09  2.97529E-09  2.99575E-09  3.01501E-09
   3.03310E-09  3.04996E-09  3.06560E-09  3.08002E-09  3.09323E-09  3.10524E-09  3.11606E-09  3.12570E-09  3.13417E-09  3.14147E-09
   3.14763E-09  3.15264E-09  3.15651E-09  3.15927E-09  3.16091E-09  3.16145E-09  3.16090E-09  3.15927E-09  3.15658E-09  3.15283E-09
   3.14804E-09  3.14222E-09  3.13540E-09  3.12758E-09  3.11878E-09  3.10902E-09  3.09833E-09  3.08673E-09  3.07424E-09  3.06090E-09
   3.04675E-09  3.03184E-09  3.01622E-09  2.99998E-09  2.98320E-09  2.96601E-09  2.94859E-09  2.93119E-09  2.91414E-09  2.89800E-09
   2.88359E-09  2.87232E-09  2.86672E-09  2.87176E-09  2.89860E-09  2.97749E-09  3.21854E-09  4.24716E-09  6.22519E-09  5.72238E-09
   5.54206E-09  5.63435E-09  5.68688E-09  5.87211E-09  6.07475E-09  6.04607E-09  5.99571E-09  6.44417E-09  6.24162E-09  3.41349E-09
   2.71764E-09  2.45643E-09  2.31137E-09  2.21063E-09  2.13067E-09  2.06181E-09  1.99939E-09  1.94093E-09  1.88500E-09  1.83071E-09
   1.77751E-09  1.72504E-09  1.67304E-09  1.62134E-09  1.56982E-09  1.51840E-09  1.46702E-09  1.41564E-09  1.36423E-09  1.31280E-09
   1.26131E-09  1.20978E-09  1.15821E-09  1.10660E-09  1.05497E-09  1.00333E-09  9.51689E-10  9.00079E-10  8.48504E-10  7.96984E-10
   7.45542E-10  6.94202E-10  6.42983E-10  5.91909E-10  5.40991E-10  4.90262E-10  4.39748E-10  3.89465E-10  3.39434E-10  2.89687E-10
   2.40248E-10  1.91138E-10  1.42381E-10  9.39976E-11  4.60112E-11 -1.53547E-12 -4.86403E-11 -9.52710E-11 -1.41393E-10 -1.86989E-10
