 LCModel (Version 6.3-1R) Copyright: S.W. Provencher.          Ref.: Magn. Reson. Med. 30:672-679 (1993).                
 onepulse 26x15_ftSpec_smooth_lcm
 26 lines in following concentration table = NCONC+1
    Conc.  %SD /Cr+PCr  Metabolite                                         
 4.81E-11 717%   0.298 Ala                                                 
    0.000 999%   0.000 Asp                                                 
    0.000 999%   0.000 Cr                                                  
 1.71E-09  92%  10.634 GABA                                                
 9.89E-10 103%   6.136 Glc                                                 
 4.50E-10 209%   2.793 Gln                                                 
    0.000 999%   0.000 Glu                                                 
 8.35E-11 999%   0.518 Glyc                                                
    0.000 999%   0.000 GPC                                                 
    0.000 999%   0.000 GSH                                                 
 7.73E-10 248%   4.793 Ins                                                 
    0.000 999%   0.000 Lac                                                 
    0.000 999%   0.000 NAAG                                                
 1.12E-09  37%   6.945 NAA                                                 
    0.000 999%   0.000 PCh                                                 
 1.61E-10 333%   1.000 PCr                                                 
 1.53E-09  54%   9.474 PE                                                  
 1.66E-11 999%   0.103 Scyllo                                              
 1.75E-09  75%  10.835 Ser                                                 
    0.000 999%   0.000 Tau                                                 
    0.000 999%   0.000 GPC+PCh                                             
 1.12E-09  37%   6.945 NAA+NAAG                                            
 8.56E-10  76%   5.311 Ins+Glyc                                            
 1.61E-10 333%   1.000 Cr+PCr                                              
 4.50E-10 309%   2.793 Glu+Gln                                             
   6 lines in following misc. output table
  FWHM = 0.101 ppm    S/N =   3                                            
  Data shift = 0.369 ppm                                                   
  Ph:  40 deg       1.0 deg/ppm                                            
  alphaB,S = 7.7E-01,   4.3E+01                                            
    8 spline knots.   Ns = 5(1)                                            
  ( 9) 4 infls.   ( 3) 1 extrs.                                            
  363 points on ppm-axis = NY
      4.250000     4.238821     4.227641     4.216462     4.205282     4.194103     4.182923     4.171744     4.160564     4.149385
      4.138206     4.127026     4.115847     4.104667     4.093488     4.082308     4.071129     4.059949     4.048770     4.037591
      4.026411     4.015232     4.004052     3.992873     3.981693     3.970514     3.959334     3.948155     3.936975     3.925796
      3.914617     3.903437     3.892258     3.881078     3.869899     3.858719     3.847540     3.836360     3.825181     3.814002
      3.802822     3.791643     3.780463     3.769284     3.758104     3.746925     3.735745     3.724566     3.713387     3.702207
      3.691028     3.679848     3.668669     3.657489     3.646310     3.635130     3.623951     3.612772     3.601592     3.590413
      3.579233     3.568054     3.556874     3.545695     3.534515     3.523336     3.512156     3.500977     3.489798     3.478618
      3.467439     3.456259     3.445080     3.433900     3.422721     3.411541     3.400362     3.389183     3.378003     3.366824
      3.355644     3.344465     3.333285     3.322106     3.310926     3.299747     3.288568     3.277388     3.266209     3.255029
      3.243850     3.232670     3.221491     3.210311     3.199132     3.187953     3.176773     3.165594     3.154414     3.143235
      3.132055     3.120876     3.109696     3.098517     3.087337     3.076158     3.064979     3.053799     3.042620     3.031440
      3.020261     3.009081     2.997902     2.986722     2.975543     2.964364     2.953184     2.942005     2.930825     2.919646
      2.908466     2.897287     2.886107     2.874928     2.863749     2.852569     2.841390     2.830210     2.819031     2.807851
      2.796672     2.785492     2.774313     2.763134     2.751954     2.740775     2.729595     2.718416     2.707236     2.696057
      2.684877     2.673698     2.662519     2.651339     2.640160     2.628980     2.617801     2.606621     2.595442     2.584262
      2.573083     2.561903     2.550724     2.539545     2.528365     2.517186     2.506006     2.494827     2.483647     2.472468
      2.461288     2.450109     2.438930     2.427750     2.416571     2.405391     2.394212     2.383032     2.371853     2.360673
      2.349494     2.338315     2.327135     2.315956     2.304776     2.293597     2.282417     2.271238     2.260058     2.248879
      2.237700     2.226520     2.215341     2.204161     2.192982     2.181802     2.170623     2.159443     2.148264     2.137084
      2.125905     2.114726     2.103546     2.092367     2.081187     2.070008     2.058828     2.047649     2.036469     2.025290
      2.014111     2.002931     1.991752     1.980572     1.969393     1.958213     1.947034     1.935854     1.924675     1.913496
      1.902316     1.891137     1.879957     1.868778     1.857598     1.846419     1.835239     1.824060     1.812881     1.801701
      1.790522     1.779342     1.768163     1.756983     1.745804     1.734624     1.723445     1.712265     1.701086     1.689907
      1.678727     1.667548     1.656368     1.645189     1.634009     1.622830     1.611650     1.600471     1.589292     1.578112
      1.566933     1.555753     1.544574     1.533394     1.522215     1.511035     1.499856     1.488677     1.477497     1.466318
      1.455138     1.443959     1.432779     1.421600     1.410420     1.399241     1.388062     1.376882     1.365703     1.354523
      1.343344     1.332164     1.320985     1.309805     1.298626     1.287446     1.276267     1.265088     1.253908     1.242729
      1.231549     1.220370     1.209190     1.198011     1.186831     1.175652     1.164473     1.153293     1.142114     1.130934
      1.119755     1.108575     1.097396     1.086216     1.075037     1.063858     1.052678     1.041499     1.030319     1.019140
      1.007960     0.996781     0.985601     0.974422     0.963243     0.952063     0.940884     0.929704     0.918525     0.907345
      0.896166     0.884986     0.873807     0.862628     0.851448     0.840269     0.829089     0.817910     0.806730     0.795551
      0.784371     0.773192     0.762012     0.750833     0.739654     0.728474     0.717295     0.706115     0.694936     0.683756
      0.672577     0.661397     0.650218     0.639039     0.627859     0.616680     0.605500     0.594321     0.583141     0.571962
      0.560782     0.549603     0.538424     0.527244     0.516065     0.504885     0.493706     0.482526     0.471347     0.460167
      0.448988     0.437809     0.426629     0.415450     0.404270     0.393091     0.381911     0.370732     0.359552     0.348373
      0.337193     0.326014     0.314835     0.303655     0.292476     0.281296     0.270117     0.258937     0.247758     0.236578
      0.225399     0.214220     0.203040
 NY phased data points follow
   1.57563E-08  1.55776E-08  1.34738E-08  1.38844E-08  1.14523E-08  1.19887E-08  1.06977E-08  1.15007E-08  1.05120E-08  1.12331E-08
   1.06184E-08  1.21812E-08  1.07276E-08  1.27915E-08  1.19619E-08  1.20763E-08  1.14695E-08  1.21705E-08  1.14419E-08  1.17539E-08
   1.02694E-08  1.08572E-08  1.02128E-08  1.20513E-08  1.19804E-08  1.21582E-08  1.08664E-08  1.08732E-08  1.04299E-08  1.19760E-08
   1.27228E-08  1.48377E-08  1.39771E-08  1.42255E-08  1.27909E-08  1.22050E-08  1.01987E-08  1.10022E-08  1.02913E-08  1.03470E-08
   9.22016E-09  9.58134E-09  8.79341E-09  8.56006E-09  8.15839E-09  8.42889E-09  6.81443E-09  7.74870E-09  6.46089E-09  7.87084E-09
   7.12179E-09  7.22080E-09  6.62278E-09  6.50388E-09  4.96429E-09  6.40367E-09  5.44068E-09  6.29995E-09  5.45001E-09  5.76007E-09
   7.35952E-09  1.06676E-08  1.32626E-08  1.45698E-08  1.27962E-08  1.21604E-08  1.01123E-08  1.00986E-08  8.51120E-09  9.01501E-09
   7.06609E-09  7.57448E-09  6.06537E-09  6.70425E-09  5.51818E-09  5.69422E-09  5.97493E-09  9.72367E-09  1.28687E-08  1.56597E-08
   1.51972E-08  1.49690E-08  1.39879E-08  1.41644E-08  1.28263E-08  1.27424E-08  1.16994E-08  1.18807E-08  1.10077E-08  1.18232E-08
   1.01609E-08  1.01374E-08  9.64005E-09  9.01168E-09  8.76637E-09  8.46305E-09  8.55930E-09  8.41076E-09  7.57129E-09  7.86945E-09
   7.25800E-09  7.46266E-09  7.90017E-09  6.84558E-09  7.35196E-09  7.64031E-09  6.12520E-09  5.84195E-09  5.26235E-09  5.15175E-09
   4.58580E-09  5.58158E-09  5.26836E-09  5.62928E-09  5.14852E-09  5.83519E-09  5.49488E-09  6.47600E-09  6.15055E-09  6.76711E-09
   5.91218E-09  6.06866E-09  5.02225E-09  4.94927E-09  3.79929E-09  4.52411E-09  3.95509E-09  5.36162E-09  4.50139E-09  5.15540E-09
   3.96716E-09  4.87265E-09  4.22097E-09  4.36147E-09  4.17834E-09  4.73821E-09  3.49430E-09  4.24759E-09  5.17946E-09  6.22774E-09
   6.36900E-09  5.92977E-09  6.04668E-09  6.33553E-09  6.51302E-09  7.60232E-09  7.44700E-09  7.63587E-09  7.19599E-09  8.03009E-09
   7.43454E-09  6.71035E-09  6.73999E-09  6.58770E-09  6.53816E-09  6.87374E-09  6.90457E-09  6.46834E-09  6.37573E-09  6.42843E-09
   6.87758E-09  6.33492E-09  5.93170E-09  5.83443E-09  5.85143E-09  7.14208E-09  6.99136E-09  7.80862E-09  1.08209E-08  1.63538E-08
   1.98913E-08  1.99676E-08  1.77468E-08  1.63047E-08  1.54273E-08  1.45373E-08  1.34294E-08  1.28526E-08  1.21561E-08  1.11007E-08
   1.05570E-08  9.58360E-09  8.79664E-09  7.86109E-09  6.49800E-09  5.55544E-09  4.36729E-09  3.18232E-09  1.66438E-09  6.81309E-10
  -1.44046E-09 -3.23969E-09 -5.19471E-09 -6.78608E-09 -8.31871E-09 -1.06700E-08 -1.30831E-08 -1.41444E-08 -1.52288E-08 -1.67059E-08
  -1.70939E-08 -1.70471E-08 -1.72089E-08 -1.63125E-08 -1.58156E-08 -1.39612E-08 -1.30064E-08 -1.10969E-08 -9.67898E-09 -7.91828E-09
  -6.24358E-09 -4.81674E-09 -3.75549E-09 -2.06982E-09 -2.22038E-09 -1.66188E-09 -1.20543E-09 -1.57533E-09 -1.76075E-09 -2.28342E-09
  -1.96636E-09 -1.30419E-09 -1.95091E-09 -1.49737E-09 -1.39652E-09 -1.50647E-09 -7.69643E-10 -1.09754E-09 -1.11277E-09 -9.89587E-10
  -1.37313E-09 -1.20313E-09 -1.40487E-09 -1.46187E-09 -1.45959E-09 -9.41626E-10 -6.94734E-10 -8.27331E-10 -2.69017E-10 -9.59656E-10
  -1.16229E-09 -7.41682E-10 -9.82097E-10 -5.74381E-10 -1.44778E-09 -1.01862E-09 -1.42006E-09 -7.88406E-10 -4.44794E-10 -7.67763E-10
  -3.42633E-10  1.51742E-11  5.76019E-10 -3.38066E-10  7.16376E-11 -8.49321E-11 -3.99440E-10 -5.81999E-10 -8.90962E-10 -6.57459E-10
  -1.21872E-09 -1.32333E-09 -1.34613E-09 -1.24547E-09 -1.38756E-09 -6.93339E-10 -1.16204E-09 -9.12719E-10 -1.92052E-10 -3.62958E-10
   2.10726E-10  1.09105E-10  2.41500E-10  7.28892E-10  7.09323E-10  7.14406E-10  7.38514E-10  7.44367E-10  6.82090E-10 -2.52237E-10
  -2.34723E-10 -3.53971E-10 -5.71271E-10 -3.74184E-10  4.54143E-11 -8.09471E-11 -6.61037E-10 -5.27787E-10 -1.77753E-10 -9.68279E-10
  -4.61278E-10 -6.14257E-10 -6.23243E-10 -8.51601E-10 -3.97217E-10 -6.57653E-10 -5.29207E-10 -1.20116E-09 -4.72759E-10 -8.72236E-10
  -7.36725E-10 -6.39675E-10 -1.26520E-09 -6.55246E-10 -7.08894E-10 -6.84363E-10 -7.80770E-10 -1.09362E-09 -7.96517E-10 -9.82022E-10
  -9.16120E-10 -9.29684E-10 -6.02715E-10 -5.47033E-10 -9.19768E-10 -8.25572E-10 -8.37682E-10 -4.56362E-10 -7.60635E-10 -9.50089E-10
  -8.86944E-10 -2.93064E-10 -7.82700E-10 -5.60502E-10 -7.93174E-10 -7.71944E-10 -4.66751E-10 -6.83988E-10 -8.36804E-10 -4.70194E-10
  -6.28276E-10 -7.15869E-10 -4.18318E-10 -6.96736E-10  5.73170E-11 -8.03131E-10 -2.33679E-10 -9.14811E-10 -3.91916E-10 -7.66920E-10
  -6.39507E-10 -1.01498E-09 -2.80225E-10 -4.94639E-11 -1.75649E-10 -4.12251E-10 -2.99483E-10 -5.03264E-13 -1.18465E-10 -1.90324E-10
  -2.15771E-10 -1.02761E-09 -7.24653E-10  7.11510E-11 -2.56884E-11 -6.54972E-10 -8.90018E-11 -2.36009E-11 -6.25995E-10 -1.21425E-10
  -9.15430E-10 -3.01358E-10  2.97430E-10
 NY points of the fit to the data follow
   1.67959E-08  1.52681E-08  1.39650E-08  1.31641E-08  1.24422E-08  1.17398E-08  1.10369E-08  1.05690E-08  1.04864E-08  1.07330E-08
   1.11338E-08  1.15081E-08  1.17679E-08  1.19975E-08  1.21767E-08  1.22715E-08  1.23186E-08  1.21891E-08  1.16442E-08  1.09287E-08
   1.05390E-08  1.05686E-08  1.07453E-08  1.10168E-08  1.12891E-08  1.16111E-08  1.20489E-08  1.24130E-08  1.26436E-08  1.28226E-08
   1.27554E-08  1.24859E-08  1.23812E-08  1.24208E-08  1.22591E-08  1.20519E-08  1.17521E-08  1.14133E-08  1.10302E-08  1.05327E-08
   9.96627E-09  9.41985E-09  8.63277E-09  7.94047E-09  7.77196E-09  7.60799E-09  7.29616E-09  7.12953E-09  7.06182E-09  7.06924E-09
   7.16826E-09  7.31266E-09  7.47616E-09  7.58773E-09  7.67023E-09  7.76471E-09  7.92207E-09  8.14946E-09  8.40856E-09  8.60499E-09
   8.74905E-09  8.92950E-09  9.25020E-09  9.55351E-09  9.96943E-09  1.04064E-08  1.06430E-08  1.06563E-08  1.05376E-08  1.03511E-08
   1.01144E-08  9.74504E-09  9.29061E-09  8.91771E-09  8.64326E-09  8.32188E-09  8.46527E-09  9.77376E-09  1.14500E-08  1.30363E-08
   1.41792E-08  1.45793E-08  1.44646E-08  1.42613E-08  1.39553E-08  1.34423E-08  1.25900E-08  1.11628E-08  9.59073E-09  9.09028E-09
   8.87562E-09  8.74078E-09  8.59659E-09  8.27739E-09  7.97180E-09  7.80032E-09  7.50077E-09  7.18666E-09  7.01748E-09  6.86247E-09
   6.72939E-09  6.64201E-09  6.57670E-09  6.53238E-09  6.49710E-09  6.46305E-09  6.42475E-09  6.37788E-09  6.32012E-09  6.25144E-09
   6.17606E-09  6.10619E-09  6.05227E-09  5.98647E-09  5.91701E-09  5.86691E-09  5.82259E-09  5.78018E-09  5.73832E-09  5.69640E-09
   5.65404E-09  5.61105E-09  5.56722E-09  5.52245E-09  5.47661E-09  5.42963E-09  5.38142E-09  5.33195E-09  5.28115E-09  5.22896E-09
   5.17536E-09  5.12028E-09  5.06371E-09  5.00560E-09  4.94594E-09  4.88468E-09  4.82182E-09  4.75730E-09  4.69113E-09  4.62328E-09
   4.55376E-09  4.48255E-09  4.40964E-09  4.33504E-09  4.25875E-09  4.18079E-09  4.10123E-09  4.02018E-09  3.93780E-09  3.85427E-09
   3.76978E-09  3.68457E-09  3.59891E-09  3.51317E-09  3.42778E-09  3.34330E-09  3.26049E-09  3.18038E-09  3.10447E-09  3.03494E-09
   2.97519E-09  2.93088E-09  2.91198E-09  2.93816E-09  3.05412E-09  3.38845E-09  4.49512E-09  8.02901E-09  1.25647E-08  1.66134E-08
   1.91159E-08  1.98184E-08  1.92354E-08  1.81151E-08  1.67917E-08  1.49718E-08  1.19708E-08  7.58420E-09  3.29556E-09  1.96235E-09
   1.39749E-09  1.05630E-09  8.08886E-10  6.09730E-10  4.38765E-10  2.85820E-10  1.45215E-10  1.35646E-11 -1.11322E-10 -2.30828E-10
  -3.45887E-10 -4.57186E-10 -5.65161E-10 -6.70144E-10 -7.72336E-10 -8.71920E-10 -9.69009E-10 -1.06364E-09 -1.15586E-09 -1.24572E-09
  -1.33319E-09 -1.41828E-09 -1.50095E-09 -1.58117E-09 -1.65893E-09 -1.73415E-09 -1.80680E-09 -1.87683E-09 -1.94420E-09 -2.00881E-09
  -2.07065E-09 -2.12962E-09 -2.18568E-09 -2.23876E-09 -2.28880E-09 -2.33572E-09 -2.37946E-09 -2.41997E-09 -2.45716E-09 -2.49108E-09
  -2.52179E-09 -2.54938E-09 -2.57389E-09 -2.59541E-09 -2.61398E-09 -2.62971E-09 -2.64263E-09 -2.65283E-09 -2.66036E-09 -2.66529E-09
  -2.66770E-09 -2.66764E-09 -2.66519E-09 -2.66041E-09 -2.65336E-09 -2.64411E-09 -2.63274E-09 -2.61929E-09 -2.60385E-09 -2.58646E-09
  -2.56721E-09 -2.54616E-09 -2.52336E-09 -2.49890E-09 -2.47282E-09 -2.44520E-09 -2.41610E-09 -2.38559E-09 -2.35374E-09 -2.32060E-09
  -2.28625E-09 -2.25074E-09 -2.21417E-09 -2.17655E-09 -2.13798E-09 -2.09853E-09 -2.05825E-09 -2.01721E-09 -1.97547E-09 -1.93310E-09
  -1.89016E-09 -1.84673E-09 -1.80287E-09 -1.75863E-09 -1.71409E-09 -1.66930E-09 -1.62436E-09 -1.57928E-09 -1.53417E-09 -1.48908E-09
  -1.44407E-09 -1.39921E-09 -1.35457E-09 -1.31020E-09 -1.26619E-09 -1.22258E-09 -1.17944E-09 -1.13685E-09 -1.09485E-09 -1.05352E-09
  -1.01294E-09 -9.73150E-10 -9.34232E-10 -8.96229E-10 -8.59226E-10 -8.23284E-10 -7.88475E-10 -7.54825E-10 -7.22449E-10 -6.91391E-10
  -6.61699E-10 -6.33429E-10 -6.06535E-10 -5.80994E-10 -5.56770E-10 -5.33849E-10 -5.12178E-10 -4.91747E-10 -4.72518E-10 -4.54461E-10
  -4.37553E-10 -4.21754E-10 -4.07048E-10 -3.93396E-10 -3.80765E-10 -3.69131E-10 -3.58470E-10 -3.48751E-10 -3.39934E-10 -3.31995E-10
  -3.24908E-10 -3.18637E-10 -3.13165E-10 -3.08445E-10 -3.04463E-10 -3.01179E-10 -2.98572E-10 -2.96600E-10 -2.95247E-10 -2.94479E-10
  -2.94269E-10 -2.94568E-10 -2.95375E-10 -2.96649E-10 -2.98354E-10 -3.00455E-10 -3.02953E-10 -3.05790E-10 -3.08953E-10 -3.12393E-10
  -3.16102E-10 -3.20039E-10 -3.24167E-10 -3.28467E-10 -3.32917E-10 -3.37474E-10 -3.42119E-10 -3.46807E-10 -3.51533E-10 -3.56226E-10
  -3.60908E-10 -3.65507E-10 -3.70024E-10 -3.74417E-10 -3.78629E-10 -3.82689E-10 -3.86519E-10 -3.90120E-10 -3.93434E-10 -3.96455E-10
  -3.99148E-10 -4.01470E-10 -4.03408E-10 -4.04919E-10 -4.05989E-10 -4.06568E-10 -4.06658E-10 -4.06194E-10 -4.05163E-10 -4.03543E-10
  -4.01286E-10 -3.98376E-10 -3.94794E-10
 NY background values follow
     3.864E-09    3.884E-09    3.905E-09    3.926E-09    3.947E-09    3.968E-09    3.989E-09    4.010E-09    4.032E-09    4.053E-09
     4.075E-09    4.096E-09    4.118E-09    4.139E-09    4.161E-09    4.183E-09    4.205E-09    4.226E-09    4.248E-09    4.270E-09
     4.292E-09    4.313E-09    4.335E-09    4.357E-09    4.378E-09    4.400E-09    4.422E-09    4.443E-09    4.465E-09    4.486E-09
     4.507E-09    4.528E-09    4.550E-09    4.571E-09    4.591E-09    4.612E-09    4.633E-09    4.653E-09    4.674E-09    4.694E-09
     4.714E-09    4.734E-09    4.754E-09    4.773E-09    4.792E-09    4.812E-09    4.830E-09    4.849E-09    4.868E-09    4.886E-09
     4.904E-09    4.922E-09    4.939E-09    4.957E-09    4.974E-09    4.990E-09    5.007E-09    5.023E-09    5.039E-09    5.055E-09
     5.070E-09    5.085E-09    5.099E-09    5.114E-09    5.128E-09    5.141E-09    5.155E-09    5.167E-09    5.180E-09    5.192E-09
     5.204E-09    5.215E-09    5.226E-09    5.237E-09    5.247E-09    5.256E-09    5.266E-09    5.274E-09    5.283E-09    5.290E-09
     5.297E-09    5.304E-09    5.310E-09    5.315E-09    5.320E-09    5.323E-09    5.327E-09    5.329E-09    5.331E-09    5.332E-09
     5.332E-09    5.331E-09    5.330E-09    5.327E-09    5.324E-09    5.320E-09    5.315E-09    5.309E-09    5.302E-09    5.294E-09
     5.285E-09    5.275E-09    5.263E-09    5.251E-09    5.238E-09    5.223E-09    5.208E-09    5.191E-09    5.173E-09    5.153E-09
     5.133E-09    5.111E-09    5.087E-09    5.063E-09    5.037E-09    5.010E-09    4.981E-09    4.951E-09    4.920E-09    4.887E-09
     4.852E-09    4.816E-09    4.779E-09    4.740E-09    4.699E-09    4.657E-09    4.613E-09    4.567E-09    4.520E-09    4.471E-09
     4.421E-09    4.368E-09    4.314E-09    4.258E-09    4.201E-09    4.141E-09    4.080E-09    4.016E-09    3.951E-09    3.884E-09
     3.815E-09    3.744E-09    3.671E-09    3.596E-09    3.519E-09    3.439E-09    3.358E-09    3.275E-09    3.190E-09    3.103E-09
     3.014E-09    2.923E-09    2.831E-09    2.738E-09    2.643E-09    2.546E-09    2.448E-09    2.349E-09    2.249E-09    2.147E-09
     2.045E-09    1.941E-09    1.837E-09    1.732E-09    1.626E-09    1.519E-09    1.412E-09    1.305E-09    1.197E-09    1.088E-09
     9.793E-10    8.703E-10    7.612E-10    6.520E-10    5.428E-10    4.337E-10    3.247E-10    2.160E-10    1.075E-10   -6.015E-13
    -1.082E-10   -2.154E-10   -3.219E-10   -4.278E-10   -5.329E-10   -6.372E-10   -7.407E-10   -8.431E-10   -9.445E-10   -1.045E-09
    -1.144E-09   -1.242E-09   -1.338E-09   -1.434E-09   -1.527E-09   -1.619E-09   -1.710E-09   -1.799E-09   -1.886E-09   -1.971E-09
    -2.054E-09   -2.135E-09   -2.214E-09   -2.291E-09   -2.366E-09   -2.439E-09   -2.509E-09   -2.577E-09   -2.642E-09   -2.704E-09
    -2.764E-09   -2.822E-09   -2.876E-09   -2.928E-09   -2.976E-09   -3.022E-09   -3.064E-09   -3.103E-09   -3.139E-09   -3.172E-09
    -3.202E-09   -3.228E-09   -3.252E-09   -3.272E-09   -3.290E-09   -3.305E-09   -3.317E-09   -3.326E-09   -3.333E-09   -3.337E-09
    -3.339E-09   -3.338E-09   -3.335E-09   -3.329E-09   -3.322E-09   -3.312E-09   -3.300E-09   -3.286E-09   -3.270E-09   -3.252E-09
    -3.232E-09   -3.210E-09   -3.187E-09   -3.162E-09   -3.136E-09   -3.107E-09   -3.078E-09   -3.047E-09   -3.015E-09   -2.981E-09
    -2.946E-09   -2.910E-09   -2.873E-09   -2.835E-09   -2.796E-09   -2.756E-09   -2.716E-09   -2.674E-09   -2.632E-09   -2.589E-09
    -2.546E-09   -2.502E-09   -2.458E-09   -2.413E-09   -2.368E-09   -2.323E-09   -2.278E-09   -2.233E-09   -2.187E-09   -2.142E-09
    -2.096E-09   -2.051E-09   -2.006E-09   -1.961E-09   -1.917E-09   -1.873E-09   -1.830E-09   -1.787E-09   -1.744E-09   -1.703E-09
    -1.662E-09   -1.622E-09   -1.583E-09   -1.544E-09   -1.507E-09   -1.471E-09   -1.436E-09   -1.402E-09   -1.369E-09   -1.338E-09
    -1.308E-09   -1.279E-09   -1.252E-09   -1.226E-09   -1.201E-09   -1.178E-09   -1.156E-09   -1.136E-09   -1.116E-09   -1.098E-09
    -1.080E-09   -1.064E-09   -1.049E-09   -1.035E-09   -1.022E-09   -1.011E-09   -9.996E-10   -9.896E-10   -9.805E-10   -9.722E-10
    -9.649E-10   -9.583E-10   -9.525E-10   -9.475E-10   -9.433E-10   -9.397E-10   -9.368E-10   -9.345E-10   -9.329E-10   -9.318E-10
    -9.313E-10   -9.313E-10   -9.318E-10   -9.328E-10   -9.342E-10   -9.360E-10   -9.383E-10   -9.408E-10   -9.437E-10   -9.468E-10
    -9.502E-10   -9.539E-10   -9.577E-10   -9.617E-10   -9.658E-10   -9.701E-10   -9.744E-10   -9.788E-10   -9.833E-10   -9.876E-10
    -9.920E-10   -9.963E-10   -1.001E-09   -1.005E-09   -1.009E-09   -1.012E-09   -1.016E-09   -1.019E-09   -1.022E-09   -1.025E-09
    -1.027E-09   -1.029E-09   -1.031E-09   -1.032E-09   -1.033E-09   -1.033E-09   -1.033E-09   -1.032E-09   -1.031E-09   -1.029E-09
    -1.026E-09   -1.023E-09   -1.019E-09
 Ala      Conc. = 4.81E-11
   3.89893E-09  3.92301E-09  3.94592E-09  3.96785E-09  3.98874E-09  4.00888E-09  4.02768E-09  4.04421E-09  4.06187E-09  4.08087E-09
   4.09684E-09  4.11362E-09  4.13322E-09  4.15220E-09  4.17133E-09  4.19149E-09  4.21219E-09  4.23320E-09  4.25441E-09  4.27575E-09
   4.29717E-09  4.31864E-09  4.34014E-09  4.36165E-09  4.38315E-09  4.40463E-09  4.42608E-09  4.44748E-09  4.46884E-09  4.49012E-09
   4.51134E-09  4.53247E-09  4.55351E-09  4.57445E-09  4.59529E-09  4.61601E-09  4.63660E-09  4.65706E-09  4.67739E-09  4.69756E-09
   4.71758E-09  4.73743E-09  4.75712E-09  4.77662E-09  4.79594E-09  4.81506E-09  4.83398E-09  4.85269E-09  4.87118E-09  4.88945E-09
   4.90748E-09  4.92528E-09  4.94282E-09  4.96011E-09  4.97714E-09  4.99389E-09  5.01036E-09  5.02656E-09  5.04245E-09  5.05804E-09
   5.07333E-09  5.08830E-09  5.10294E-09  5.11726E-09  5.13123E-09  5.14486E-09  5.15814E-09  5.17105E-09  5.18360E-09  5.19577E-09
   5.20755E-09  5.21895E-09  5.22995E-09  5.24054E-09  5.25072E-09  5.26045E-09  5.26971E-09  5.27849E-09  5.28676E-09  5.29450E-09
   5.30168E-09  5.30829E-09  5.31430E-09  5.31970E-09  5.32447E-09  5.32859E-09  5.33203E-09  5.33480E-09  5.33687E-09  5.33823E-09
   5.33888E-09  5.33884E-09  5.33811E-09  5.33674E-09  5.33479E-09  5.33242E-09  5.32990E-09  5.32782E-09  5.32765E-09  5.33431E-09
   5.35700E-09  5.37940E-09  5.39510E-09  5.41330E-09  5.42794E-09  5.43497E-09  5.43108E-09  5.41335E-09  5.38053E-09  5.33333E-09
   5.27672E-09  5.22350E-09  5.18442E-09  5.13190E-09  5.07430E-09  5.03478E-09  5.00002E-09  4.96630E-09  4.93236E-09  4.89768E-09
   4.86194E-09  4.82500E-09  4.78673E-09  4.74706E-09  4.70592E-09  4.66326E-09  4.61903E-09  4.57322E-09  4.52577E-09  4.47665E-09
   4.42585E-09  4.37332E-09  4.31906E-09  4.26302E-09  4.20518E-09  4.14551E-09  4.08401E-09  4.02062E-09  3.95535E-09  3.88814E-09
   3.81900E-09  3.74789E-09  3.67479E-09  3.59967E-09  3.52252E-09  3.44330E-09  3.36202E-09  3.27876E-09  3.19357E-09  3.10655E-09
   3.01775E-09  2.92727E-09  2.83516E-09  2.74151E-09  2.64639E-09  2.54988E-09  2.45205E-09  2.35299E-09  2.25278E-09  2.15150E-09
   2.04924E-09  1.94612E-09  1.84225E-09  1.73783E-09  1.63319E-09  1.52914E-09  1.42915E-09  1.34218E-09  1.26000E-09  1.17448E-09
   1.07992E-09  9.75170E-10  8.63279E-10  7.48447E-10  6.32492E-10  5.13710E-10  3.88351E-10  2.55599E-10  1.24290E-10  9.79660E-12
  -1.00317E-10 -2.08730E-10 -3.16066E-10 -4.22462E-10 -5.27971E-10 -6.32576E-10 -7.36225E-10 -8.38847E-10 -9.40424E-10 -1.04087E-09
  -1.14009E-09 -1.23806E-09 -1.33468E-09 -1.42989E-09 -1.52361E-09 -1.61577E-09 -1.70631E-09 -1.79513E-09 -1.88216E-09 -1.96736E-09
  -2.05063E-09 -2.13190E-09 -2.21109E-09 -2.28813E-09 -2.36297E-09 -2.43550E-09 -2.50566E-09 -2.57338E-09 -2.63860E-09 -2.70121E-09
  -2.76117E-09 -2.81839E-09 -2.87280E-09 -2.92432E-09 -2.97290E-09 -3.01842E-09 -3.06084E-09 -3.10010E-09 -3.13610E-09 -3.16889E-09
  -3.19852E-09 -3.22507E-09 -3.24859E-09 -3.26916E-09 -3.28683E-09 -3.30168E-09 -3.31376E-09 -3.32314E-09 -3.32989E-09 -3.33406E-09
  -3.33574E-09 -3.33498E-09 -3.33184E-09 -3.32639E-09 -3.31870E-09 -3.30883E-09 -3.29684E-09 -3.28280E-09 -3.26678E-09 -3.24883E-09
  -3.22902E-09 -3.20744E-09 -3.18412E-09 -3.15914E-09 -3.13256E-09 -3.10445E-09 -3.07487E-09 -3.04389E-09 -3.01158E-09 -2.97798E-09
  -2.94319E-09 -2.90725E-09 -2.87024E-09 -2.83220E-09 -2.79321E-09 -2.75335E-09 -2.71267E-09 -2.67123E-09 -2.62910E-09 -2.58634E-09
  -2.54302E-09 -2.49921E-09 -2.45498E-09 -2.41038E-09 -2.36547E-09 -2.32032E-09 -2.27502E-09 -2.22960E-09 -2.18413E-09 -2.13870E-09
  -2.09335E-09 -2.04815E-09 -2.00318E-09 -1.95847E-09 -1.91413E-09 -1.87019E-09 -1.82673E-09 -1.78382E-09 -1.74150E-09 -1.69985E-09
  -1.65895E-09 -1.61885E-09 -1.57962E-09 -1.54131E-09 -1.50399E-09 -1.46775E-09 -1.43263E-09 -1.39868E-09 -1.36600E-09 -1.33464E-09
  -1.30465E-09 -1.27608E-09 -1.24888E-09 -1.22305E-09 -1.19853E-09 -1.17531E-09 -1.15334E-09 -1.13262E-09 -1.11310E-09 -1.09475E-09
  -1.07755E-09 -1.06146E-09 -1.04646E-09 -1.03252E-09 -1.01960E-09 -1.00768E-09 -9.96725E-10 -9.86717E-10 -9.77611E-10 -9.69383E-10
  -9.62008E-10 -9.55448E-10 -9.49689E-10 -9.44681E-10 -9.40410E-10 -9.36837E-10 -9.33941E-10 -9.31681E-10 -9.30038E-10 -9.28981E-10
  -9.28482E-10 -9.28490E-10 -9.29007E-10 -9.29991E-10 -9.31405E-10 -9.33214E-10 -9.35420E-10 -9.37965E-10 -9.40835E-10 -9.43981E-10
  -9.47396E-10 -9.51037E-10 -9.54870E-10 -9.58874E-10 -9.63026E-10 -9.67286E-10 -9.71632E-10 -9.76021E-10 -9.80447E-10 -9.84838E-10
  -9.89217E-10 -9.93513E-10 -9.97726E-10 -1.00181E-09 -1.00572E-09 -1.00947E-09 -1.01299E-09 -1.01628E-09 -1.01929E-09 -1.02199E-09
  -1.02437E-09 -1.02638E-09 -1.02800E-09 -1.02920E-09 -1.02995E-09 -1.03021E-09 -1.02997E-09 -1.02919E-09 -1.02783E-09 -1.02589E-09
  -1.02330E-09 -1.02006E-09 -1.01615E-09
 GABA     Conc. = 1.71E-09
   4.04252E-09  4.06539E-09  4.08856E-09  4.11204E-09  4.13584E-09  4.15998E-09  4.18448E-09  4.20935E-09  4.23464E-09  4.26041E-09
   4.28668E-09  4.31355E-09  4.34111E-09  4.36941E-09  4.39865E-09  4.42896E-09  4.46039E-09  4.49329E-09  4.52803E-09  4.56493E-09
   4.60469E-09  4.64815E-09  4.69655E-09  4.75180E-09  4.81676E-09  4.89610E-09  4.99858E-09  5.14192E-09  5.37128E-09  5.79395E-09
   6.22136E-09  6.60733E-09  7.18820E-09  7.79009E-09  8.24266E-09  8.62630E-09  8.87500E-09  8.93933E-09  8.79868E-09  8.47641E-09
   8.08395E-09  7.74589E-09  7.15790E-09  6.51739E-09  6.26896E-09  6.01391E-09  5.65385E-09  5.48479E-09  5.40705E-09  5.37059E-09
   5.35732E-09  5.35887E-09  5.37130E-09  5.39295E-09  5.42322E-09  5.46262E-09  5.51312E-09  5.57840E-09  5.66522E-09  5.78694E-09
   5.97316E-09  6.30688E-09  6.77906E-09  7.21102E-09  7.69669E-09  8.25748E-09  8.68866E-09  8.95397E-09  9.06800E-09  9.00987E-09
   8.77942E-09  8.39285E-09  7.92000E-09  7.49945E-09  7.07699E-09  6.50870E-09  6.17510E-09  6.08551E-09  5.92591E-09  5.83909E-09
   5.91702E-09  6.00856E-09  6.14762E-09  6.42815E-09  6.70407E-09  6.95671E-09  7.25620E-09  7.52897E-09  7.73531E-09  7.85002E-09
   7.85838E-09  7.83846E-09  7.76450E-09  7.49272E-09  7.22113E-09  7.07465E-09  6.79354E-09  6.49241E-09  6.33026E-09  6.17217E-09
   6.01720E-09  5.90581E-09  5.82101E-09  5.75265E-09  5.69498E-09  5.64439E-09  5.59876E-09  5.55674E-09  5.51733E-09  5.47978E-09
   5.44339E-09  5.40755E-09  5.37200E-09  5.33647E-09  5.30081E-09  5.26487E-09  5.22842E-09  5.19127E-09  5.15330E-09  5.11444E-09
   5.07457E-09  5.03367E-09  4.99162E-09  4.94837E-09  4.90386E-09  4.85802E-09  4.81081E-09  4.76218E-09  4.71210E-09  4.66052E-09
   4.60740E-09  4.55270E-09  4.49639E-09  4.43844E-09  4.37881E-09  4.31748E-09  4.25442E-09  4.18958E-09  4.12295E-09  4.05449E-09
   3.98420E-09  3.91203E-09  3.83798E-09  3.76200E-09  3.68409E-09  3.60421E-09  3.52240E-09  3.43873E-09  3.35327E-09  3.26612E-09
   3.17737E-09  3.08713E-09  2.99551E-09  2.90264E-09  2.80865E-09  2.71372E-09  2.61806E-09  2.52192E-09  2.42567E-09  2.32979E-09
   2.23505E-09  2.14266E-09  2.05477E-09  1.97561E-09  1.91499E-09  1.90209E-09  2.06982E-09  2.70522E-09  3.51089E-09  4.20034E-09
   4.57745E-09  4.60629E-09  4.39498E-09  4.08622E-09  3.73516E-09  3.27489E-09  2.57335E-09  1.61324E-09  7.24185E-10  3.98928E-10
   2.04835E-10  5.18044E-11 -8.30681E-11 -2.08068E-10 -3.26932E-10 -4.41555E-10 -5.52978E-10 -6.61794E-10 -7.68413E-10 -8.73035E-10
  -9.75778E-10 -1.07675E-09 -1.17596E-09 -1.27344E-09 -1.36914E-09 -1.46306E-09 -1.55518E-09 -1.64541E-09 -1.73373E-09 -1.82009E-09
  -1.90442E-09 -1.98667E-09 -2.06676E-09 -2.14464E-09 -2.22025E-09 -2.29349E-09 -2.36433E-09 -2.43269E-09 -2.49850E-09 -2.56167E-09
  -2.62216E-09 -2.67988E-09 -2.73476E-09 -2.78673E-09 -2.83574E-09 -2.88168E-09 -2.92449E-09 -2.96412E-09 -3.00048E-09 -3.03361E-09
  -3.06357E-09 -3.09044E-09 -3.11427E-09 -3.13513E-09 -3.15308E-09 -3.16821E-09 -3.18056E-09 -3.19020E-09 -3.19720E-09 -3.20161E-09
