 LCModel (Version 6.3-1R) Copyright: S.W. Provencher.          Ref.: Magn. Reson. Med. 30:672-679 (1993).                
 onepulse 26x14_ftSpec_smooth_lcm
 26 lines in following concentration table = NCONC+1
    Conc.  %SD /Cr+PCr  Metabolite                                         
    0.000 999%   0.000 Ala                                                 
    0.000 999%   0.000 Asp                                                 
    0.000 999%   0.000 Cr                                                  
    0.000 999%   0.000 GABA                                                
    0.000 999%   0.000 Glc                                                 
 2.04E-09  29%   9.571 Gln                                                 
    0.000 999%   0.000 Glu                                                 
    0.000 999%   0.000 Glyc                                                
 1.74E-10  65%   0.816 GPC                                                 
    0.000 999%   0.000 GSH                                                 
 1.25E-09  32%   5.847 Ins                                                 
    0.000 999%   0.000 Lac                                                 
 2.17E-10 164%   1.016 NAAG                                                
 3.27E-10 144%   1.530 NAA                                                 
    0.000 999%   0.000 PCh                                                 
 2.14E-10 118%   1.000 PCr                                                 
    0.000 999%   0.000 PE                                                  
 1.77E-10 156%   0.830 Scyllo                                              
 3.88E-09  23%  18.174 Ser                                                 
 3.50E-10 244%   1.641 Tau                                                 
 1.74E-10  65%   0.816 GPC+PCh                                             
 5.44E-10  52%   2.546 NAA+NAAG                                            
 1.25E-09  32%   5.847 Ins+Glyc                                            
 2.14E-10 118%   1.000 Cr+PCr                                              
 2.04E-09  29%   9.571 Glu+Gln                                             
   6 lines in following misc. output table
  FWHM = 0.089 ppm    S/N =   3                                            
  Data shift = 0.358 ppm                                                   
  Ph: -45 deg     -35.5 deg/ppm                                            
  alphaB,S = 7.0E-01,   4.6E+01                                            
    8 spline knots.   Ns = 5(1)                                            
  ( 7) 2 infls.   ( 7) 1 extrs.                                            
  363 points on ppm-axis = NY
      4.250000     4.238821     4.227641     4.216462     4.205282     4.194103     4.182923     4.171744     4.160564     4.149385
      4.138206     4.127026     4.115847     4.104667     4.093488     4.082308     4.071129     4.059949     4.048770     4.037591
      4.026411     4.015232     4.004052     3.992873     3.981693     3.970514     3.959334     3.948155     3.936975     3.925796
      3.914617     3.903437     3.892258     3.881078     3.869899     3.858719     3.847540     3.836360     3.825181     3.814002
      3.802822     3.791643     3.780463     3.769284     3.758104     3.746925     3.735745     3.724566     3.713387     3.702207
      3.691028     3.679848     3.668669     3.657489     3.646310     3.635130     3.623951     3.612772     3.601592     3.590413
      3.579233     3.568054     3.556874     3.545695     3.534515     3.523336     3.512156     3.500977     3.489798     3.478618
      3.467439     3.456259     3.445080     3.433900     3.422721     3.411541     3.400362     3.389183     3.378003     3.366824
      3.355644     3.344465     3.333285     3.322106     3.310926     3.299747     3.288568     3.277388     3.266209     3.255029
      3.243850     3.232670     3.221491     3.210311     3.199132     3.187953     3.176773     3.165594     3.154414     3.143235
      3.132055     3.120876     3.109696     3.098517     3.087337     3.076158     3.064979     3.053799     3.042620     3.031440
      3.020261     3.009081     2.997902     2.986722     2.975543     2.964364     2.953184     2.942005     2.930825     2.919646
      2.908466     2.897287     2.886107     2.874928     2.863749     2.852569     2.841390     2.830210     2.819031     2.807851
      2.796672     2.785492     2.774313     2.763134     2.751954     2.740775     2.729595     2.718416     2.707236     2.696057
      2.684877     2.673698     2.662519     2.651339     2.640160     2.628980     2.617801     2.606621     2.595442     2.584262
      2.573083     2.561903     2.550724     2.539545     2.528365     2.517186     2.506006     2.494827     2.483647     2.472468
      2.461288     2.450109     2.438930     2.427750     2.416571     2.405391     2.394212     2.383032     2.371853     2.360673
      2.349494     2.338315     2.327135     2.315956     2.304776     2.293597     2.282417     2.271238     2.260058     2.248879
      2.237700     2.226520     2.215341     2.204161     2.192982     2.181802     2.170623     2.159443     2.148264     2.137084
      2.125905     2.114726     2.103546     2.092367     2.081187     2.070008     2.058828     2.047649     2.036469     2.025290
      2.014111     2.002931     1.991752     1.980572     1.969393     1.958213     1.947034     1.935854     1.924675     1.913496
      1.902316     1.891137     1.879957     1.868778     1.857598     1.846419     1.835239     1.824060     1.812881     1.801701
      1.790522     1.779342     1.768163     1.756983     1.745804     1.734624     1.723445     1.712265     1.701086     1.689907
      1.678727     1.667548     1.656368     1.645189     1.634009     1.622830     1.611650     1.600471     1.589292     1.578112
      1.566933     1.555753     1.544574     1.533394     1.522215     1.511035     1.499856     1.488677     1.477497     1.466318
      1.455138     1.443959     1.432779     1.421600     1.410420     1.399241     1.388062     1.376882     1.365703     1.354523
      1.343344     1.332164     1.320985     1.309805     1.298626     1.287446     1.276267     1.265088     1.253908     1.242729
      1.231549     1.220370     1.209190     1.198011     1.186831     1.175652     1.164473     1.153293     1.142114     1.130934
      1.119755     1.108575     1.097396     1.086216     1.075037     1.063858     1.052678     1.041499     1.030319     1.019140
      1.007960     0.996781     0.985601     0.974422     0.963243     0.952063     0.940884     0.929704     0.918525     0.907345
      0.896166     0.884986     0.873807     0.862628     0.851448     0.840269     0.829089     0.817910     0.806730     0.795551
      0.784371     0.773192     0.762012     0.750833     0.739654     0.728474     0.717295     0.706115     0.694936     0.683756
      0.672577     0.661397     0.650218     0.639039     0.627859     0.616680     0.605500     0.594321     0.583141     0.571962
      0.560782     0.549603     0.538424     0.527244     0.516065     0.504885     0.493706     0.482526     0.471347     0.460167
      0.448988     0.437809     0.426629     0.415450     0.404270     0.393091     0.381911     0.370732     0.359552     0.348373
      0.337193     0.326014     0.314835     0.303655     0.292476     0.281296     0.270117     0.258937     0.247758     0.236578
      0.225399     0.214220     0.203040
 NY phased data points follow
   1.67221E-08  1.60415E-08  1.59454E-08  1.31775E-08  1.41271E-08  1.12827E-08  1.20795E-08  1.07712E-08  1.17937E-08  1.05859E-08
   1.15485E-08  1.07513E-08  1.23062E-08  1.09235E-08  1.32239E-08  1.20818E-08  1.24619E-08  1.18337E-08  1.26001E-08  1.14250E-08
   1.18705E-08  1.02667E-08  1.08386E-08  1.04404E-08  1.24074E-08  1.20543E-08  1.22419E-08  1.08671E-08  1.09250E-08  1.02563E-08
   1.23884E-08  1.31542E-08  1.49014E-08  1.38985E-08  1.45615E-08  1.25619E-08  1.21396E-08  1.00838E-08  1.10616E-08  1.00984E-08
   1.05650E-08  9.08337E-09  9.63562E-09  8.67605E-09  8.77401E-09  8.11291E-09  8.34709E-09  6.45013E-09  7.74868E-09  6.31857E-09
   8.09068E-09  6.99545E-09  7.40912E-09  6.34524E-09  6.43187E-09  4.81381E-09  6.36155E-09  5.29662E-09  6.62724E-09  5.31317E-09
   5.60057E-09  7.24737E-09  1.13580E-08  1.34979E-08  1.48522E-08  1.27993E-08  1.20647E-08  1.00187E-08  1.00105E-08  8.50617E-09
   9.08945E-09  6.95586E-09  7.70881E-09  6.08659E-09  6.87583E-09  5.38732E-09  5.93399E-09  5.58970E-09  9.68917E-09  1.32968E-08
   1.66132E-08  1.54677E-08  1.49184E-08  1.37656E-08  1.42943E-08  1.27187E-08  1.27329E-08  1.14354E-08  1.18199E-08  1.09755E-08
   1.19874E-08  1.02688E-08  1.01668E-08  9.66932E-09  9.10146E-09  8.73465E-09  8.62987E-09  8.32436E-09  8.25777E-09  7.52607E-09
   7.63659E-09  7.14462E-09  7.40084E-09  7.60604E-09  6.79904E-09  7.37282E-09  7.74554E-09  6.12452E-09  5.75084E-09  4.96930E-09
   4.90326E-09  4.24383E-09  5.58384E-09  5.17017E-09  5.59915E-09  4.97176E-09  5.85684E-09  5.69617E-09  6.25769E-09  5.87006E-09
   6.63433E-09  5.93982E-09  5.96503E-09  4.91300E-09  4.75649E-09  3.67242E-09  4.42272E-09  3.88310E-09  5.33776E-09  4.51561E-09
   5.14583E-09  4.03636E-09  4.96563E-09  4.35847E-09  4.57660E-09  4.34600E-09  4.89991E-09  3.42975E-09  4.41966E-09  5.33764E-09
   6.93620E-09  6.63857E-09  6.38162E-09  6.10569E-09  6.60479E-09  6.58042E-09  7.83617E-09  7.44772E-09  7.63960E-09  7.14698E-09
   7.98955E-09  7.35221E-09  6.66533E-09  6.72901E-09  6.59359E-09  6.27350E-09  6.54052E-09  6.59938E-09  6.29822E-09  5.86190E-09
   6.16509E-09  6.49929E-09  6.10233E-09  5.73043E-09  5.82817E-09  5.53747E-09  6.67697E-09  6.16580E-09  6.42483E-09  9.31076E-09
   1.57701E-08  2.02160E-08  2.01793E-08  1.75015E-08  1.58245E-08  1.49356E-08  1.40608E-08  1.30954E-08  1.23487E-08  1.16132E-08
   1.06280E-08  1.00366E-08  9.01209E-09  7.94109E-09  7.15531E-09  5.59385E-09  4.41419E-09  3.14408E-09  1.97357E-09  2.25390E-10
  -7.35476E-10 -2.93129E-09 -4.86859E-09 -6.69907E-09 -8.19287E-09 -9.54787E-09 -1.16844E-08 -1.37517E-08 -1.43414E-08 -1.50970E-08
  -1.61830E-08 -1.62891E-08 -1.58190E-08 -1.57604E-08 -1.45595E-08 -1.40406E-08 -1.18888E-08 -1.09934E-08 -9.24112E-09 -8.11914E-09
  -6.66766E-09 -5.07305E-09 -3.91923E-09 -3.50871E-09 -1.69777E-09 -2.20594E-09 -1.80847E-09 -1.61530E-09 -1.96683E-09 -2.29612E-09
  -2.42499E-09 -2.17933E-09 -1.38165E-09 -1.76761E-09 -1.35565E-09 -1.63898E-09 -1.58180E-09 -1.04789E-09 -1.30263E-09 -1.31471E-09
  -1.38600E-09 -1.50454E-09 -1.39909E-09 -1.63132E-09 -1.52196E-09 -1.29490E-09 -8.28967E-10 -9.95234E-10 -1.06080E-09 -4.98566E-10
  -9.75877E-10 -1.51565E-09 -1.26083E-09 -1.31876E-09 -7.46223E-10 -1.52291E-09 -1.01001E-09 -1.43970E-09 -7.80839E-10 -6.41863E-10
  -6.76302E-10 -4.16747E-10 -2.24943E-10  1.76572E-10 -5.04339E-10 -1.86978E-10 -3.74561E-10 -8.11226E-10 -7.62505E-10 -9.92074E-10
  -7.34295E-10 -1.48939E-09 -1.45121E-09 -1.72669E-09 -1.49190E-09 -1.42744E-09 -1.03428E-09 -1.18967E-09 -1.08930E-09 -5.44847E-10
  -6.27073E-10  2.75365E-11  1.48550E-10 -1.40640E-10  6.82181E-10  5.52814E-10  6.85285E-10  4.56276E-10  5.16026E-10  4.04385E-10
  -1.41239E-10 -5.59686E-10 -5.16729E-10 -8.03271E-10 -4.38921E-10 -1.91133E-10 -3.23608E-10 -8.03694E-10 -5.77554E-10 -5.74948E-10
  -1.13987E-09 -6.90319E-10 -8.35725E-10 -8.86924E-10 -9.45734E-10 -7.18523E-10 -8.83074E-10 -6.24486E-10 -1.64486E-09 -7.62034E-10
  -1.05323E-09 -1.00784E-09 -7.97021E-10 -1.63040E-09 -9.05034E-10 -9.65986E-10 -8.83785E-10 -1.24533E-09 -1.43719E-09 -1.13478E-09
  -1.14612E-09 -1.33181E-09 -1.06122E-09 -1.11388E-09 -8.14669E-10 -1.39888E-09 -1.22391E-09 -1.26992E-09 -9.46010E-10 -1.23180E-09
  -1.24862E-09 -1.34476E-09 -8.31472E-10 -1.08217E-09 -1.14828E-09 -1.16787E-09 -1.05473E-09 -6.52447E-10 -1.25446E-09 -1.30415E-09
  -7.18545E-10 -1.13297E-09 -1.25928E-09 -9.61103E-10 -1.04143E-09 -3.53304E-10 -1.16968E-09 -7.56718E-10 -1.13697E-09 -8.95942E-10
  -1.28754E-09 -1.13312E-09 -1.42902E-09 -8.65346E-10 -5.91893E-10 -6.03200E-10 -7.23873E-10 -5.88285E-10 -6.09198E-10 -5.11048E-10
  -6.39835E-10 -6.07642E-10 -1.20710E-09 -1.18082E-09 -4.02107E-10 -2.36570E-10 -1.19421E-09 -6.39461E-10 -5.31868E-10 -7.56093E-10
  -7.58639E-10 -9.69294E-10 -8.70553E-10
 NY points of the fit to the data follow
   1.43044E-08  1.47672E-08  1.43399E-08  1.37620E-08  1.37338E-08  1.36255E-08  1.30374E-08  1.21877E-08  1.14403E-08  1.10879E-08
   1.10398E-08  1.11639E-08  1.16404E-08  1.21604E-08  1.25614E-08  1.26391E-08  1.24813E-08  1.23826E-08  1.21014E-08  1.13853E-08
   1.07262E-08  1.03976E-08  1.02411E-08  1.01042E-08  1.01877E-08  1.06291E-08  1.13944E-08  1.21864E-08  1.27159E-08  1.29099E-08
   1.31365E-08  1.32117E-08  1.31103E-08  1.27288E-08  1.20891E-08  1.13484E-08  1.08944E-08  1.05884E-08  1.03498E-08  1.01434E-08
   9.92414E-09  9.61339E-09  9.15340E-09  8.65223E-09  8.33241E-09  8.09721E-09  7.90184E-09  7.72203E-09  7.54709E-09  7.38098E-09
   7.22447E-09  7.08341E-09  6.96125E-09  6.85076E-09  6.78358E-09  6.86771E-09  7.07880E-09  7.41760E-09  7.95737E-09  8.63068E-09
   9.33419E-09  1.00546E-08  1.06942E-08  1.11424E-08  1.13144E-08  1.11767E-08  1.08355E-08  1.04282E-08  9.75948E-09  8.97766E-09
   8.47085E-09  8.13244E-09  7.86282E-09  7.78340E-09  7.87887E-09  8.16973E-09  8.65890E-09  9.43661E-09  1.05104E-08  1.17450E-08
   1.29531E-08  1.39075E-08  1.44087E-08  1.46259E-08  1.46290E-08  1.41728E-08  1.32962E-08  1.22401E-08  1.11403E-08  1.03401E-08
   9.82112E-09  9.43939E-09  9.13714E-09  8.88576E-09  8.66706E-09  8.47511E-09  8.30720E-09  8.15649E-09  8.01622E-09  7.88396E-09
   7.76416E-09  7.65515E-09  7.55138E-09  7.45136E-09  7.35702E-09  7.26769E-09  7.18234E-09  7.10031E-09  7.02092E-09  6.94378E-09
   6.86860E-09  6.79500E-09  6.72273E-09  6.65152E-09  6.58117E-09  6.51147E-09  6.44225E-09  6.37334E-09  6.30458E-09  6.23588E-09
   6.16705E-09  6.09804E-09  6.02870E-09  5.95894E-09  5.88869E-09  5.81782E-09  5.74626E-09  5.67397E-09  5.60084E-09  5.52680E-09
   5.45181E-09  5.37576E-09  5.29865E-09  5.22038E-09  5.14091E-09  5.06016E-09  4.97815E-09  4.89476E-09  4.80999E-09  4.72376E-09
   4.63607E-09  4.54687E-09  4.45614E-09  4.36382E-09  4.26992E-09  4.17442E-09  4.07732E-09  3.97872E-09  3.87872E-09  3.77745E-09
   3.67503E-09  3.57163E-09  3.46744E-09  3.36268E-09  3.25764E-09  3.15268E-09  3.04828E-09  2.94509E-09  2.84401E-09  2.74638E-09
   2.65421E-09  2.57081E-09  2.50180E-09  2.45790E-09  2.46204E-09  2.57475E-09  3.02528E-09  4.82965E-09  7.93084E-09  1.18319E-08
   1.57609E-08  1.87402E-08  2.01788E-08  2.02247E-08  1.93051E-08  1.74540E-08  1.42091E-08  9.40960E-09  4.40445E-09  2.23038E-09
   1.43028E-09  9.82317E-10  6.71994E-10  4.30063E-10  2.27356E-10  4.94714E-11 -1.11507E-10 -2.60258E-10 -3.99784E-10 -5.31991E-10
  -6.58166E-10 -7.79255E-10 -8.95876E-10 -1.00850E-09 -1.11742E-09 -1.22292E-09 -1.32516E-09 -1.42423E-09 -1.52023E-09 -1.61323E-09
  -1.70325E-09 -1.79031E-09 -1.87439E-09 -1.95550E-09 -2.03362E-09 -2.10871E-09 -2.18075E-09 -2.24971E-09 -2.31556E-09 -2.37821E-09
  -2.43768E-09 -2.49388E-09 -2.54678E-09 -2.59634E-09 -2.64252E-09 -2.68524E-09 -2.72448E-09 -2.76019E-09 -2.79232E-09 -2.82093E-09
  -2.84611E-09 -2.86794E-09 -2.88650E-09 -2.90189E-09 -2.91418E-09 -2.92347E-09 -2.92984E-09 -2.93336E-09 -2.93414E-09 -2.93224E-09
  -2.92777E-09 -2.92079E-09 -2.91140E-09 -2.89968E-09 -2.88571E-09 -2.86957E-09 -2.85136E-09 -2.83115E-09 -2.80902E-09 -2.78506E-09
  -2.75934E-09 -2.73196E-09 -2.70300E-09 -2.67252E-09 -2.64061E-09 -2.60736E-09 -2.57284E-09 -2.53713E-09 -2.50032E-09 -2.46246E-09
  -2.42367E-09 -2.38398E-09 -2.34351E-09 -2.30229E-09 -2.26043E-09 -2.21800E-09 -2.17506E-09 -2.13169E-09 -2.08796E-09 -2.04393E-09
  -1.99970E-09 -1.95532E-09 -1.91086E-09 -1.86638E-09 -1.82196E-09 -1.77766E-09 -1.73355E-09 -1.68968E-09 -1.64612E-09 -1.60294E-09
  -1.56019E-09 -1.51793E-09 -1.47623E-09 -1.43512E-09 -1.39469E-09 -1.35497E-09 -1.31602E-09 -1.27791E-09 -1.24066E-09 -1.20434E-09
  -1.16899E-09 -1.13467E-09 -1.10141E-09 -1.06926E-09 -1.03826E-09 -1.00846E-09 -9.79903E-10 -9.52596E-10 -9.26613E-10 -9.01976E-10
  -8.78706E-10 -8.56827E-10 -8.36287E-10 -8.17048E-10 -7.99065E-10 -7.82310E-10 -7.66726E-10 -7.52286E-10 -7.38945E-10 -7.26664E-10
  -7.15408E-10 -7.05132E-10 -6.95807E-10 -6.87387E-10 -6.79836E-10 -6.73118E-10 -6.67201E-10 -6.62047E-10 -6.57614E-10 -6.53871E-10
  -6.50785E-10 -6.48317E-10 -6.46442E-10 -6.45115E-10 -6.44313E-10 -6.43998E-10 -6.44142E-10 -6.44708E-10 -6.45671E-10 -6.47000E-10
  -6.48667E-10 -6.50630E-10 -6.52879E-10 -6.55378E-10 -6.58097E-10 -6.61007E-10 -6.64097E-10 -6.67328E-10 -6.70683E-10 -6.74128E-10
  -6.77651E-10 -6.81223E-10 -6.84819E-10 -6.88422E-10 -6.92015E-10 -6.95573E-10 -6.99079E-10 -7.02510E-10 -7.05858E-10 -7.09086E-10
  -7.12204E-10 -7.15176E-10 -7.18000E-10 -7.20658E-10 -7.23122E-10 -7.25409E-10 -7.27483E-10 -7.29347E-10 -7.30979E-10 -7.32378E-10
  -7.33536E-10 -7.34438E-10 -7.35084E-10 -7.35463E-10 -7.35575E-10 -7.35409E-10 -7.34972E-10 -7.34248E-10 -7.33243E-10 -7.31956E-10
  -7.30382E-10 -7.28527E-10 -7.26394E-10
 NY background values follow
     3.785E-09    3.832E-09    3.878E-09    3.924E-09    3.968E-09    4.012E-09    4.055E-09    4.097E-09    4.138E-09    4.178E-09
     4.218E-09    4.257E-09    4.294E-09    4.332E-09    4.368E-09    4.404E-09    4.438E-09    4.472E-09    4.505E-09    4.538E-09
     4.569E-09    4.600E-09    4.630E-09    4.660E-09    4.688E-09    4.716E-09    4.743E-09    4.769E-09    4.795E-09    4.820E-09
     4.844E-09    4.867E-09    4.890E-09    4.912E-09    4.933E-09    4.954E-09    4.974E-09    4.993E-09    5.012E-09    5.030E-09
     5.047E-09    5.064E-09    5.080E-09    5.096E-09    5.110E-09    5.125E-09    5.138E-09    5.152E-09    5.164E-09    5.176E-09
     5.188E-09    5.199E-09    5.209E-09    5.219E-09    5.228E-09    5.237E-09    5.246E-09    5.254E-09    5.261E-09    5.268E-09
     5.275E-09    5.281E-09    5.287E-09    5.293E-09    5.298E-09    5.303E-09    5.307E-09    5.311E-09    5.315E-09    5.318E-09
     5.321E-09    5.324E-09    5.327E-09    5.329E-09    5.331E-09    5.333E-09    5.334E-09    5.335E-09    5.336E-09    5.336E-09
     5.337E-09    5.336E-09    5.336E-09    5.335E-09    5.333E-09    5.331E-09    5.329E-09    5.326E-09    5.322E-09    5.318E-09
     5.313E-09    5.308E-09    5.302E-09    5.296E-09    5.289E-09    5.281E-09    5.272E-09    5.263E-09    5.253E-09    5.242E-09
     5.231E-09    5.218E-09    5.205E-09    5.191E-09    5.175E-09    5.159E-09    5.142E-09    5.124E-09    5.105E-09    5.085E-09
     5.063E-09    5.041E-09    5.017E-09    4.992E-09    4.966E-09    4.939E-09    4.910E-09    4.881E-09    4.849E-09    4.817E-09
     4.783E-09    4.748E-09    4.711E-09    4.673E-09    4.633E-09    4.591E-09    4.549E-09    4.504E-09    4.458E-09    4.410E-09
     4.361E-09    4.310E-09    4.257E-09    4.202E-09    4.145E-09    4.087E-09    4.027E-09    3.965E-09    3.901E-09    3.835E-09
     3.767E-09    3.697E-09    3.625E-09    3.551E-09    3.474E-09    3.396E-09    3.316E-09    3.233E-09    3.149E-09    3.063E-09
     2.974E-09    2.884E-09    2.793E-09    2.700E-09    2.605E-09    2.509E-09    2.411E-09    2.312E-09    2.212E-09    2.111E-09
     2.009E-09    1.906E-09    1.802E-09    1.697E-09    1.591E-09    1.485E-09    1.378E-09    1.271E-09    1.163E-09    1.056E-09
     9.474E-10    8.391E-10    7.307E-10    6.224E-10    5.142E-10    4.062E-10    2.985E-10    1.912E-10    8.436E-11   -2.197E-11
    -1.277E-10   -2.326E-10   -3.368E-10   -4.401E-10   -5.425E-10   -6.438E-10   -7.440E-10   -8.429E-10   -9.406E-10   -1.037E-09
    -1.132E-09   -1.225E-09   -1.317E-09   -1.407E-09   -1.495E-09   -1.581E-09   -1.666E-09   -1.748E-09   -1.828E-09   -1.907E-09
    -1.983E-09   -2.056E-09   -2.127E-09   -2.196E-09   -2.262E-09   -2.326E-09   -2.387E-09   -2.445E-09   -2.501E-09   -2.553E-09
    -2.603E-09   -2.649E-09   -2.693E-09   -2.733E-09   -2.771E-09   -2.805E-09   -2.835E-09   -2.863E-09   -2.887E-09   -2.907E-09
    -2.924E-09   -2.938E-09   -2.949E-09   -2.957E-09   -2.962E-09   -2.964E-09   -2.963E-09   -2.960E-09   -2.953E-09   -2.945E-09
    -2.933E-09   -2.920E-09   -2.904E-09   -2.885E-09   -2.865E-09   -2.843E-09   -2.818E-09   -2.792E-09   -2.763E-09   -2.733E-09
    -2.702E-09   -2.668E-09   -2.634E-09   -2.597E-09   -2.560E-09   -2.521E-09   -2.481E-09   -2.440E-09   -2.397E-09   -2.354E-09
    -2.310E-09   -2.265E-09   -2.219E-09   -2.173E-09   -2.126E-09   -2.078E-09   -2.030E-09   -1.982E-09   -1.933E-09   -1.884E-09
    -1.835E-09   -1.786E-09   -1.737E-09   -1.688E-09   -1.639E-09   -1.590E-09   -1.541E-09   -1.493E-09   -1.445E-09   -1.397E-09
    -1.350E-09   -1.303E-09   -1.257E-09   -1.212E-09   -1.167E-09   -1.123E-09   -1.080E-09   -1.038E-09   -9.966E-10   -9.562E-10
    -9.168E-10   -8.785E-10   -8.413E-10   -8.053E-10   -7.704E-10   -7.367E-10   -7.044E-10   -6.733E-10   -6.435E-10   -6.152E-10
    -5.882E-10   -5.627E-10   -5.385E-10   -5.157E-10   -4.941E-10   -4.739E-10   -4.548E-10   -4.369E-10   -4.201E-10   -4.044E-10
    -3.898E-10   -3.761E-10   -3.635E-10   -3.518E-10   -3.409E-10   -3.310E-10   -3.218E-10   -3.135E-10   -3.059E-10   -2.990E-10
    -2.928E-10   -2.873E-10   -2.823E-10   -2.780E-10   -2.742E-10   -2.709E-10   -2.681E-10   -2.657E-10   -2.638E-10   -2.622E-10
    -2.610E-10   -2.602E-10   -2.596E-10   -2.593E-10   -2.593E-10   -2.595E-10   -2.598E-10   -2.604E-10   -2.611E-10   -2.619E-10
    -2.628E-10   -2.638E-10   -2.648E-10   -2.658E-10   -2.669E-10   -2.679E-10   -2.690E-10   -2.699E-10   -2.708E-10   -2.716E-10
    -2.724E-10   -2.730E-10   -2.734E-10   -2.737E-10   -2.739E-10   -2.739E-10   -2.737E-10   -2.733E-10   -2.727E-10   -2.719E-10
    -2.709E-10   -2.696E-10   -2.681E-10   -2.663E-10   -2.643E-10   -2.621E-10   -2.596E-10   -2.568E-10   -2.538E-10   -2.505E-10
    -2.469E-10   -2.431E-10   -2.390E-10
 Gln      Conc. = 2.04E-09
   2.24172E-09  2.50030E-09  2.89654E-09  3.43308E-09  4.05669E-09  4.69001E-09  5.25846E-09  5.69959E-09  5.98935E-09  6.17793E-09
   6.16113E-09  5.90893E-09  5.75015E-09  5.50105E-09  5.28374E-09  5.13461E-09  5.02801E-09  4.94867E-09  4.88787E-09  4.84022E-09
   4.80219E-09  4.77130E-09  4.74584E-09  4.72462E-09  4.70685E-09  4.69197E-09  4.67903E-09  4.66759E-09  4.65742E-09  4.64790E-09
   4.63872E-09  4.62962E-09  4.62036E-09  4.61077E-09  4.60062E-09  4.58977E-09  4.57800E-09  4.56515E-09  4.55104E-09  4.53542E-09
   4.51813E-09  4.49891E-09  4.47763E-09  4.45410E-09  4.42810E-09  4.39932E-09  4.36750E-09  4.33185E-09  4.29203E-09  4.24818E-09
   4.19956E-09  4.14631E-09  4.09047E-09  4.03989E-09  4.03326E-09  4.17278E-09  4.44360E-09  4.83857E-09  5.43506E-09  6.17915E-09
   6.97180E-09  7.79343E-09  8.53785E-09  9.06879E-09  9.29601E-09  9.21278E-09  8.93825E-09  8.61977E-09  8.02390E-09  7.29217E-09
   6.80538E-09  6.47571E-09  6.21392E-09  6.15800E-09  6.29336E-09  6.64348E-09  7.11831E-09  7.66915E-09  8.26153E-09  8.82561E-09
   9.30193E-09  9.62373E-09  9.67930E-09  9.60147E-09  9.45728E-09  9.08137E-09  8.62629E-09  8.30211E-09  7.93140E-09  7.59104E-09
   7.33773E-09  7.13985E-09  6.97964E-09  6.84588E-09  6.73020E-09  6.62870E-09  6.53865E-09  6.45743E-09  6.38341E-09  6.31541E-09
   6.25213E-09  6.19250E-09  6.13594E-09  6.08197E-09  6.03020E-09  5.98029E-09  5.93175E-09  5.88433E-09  5.83775E-09  5.79178E-09
   5.74628E-09  5.70103E-09  5.65588E-09  5.61071E-09  5.56538E-09  5.51978E-09  5.47381E-09  5.42736E-09  5.38032E-09  5.33267E-09
   5.28424E-09  5.23503E-09  5.18492E-09  5.13388E-09  5.08183E-09  5.02870E-09  4.97442E-09  4.91898E-09  4.86230E-09  4.80432E-09
   4.74500E-09  4.68428E-09  4.62215E-09  4.55853E-09  4.49339E-09  4.42666E-09  4.35837E-09  4.28841E-09  4.21677E-09  4.14339E-09
   4.06828E-09  3.99137E-09  3.91265E-09  3.83205E-09  3.74959E-09  3.66522E-09  3.57893E-09  3.49080E-09  3.40091E-09  3.30934E-09
   3.21617E-09  3.12151E-09  3.02544E-09  2.92809E-09  2.82958E-09  2.73005E-09  2.62969E-09  2.52870E-09  2.42736E-09  2.32605E-09
   2.22528E-09  2.12591E-09  2.02925E-09  1.93777E-09  1.85651E-09  1.79805E-09  1.80604E-09  2.10681E-09  2.72298E-09  3.53991E-09
   4.38489E-09  5.02926E-09  5.31915E-09  5.27260E-09  4.99074E-09  4.49594E-09  3.68743E-09  2.50772E-09  1.22583E-09  5.60331E-10
   2.76502E-10  8.59765E-11 -6.89113E-11 -2.06073E-10 -3.32872E-10 -4.52849E-10 -5.67891E-10 -6.79062E-10 -7.87070E-10 -8.92288E-10
  -9.94952E-10 -1.09525E-09 -1.19326E-09 -1.28904E-09 -1.38257E-09 -1.47387E-09 -1.56295E-09 -1.64972E-09 -1.73417E-09 -1.81627E-09
  -1.89595E-09 -1.97316E-09 -2.04784E-09 -2.11993E-09 -2.18940E-09 -2.25614E-09 -2.32013E-09 -2.38129E-09 -2.43958E-09 -2.49490E-09
  -2.54724E-09 -2.59649E-09 -2.64262E-09 -2.68557E-09 -2.72530E-09 -2.76170E-09 -2.79475E-09 -2.82441E-09 -2.85060E-09 -2.87339E-09
  -2.89284E-09 -2.90905E-09 -2.92209E-09 -2.93205E-09 -2.93900E-09 -2.94303E-09 -2.94422E-09 -2.94265E-09 -2.93840E-09 -2.93155E-09
  -2.92219E-09 -2.91040E-09 -2.89626E-09 -2.87985E-09 -2.86125E-09 -2.84055E-09 -2.81782E-09 -2.79315E-09 -2.76662E-09 -2.73831E-09
  -2.70830E-09 -2.67667E-09 -2.64351E-09 -2.60888E-09 -2.57287E-09 -2.53555E-09 -2.49702E-09 -2.45734E-09 -2.41660E-09 -2.37486E-09
  -2.33221E-09 -2.28872E-09 -2.24448E-09 -2.19954E-09 -2.15398E-09 -2.10790E-09 -2.06134E-09 -2.01438E-09 -1.96711E-09 -1.91957E-09
  -1.87185E-09 -1.82403E-09 -1.77615E-09 -1.72830E-09 -1.68053E-09 -1.63291E-09 -1.58551E-09 -1.53839E-09 -1.49160E-09 -1.44523E-09
  -1.39931E-09 -1.35391E-09 -1.30910E-09 -1.26491E-09 -1.22143E-09 -1.17868E-09 -1.13674E-09 -1.09565E-09 -1.05546E-09 -1.01621E-09
  -9.77974E-10 -9.40779E-10 -9.04681E-10 -8.69708E-10 -8.35917E-10 -8.03346E-10 -7.72040E-10 -7.42010E-10 -7.13328E-10 -6.86015E-10
  -6.60092E-10 -6.35583E-10 -6.12435E-10 -5.90611E-10 -5.70065E-10 -5.50769E-10 -5.32665E-10 -5.15727E-10 -4.99909E-10 -4.85173E-10
  -4.71482E-10 -4.58792E-10 -4.47072E-10 -4.36280E-10 -4.26375E-10 -4.17324E-10 -4.09093E-10 -4.01645E-10 -3.94938E-10 -3.88940E-10
  -3.83618E-10 -3.78933E-10 -3.74860E-10 -3.71354E-10 -3.68391E-10 -3.65933E-10 -3.63953E-10 -3.62413E-10 -3.61289E-10 -3.60548E-10
  -3.60163E-10 -3.60091E-10 -3.60323E-10 -3.60823E-10 -3.61560E-10 -3.62504E-10 -3.63646E-10 -3.64946E-10 -3.66386E-10 -3.67933E-10
  -3.69575E-10 -3.71282E-10 -3.73029E-10 -3.74799E-10 -3.76576E-10 -3.78334E-10 -3.80056E-10 -3.81719E-10 -3.83315E-10 -3.84807E-10
  -3.86204E-10 -3.87470E-10 -3.88604E-10 -3.89586E-10 -3.90391E-10 -3.91033E-10 -3.91478E-10 -3.91727E-10 -3.91760E-10 -3.91575E-10
  -3.91164E-10 -3.90511E-10 -3.89617E-10 -3.88471E-10 -3.87072E-10 -3.85409E-10 -3.83490E-10 -3.81299E-10 -3.78840E-10 -3.76115E-10
  -3.73116E-10 -3.69850E-10 -3.66320E-10
 GPC      Conc. = 1.74E-10
   3.87124E-09  3.93435E-09  3.91983E-09  3.84349E-09  3.77014E-09  3.76030E-09  3.85348E-09  4.02596E-09  4.24504E-09  4.47260E-09
   4.67861E-09  4.84339E-09  4.94915E-09  4.98075E-09  4.93795E-09  4.80830E-09  4.65348E-09  4.50188E-09  4.37772E-09  4.26096E-09
   4.13465E-09  3.98234E-09  3.78626E-09  3.61351E-09  3.68202E-09  4.03620E-09  4.67229E-09  5.49095E-09  6.31414E-09  7.00590E-09
   7.54972E-09  7.97671E-09  8.23647E-09  8.15942E-09  7.62249E-09  6.92346E-09  6.56322E-09  6.34521E-09  6.19742E-09  6.09032E-09
   6.00930E-09  5.94610E-09  5.89570E-09  5.85475E-09  5.82104E-09  5.79293E-09  5.76927E-09  5.74915E-09  5.73190E-09  5.71702E-09
   5.70406E-09  5.69272E-09  5.68269E-09  5.67378E-09  5.66580E-09  5.65855E-09  5.65194E-09  5.64590E-09  5.64023E-09  5.63496E-09
   5.62999E-09  5.62525E-09  5.62074E-09  5.61640E-09  5.61223E-09  5.60814E-09  5.60413E-09  5.60017E-09  5.59625E-09  5.59239E-09
   5.58852E-09  5.58466E-09  5.58083E-09  5.57698E-09  5.57312E-09  5.56921E-09  5.56522E-09  5.56113E-09  5.55689E-09  5.55250E-09
   5.54791E-09  5.54310E-09  5.53804E-09  5.53270E-09  5.52707E-09  5.52110E-09  5.51477E-09  5.50806E-09  5.50093E-09  5.49336E-09
   5.48532E-09  5.47680E-09  5.46773E-09  5.45813E-09  5.44794E-09  5.43713E-09  5.42570E-09  5.41359E-09  5.40080E-09  5.38728E-09
   5.37300E-09  5.35794E-09  5.34207E-09  5.32538E-09  5.30779E-09  5.28931E-09  5.26990E-09  5.24954E-09  5.22820E-09  5.20579E-09
   5.18239E-09  5.15787E-09  5.13224E-09  5.10547E-09  5.07752E-09  5.04838E-09  5.01800E-09  4.98636E-09  4.95341E-09  4.91916E-09
   4.88352E-09  4.84651E-09  4.80807E-09  4.76819E-09  4.72683E-09  4.68394E-09  4.63950E-09  4.59352E-09  4.54591E-09  4.49667E-09
   4.44578E-09  4.39316E-09  4.33885E-09  4.28277E-09  4.22491E-09  4.16521E-09  4.10371E-09  4.04031E-09  3.97502E-09  3.90777E-09
   3.83859E-09  3.76741E-09  3.69423E-09  3.61898E-09  3.54167E-09  3.46227E-09  3.38077E-09  3.29723E-09  3.21174E-09  3.12436E-09
   3.03517E-09  2.94425E-09  2.85167E-09  2.75751E-09  2.66186E-09  2.56479E-09  2.46640E-09  2.36676E-09  2.26599E-09  2.16418E-09
   2.06144E-09  1.95795E-09  1.85387E-09  1.74954E-09  1.64556E-09  1.54350E-09  1.44975E-09  1.38806E-09  1.35099E-09  1.32808E-09
   1.30195E-09  1.25216E-09  1.16909E-09  1.05882E-09  9.30368E-10  7.82107E-10  6.02980E-10  3.92725E-10  1.87350E-10  5.06634E-11
  -6.71262E-11 -1.78799E-10 -2.87395E-10 -3.93897E-10 -4.98733E-10 -6.02077E-10 -7.03982E-10 -8.04430E-10 -9.03449E-10 -1.00097E-09
  -1.09691E-09 -1.19126E-09 -1.28393E-09 -1.37486E-09 -1.46394E-09 -1.55114E-09 -1.63640E-09 -1.71959E-09 -1.80067E-09 -1.87957E-09
  -1.95622E-09 -2.03054E-09 -2.10245E-09 -2.17189E-09 -2.23880E-09 -2.30308E-09 -2.36468E-09 -2.42353E-09 -2.47959E-09 -2.53272E-09
  -2.58295E-09 -2.63014E-09 -2.67426E-09 -2.71524E-09 -2.75305E-09 -2.78758E-09 -2.81879E-09 -2.84665E-09 -2.87108E-09 -2.89214E-09
  -2.90989E-09 -2.92444E-09 -2.93584E-09 -2.94419E-09 -2.94956E-09 -2.95203E-09 -2.95169E-09 -2.94861E-09 -2.94288E-09 -2.93457E-09
