 LCModel (Version 6.3-1R) Copyright: S.W. Provencher.          Ref.: Magn. Reson. Med. 30:672-679 (1993).                
 onepulse 26x13_ftSpec_smooth_lcm
 26 lines in following concentration table = NCONC+1
    Conc.  %SD /Cr+PCr  Metabolite                                         
    0.000 999%   0.000 Ala                                                 
    0.000 999%   0.000 Asp                                                 
 2.05E-10 105%   1.000 Cr                                                  
    0.000 999%   0.000 GABA                                                
    0.000 999%   0.000 Glc                                                 
 2.89E-09  19%  14.044 Gln                                                 
    0.000 999%   0.000 Glu                                                 
 1.24E-09  24%   6.048 Glyc                                                
    0.000 999%   0.000 GPC                                                 
    0.000 999%   0.000 GSH                                                 
    0.000 999%   0.000 Ins                                                 
    0.000 999%   0.000 Lac                                                 
 3.04E-10  98%   1.479 NAAG                                                
 1.22E-10 306%   0.595 NAA                                                 
    0.000 999%   0.000 PCh                                                 
    0.000 999%   0.000 PCr                                                 
 1.70E-09  26%   8.272 PE                                                  
 2.16E-10  55%   1.053 Scyllo                                              
 1.26E-09  45%   6.111 Ser                                                 
    0.000 999%   0.000 Tau                                                 
    0.000 999%   0.000 GPC+PCh                                             
 4.26E-10  56%   2.074 NAA+NAAG                                            
 1.24E-09  24%   6.048 Ins+Glyc                                            
 2.05E-10 105%   1.000 Cr+PCr                                              
 2.89E-09  19%  14.044 Glu+Gln                                             
   6 lines in following misc. output table
  FWHM = 0.078 ppm    S/N =   3                                            
  Data shift = 0.347 ppm                                                   
  Ph: -60 deg     -37.3 deg/ppm                                            
  alphaB,S = 1.6E-01,   4.0E+01                                            
   16 spline knots.   Ns = 5(1)                                            
  ( 7) 4 infls.   ( 7) 1 extrs.                                            
  363 points on ppm-axis = NY
      4.250000     4.238821     4.227641     4.216462     4.205282     4.194103     4.182923     4.171744     4.160564     4.149385
      4.138206     4.127026     4.115847     4.104667     4.093488     4.082308     4.071129     4.059949     4.048770     4.037591
      4.026411     4.015232     4.004052     3.992873     3.981693     3.970514     3.959334     3.948155     3.936975     3.925796
      3.914617     3.903437     3.892258     3.881078     3.869899     3.858719     3.847540     3.836360     3.825181     3.814002
      3.802822     3.791643     3.780463     3.769284     3.758104     3.746925     3.735745     3.724566     3.713387     3.702207
      3.691028     3.679848     3.668669     3.657489     3.646310     3.635130     3.623951     3.612772     3.601592     3.590413
      3.579233     3.568054     3.556874     3.545695     3.534515     3.523336     3.512156     3.500977     3.489798     3.478618
      3.467439     3.456259     3.445080     3.433900     3.422721     3.411541     3.400362     3.389183     3.378003     3.366824
      3.355644     3.344465     3.333285     3.322106     3.310926     3.299747     3.288568     3.277388     3.266209     3.255029
      3.243850     3.232670     3.221491     3.210311     3.199132     3.187953     3.176773     3.165594     3.154414     3.143235
      3.132055     3.120876     3.109696     3.098517     3.087337     3.076158     3.064979     3.053799     3.042620     3.031440
      3.020261     3.009081     2.997902     2.986722     2.975543     2.964364     2.953184     2.942005     2.930825     2.919646
      2.908466     2.897287     2.886107     2.874928     2.863749     2.852569     2.841390     2.830210     2.819031     2.807851
      2.796672     2.785492     2.774313     2.763134     2.751954     2.740775     2.729595     2.718416     2.707236     2.696057
      2.684877     2.673698     2.662519     2.651339     2.640160     2.628980     2.617801     2.606621     2.595442     2.584262
      2.573083     2.561903     2.550724     2.539545     2.528365     2.517186     2.506006     2.494827     2.483647     2.472468
      2.461288     2.450109     2.438930     2.427750     2.416571     2.405391     2.394212     2.383032     2.371853     2.360673
      2.349494     2.338315     2.327135     2.315956     2.304776     2.293597     2.282417     2.271238     2.260058     2.248879
      2.237700     2.226520     2.215341     2.204161     2.192982     2.181802     2.170623     2.159443     2.148264     2.137084
      2.125905     2.114726     2.103546     2.092367     2.081187     2.070008     2.058828     2.047649     2.036469     2.025290
      2.014111     2.002931     1.991752     1.980572     1.969393     1.958213     1.947034     1.935854     1.924675     1.913496
      1.902316     1.891137     1.879957     1.868778     1.857598     1.846419     1.835239     1.824060     1.812881     1.801701
      1.790522     1.779342     1.768163     1.756983     1.745804     1.734624     1.723445     1.712265     1.701086     1.689907
      1.678727     1.667548     1.656368     1.645189     1.634009     1.622830     1.611650     1.600471     1.589292     1.578112
      1.566933     1.555753     1.544574     1.533394     1.522215     1.511035     1.499856     1.488677     1.477497     1.466318
      1.455138     1.443959     1.432779     1.421600     1.410420     1.399241     1.388062     1.376882     1.365703     1.354523
      1.343344     1.332164     1.320985     1.309805     1.298626     1.287446     1.276267     1.265088     1.253908     1.242729
      1.231549     1.220370     1.209190     1.198011     1.186831     1.175652     1.164473     1.153293     1.142114     1.130934
      1.119755     1.108575     1.097396     1.086216     1.075037     1.063858     1.052678     1.041499     1.030319     1.019140
      1.007960     0.996781     0.985601     0.974422     0.963243     0.952063     0.940884     0.929704     0.918525     0.907345
      0.896166     0.884986     0.873807     0.862628     0.851448     0.840269     0.829089     0.817910     0.806730     0.795551
      0.784371     0.773192     0.762012     0.750833     0.739654     0.728474     0.717295     0.706115     0.694936     0.683756
      0.672577     0.661397     0.650218     0.639039     0.627859     0.616680     0.605500     0.594321     0.583141     0.571962
      0.560782     0.549603     0.538424     0.527244     0.516065     0.504885     0.493706     0.482526     0.471347     0.460167
      0.448988     0.437809     0.426629     0.415450     0.404270     0.393091     0.381911     0.370732     0.359552     0.348373
      0.337193     0.326014     0.314835     0.303655     0.292476     0.281296     0.270117     0.258937     0.247758     0.236578
      0.225399     0.214220     0.203040
 NY phased data points follow
   1.13672E-08  9.13022E-09  6.52127E-09  4.01760E-09  3.90132E-09  3.57229E-09  2.94616E-09  4.08603E-09  3.98077E-09  4.43883E-09
   4.29583E-09  4.69186E-09  5.20379E-09  5.19956E-09  5.29697E-09  5.68940E-09  4.31158E-09  4.68612E-09  4.28396E-09  3.97112E-09
   3.54316E-09  3.58703E-09  3.30971E-09  4.32533E-09  5.29042E-09  5.43769E-09  4.40308E-09  3.79604E-09  3.65808E-09  4.02927E-09
   5.45169E-09  6.64802E-09  6.51276E-09  5.13497E-09  4.31307E-09  2.87776E-09  1.36627E-09  1.03031E-09  1.06394E-09  1.71729E-09
   1.36715E-09  1.27624E-09  6.76279E-10  1.34813E-09  9.42104E-10  1.07739E-09  9.86009E-10  4.86252E-10  8.04836E-10  1.72273E-09
   1.81785E-09  2.74193E-09  1.83473E-09  2.13812E-09  1.68283E-09  1.90409E-09  2.22183E-09  3.46079E-09  3.73775E-09  4.72267E-09
   4.08484E-09  6.27625E-09  9.37590E-09  1.15868E-08  1.03994E-08  8.28243E-09  5.56888E-09  4.47552E-09  3.58081E-09  3.38905E-09
   3.15325E-09  3.06183E-09  2.39237E-09  3.41034E-09  2.82648E-09  3.86117E-09  3.71285E-09  5.43867E-09  6.96656E-09  1.18982E-08
   1.35776E-08  1.30753E-08  9.08333E-09  8.05476E-09  7.03680E-09  7.06034E-09  5.18027E-09  5.35517E-09  4.25342E-09  4.90862E-09
   4.22978E-09  4.56221E-09  2.66694E-09  3.26653E-09  2.48851E-09  2.43101E-09  2.15607E-09  2.19769E-09  1.85998E-09  1.98473E-09
   1.46758E-09  1.86090E-09  1.80628E-09  2.14622E-09  1.91666E-09  1.69043E-09  2.65744E-09  1.83757E-09  6.36715E-10  4.54480E-10
   2.67445E-10  3.34311E-10  8.60585E-10  2.18687E-09  2.03197E-09  2.24302E-09  1.93133E-09  2.99719E-09  2.86479E-09  2.80735E-09
   2.72751E-09  3.11443E-09  2.61272E-09  2.12470E-09  1.56359E-09  1.25055E-09  1.04436E-09  1.70897E-09  2.03765E-09  3.09416E-09
   2.41711E-09  2.68052E-09  2.38523E-09  3.16840E-09  2.78272E-09  2.87940E-09  2.96663E-09  3.09223E-09  2.19339E-09  3.87386E-09
   5.00821E-09  6.28014E-09  5.19871E-09  5.06911E-09  4.68212E-09  5.39757E-09  5.41700E-09  6.36772E-09  5.58753E-09  5.66144E-09
   5.26170E-09  5.71845E-09  4.85187E-09  4.53988E-09  4.72008E-09  4.52166E-09  4.23721E-09  4.46384E-09  4.49992E-09  4.22758E-09
   3.76529E-09  4.40890E-09  4.64088E-09  4.35644E-09  4.30786E-09  4.43564E-09  4.38093E-09  5.35696E-09  4.83307E-09  5.27831E-09
   8.91480E-09  1.58451E-08  1.92698E-08  1.74125E-08  1.38391E-08  1.18267E-08  1.09395E-08  9.68025E-09  8.87085E-09  7.76793E-09
   6.97456E-09  6.05220E-09  5.34330E-09  3.97581E-09  2.91112E-09  2.10321E-09  4.62967E-10 -1.01931E-09 -2.13499E-09 -3.37627E-09
  -4.96820E-09 -5.92830E-09 -8.02562E-09 -9.70305E-09 -1.11596E-08 -1.22926E-08 -1.30798E-08 -1.47634E-08 -1.58219E-08 -1.58405E-08
  -1.58402E-08 -1.63084E-08 -1.56751E-08 -1.49310E-08 -1.41566E-08 -1.27140E-08 -1.18822E-08 -9.66231E-09 -8.76796E-09 -7.32619E-09
  -6.33970E-09 -5.32527E-09 -3.94130E-09 -3.27234E-09 -3.14927E-09 -1.60809E-09 -2.12371E-09 -2.17303E-09 -1.96583E-09 -2.38482E-09
  -2.49071E-09 -2.59154E-09 -2.25233E-09 -1.62865E-09 -1.59750E-09 -1.36457E-09 -1.75278E-09 -1.81557E-09 -1.36085E-09 -1.72884E-09
  -1.38211E-09 -1.85717E-09 -1.57581E-09 -1.64825E-09 -1.80195E-09 -1.71957E-09 -1.25677E-09 -8.55041E-10 -1.20886E-09 -1.49433E-09
  -8.57711E-10 -1.16181E-09 -1.70154E-09 -1.77279E-09 -1.68803E-09 -1.21323E-09 -1.67848E-09 -1.29541E-09 -1.42515E-09 -1.21634E-09
  -7.92979E-10 -8.89480E-10 -5.58958E-10 -7.22384E-10 -3.01850E-10 -8.69976E-10 -4.80603E-10 -7.48791E-10 -1.04745E-09 -1.13294E-09
  -1.15841E-09 -8.93073E-10 -1.52584E-09 -1.60583E-09 -2.08610E-09 -2.15710E-09 -1.83648E-09 -1.88176E-09 -1.66792E-09 -1.80589E-09
  -1.39541E-09 -1.54927E-09 -8.34600E-10 -4.24428E-10 -9.48030E-10 -2.12012E-10  7.79612E-13  1.35541E-10  1.76632E-10  3.19633E-11
  -2.66848E-11 -1.07209E-10 -5.27561E-10 -7.30012E-10 -1.03439E-09 -8.34980E-10 -6.43405E-10 -6.95757E-10 -9.10546E-10 -8.59392E-10
  -8.47290E-10 -1.44796E-09 -1.13958E-09 -1.32746E-09 -1.18638E-09 -1.34424E-09 -9.99687E-10 -1.49499E-09 -9.87956E-10 -1.87490E-09
  -1.58010E-09 -1.47404E-09 -1.65103E-09 -1.18366E-09 -2.03364E-09 -1.70536E-09 -1.59808E-09 -1.40003E-09 -1.84024E-09 -2.14298E-09
  -2.06620E-09 -1.92844E-09 -2.12043E-09 -1.83269E-09 -2.08153E-09 -1.72422E-09 -2.11679E-09 -2.30241E-09 -2.27068E-09 -2.17208E-09
  -2.17700E-09 -2.42145E-09 -2.38186E-09 -2.55014E-09 -2.05631E-09 -2.51049E-09 -2.48628E-09 -2.66460E-09 -1.86693E-09 -2.41924E-09
  -2.75992E-09 -2.36792E-09 -2.37746E-09 -2.93551E-09 -2.50772E-09 -2.92041E-09 -2.11479E-09 -2.64427E-09 -2.61292E-09 -2.66706E-09
  -2.50876E-09 -2.89190E-09 -2.82789E-09 -3.27993E-09 -3.13395E-09 -3.11902E-09 -2.90215E-09 -2.98661E-09 -2.61955E-09 -2.88003E-09
  -2.73802E-09 -2.82684E-09 -2.62362E-09 -2.92497E-09 -3.30446E-09 -3.35407E-09 -2.31572E-09 -3.00075E-09 -3.38542E-09 -3.11411E-09
  -2.96780E-09 -3.17563E-09 -3.24946E-09
 NY points of the fit to the data follow
   8.70918E-09  7.55615E-09  6.44138E-09  5.93341E-09  5.67377E-09  5.34402E-09  4.79473E-09  4.20446E-09  3.82219E-09  3.76587E-09
   3.79316E-09  4.06454E-09  5.02663E-09  5.58800E-09  5.60709E-09  5.23136E-09  4.80362E-09  4.51336E-09  3.96435E-09  3.00505E-09
   2.50158E-09  3.03954E-09  3.61725E-09  4.01063E-09  4.44785E-09  5.03149E-09  5.61719E-09  5.77588E-09  5.47026E-09  5.38177E-09
   5.31959E-09  4.99691E-09  4.37462E-09  3.68621E-09  3.20101E-09  2.80390E-09  2.50636E-09  2.06800E-09  1.80513E-09  1.62600E-09
   1.48344E-09  1.26293E-09  9.34974E-10  7.31795E-10  7.40317E-10  7.93183E-10  8.57515E-10  9.18644E-10  9.89600E-10  1.07568E-09
   1.18546E-09  1.32325E-09  1.50423E-09  1.72039E-09  2.03713E-09  2.50369E-09  3.06427E-09  3.81024E-09  4.84660E-09  5.82886E-09
   6.62604E-09  7.37200E-09  7.98375E-09  8.18265E-09  7.82260E-09  7.01536E-09  6.13950E-09  5.49898E-09  4.58491E-09  3.52388E-09
   3.16637E-09  3.17414E-09  3.21002E-09  3.53026E-09  4.13061E-09  5.02768E-09  5.99277E-09  7.00023E-09  8.13262E-09  9.26950E-09
   1.01370E-08  1.04248E-08  9.97835E-09  9.30449E-09  8.64418E-09  7.50329E-09  5.97910E-09  4.85749E-09  3.99255E-09  3.39472E-09
   3.06370E-09  2.86325E-09  2.72844E-09  2.63490E-09  2.55772E-09  2.50081E-09  2.46605E-09  2.44453E-09  2.42635E-09  2.40866E-09
   2.40707E-09  2.41512E-09  2.42290E-09  2.43263E-09  2.44761E-09  2.46680E-09  2.48890E-09  2.51336E-09  2.53959E-09  2.56749E-09
   2.59687E-09  2.62755E-09  2.65939E-09  2.69215E-09  2.72558E-09  2.75939E-09  2.79335E-09  2.82722E-09  2.86077E-09  2.89377E-09
   2.92602E-09  2.95729E-09  2.98739E-09  3.01612E-09  3.04327E-09  3.06865E-09  3.09207E-09  3.11334E-09  3.13227E-09  3.14867E-09
   3.16236E-09  3.17315E-09  3.18088E-09  3.18535E-09  3.18639E-09  3.18382E-09  3.17747E-09  3.16717E-09  3.15275E-09  3.13404E-09
   3.11088E-09  3.08323E-09  3.05109E-09  3.01444E-09  2.97331E-09  2.92769E-09  2.87762E-09  2.82311E-09  2.76421E-09  2.70097E-09
   2.63348E-09  2.56182E-09  2.48612E-09  2.40657E-09  2.32339E-09  2.23688E-09  2.14750E-09  2.05581E-09  1.96268E-09  1.86931E-09
   1.77757E-09  1.69036E-09  1.61253E-09  1.55278E-09  1.52874E-09  1.58345E-09  1.86551E-09  2.94186E-09  4.72852E-09  7.34257E-09
   1.11131E-08  1.51168E-08  1.75585E-08  1.76466E-08  1.62766E-08  1.46131E-08  1.25087E-08  8.78027E-09  3.56762E-09  3.64253E-10
  -6.84076E-10 -1.23725E-09 -1.61955E-09 -1.92269E-09 -2.18181E-09 -2.41302E-09 -2.62456E-09 -2.82093E-09 -3.00468E-09 -3.17728E-09
  -3.33952E-09 -3.49181E-09 -3.63426E-09 -3.76681E-09 -3.88930E-09 -4.00146E-09 -4.10313E-09 -4.19464E-09 -4.27636E-09 -4.34866E-09
  -4.41189E-09 -4.46636E-09 -4.51239E-09 -4.55029E-09 -4.58036E-09 -4.60287E-09 -4.61813E-09 -4.62641E-09 -4.62799E-09 -4.62315E-09
  -4.61215E-09 -4.59526E-09 -4.57276E-09 -4.54492E-09 -4.51199E-09 -4.47426E-09 -4.43197E-09 -4.38539E-09 -4.33478E-09 -4.28042E-09
  -4.22255E-09 -4.16145E-09 -4.09736E-09 -4.03056E-09 -3.96128E-09 -3.88972E-09 -3.81606E-09 -3.74049E-09 -3.66321E-09 -3.58441E-09
  -3.50427E-09 -3.42298E-09 -3.34074E-09 -3.25772E-09 -3.17411E-09 -3.09012E-09 -3.00591E-09 -2.92170E-09 -2.83764E-09 -2.75396E-09
  -2.67082E-09 -2.58841E-09 -2.50693E-09 -2.42657E-09 -2.34750E-09 -2.26991E-09 -2.19400E-09 -2.11995E-09 -2.04796E-09 -1.97821E-09
  -1.91086E-09 -1.84615E-09 -1.78414E-09 -1.72481E-09 -1.66814E-09 -1.61409E-09 -1.56262E-09 -1.51371E-09 -1.46732E-09 -1.42342E-09
  -1.38198E-09 -1.34296E-09 -1.30634E-09 -1.27207E-09 -1.24014E-09 -1.21050E-09 -1.18311E-09 -1.15797E-09 -1.13503E-09 -1.11424E-09
  -1.09559E-09 -1.07904E-09 -1.06455E-09 -1.05210E-09 -1.04166E-09 -1.03317E-09 -1.02663E-09 -1.02199E-09 -1.01923E-09 -1.01831E-09
  -1.01918E-09 -1.02180E-09 -1.02612E-09 -1.03209E-09 -1.03965E-09 -1.04877E-09 -1.05939E-09 -1.07145E-09 -1.08492E-09 -1.09974E-09
  -1.11586E-09 -1.13323E-09 -1.15180E-09 -1.17153E-09 -1.19236E-09 -1.21424E-09 -1.23713E-09 -1.26097E-09 -1.28571E-09 -1.31131E-09
  -1.33771E-09 -1.36487E-09 -1.39273E-09 -1.42125E-09 -1.45038E-09 -1.48006E-09 -1.51025E-09 -1.54089E-09 -1.57196E-09 -1.60343E-09
  -1.63527E-09 -1.66747E-09 -1.69998E-09 -1.73279E-09 -1.76587E-09 -1.79920E-09 -1.83274E-09 -1.86649E-09 -1.90040E-09 -1.93445E-09
  -1.96863E-09 -2.00289E-09 -2.03723E-09 -2.07160E-09 -2.10599E-09 -2.14038E-09 -2.17473E-09 -2.20901E-09 -2.24322E-09 -2.27731E-09
  -2.31126E-09 -2.34506E-09 -2.37866E-09 -2.41205E-09 -2.44521E-09 -2.47810E-09 -2.51074E-09 -2.54313E-09 -2.57528E-09 -2.60721E-09
  -2.63893E-09 -2.67045E-09 -2.70179E-09 -2.73295E-09 -2.76394E-09 -2.79478E-09 -2.82549E-09 -2.85606E-09 -2.88652E-09 -2.91687E-09
  -2.94713E-09 -2.97730E-09 -3.00741E-09 -3.03746E-09 -3.06746E-09 -3.09743E-09 -3.12737E-09 -3.15730E-09 -3.18723E-09 -3.21718E-09
  -3.24715E-09 -3.27716E-09 -3.30721E-09
 NY background values follow
    -2.286E-09   -2.250E-09   -2.214E-09   -2.178E-09   -2.141E-09   -2.105E-09   -2.068E-09   -2.032E-09   -1.995E-09   -1.959E-09
    -1.922E-09   -1.885E-09   -1.849E-09   -1.812E-09   -1.775E-09   -1.739E-09   -1.702E-09   -1.665E-09   -1.629E-09   -1.592E-09
    -1.556E-09   -1.519E-09   -1.483E-09   -1.447E-09   -1.410E-09   -1.374E-09   -1.338E-09   -1.302E-09   -1.266E-09   -1.230E-09
    -1.195E-09   -1.159E-09   -1.123E-09   -1.088E-09   -1.052E-09   -1.017E-09   -9.817E-10   -9.464E-10   -9.111E-10   -8.759E-10
    -8.406E-10   -8.054E-10   -7.701E-10   -7.349E-10   -6.996E-10   -6.643E-10   -6.290E-10   -5.936E-10   -5.582E-10   -5.227E-10
    -4.871E-10   -4.515E-10   -4.158E-10   -3.800E-10   -3.441E-10   -3.081E-10   -2.719E-10   -2.357E-10   -1.993E-10   -1.628E-10
    -1.263E-10   -8.957E-11   -5.277E-11   -1.587E-11    2.113E-11    5.823E-11    9.541E-11    1.327E-10    1.701E-10    2.075E-10
     2.450E-10    2.826E-10    3.203E-10    3.581E-10    3.959E-10    4.338E-10    4.718E-10    5.098E-10    5.478E-10    5.860E-10
     6.241E-10    6.624E-10    7.006E-10    7.390E-10    7.773E-10    8.157E-10    8.541E-10    8.926E-10    9.312E-10    9.698E-10
     1.008E-09    1.047E-09    1.086E-09    1.125E-09    1.164E-09    1.203E-09    1.242E-09    1.281E-09    1.321E-09    1.360E-09
     1.400E-09    1.440E-09    1.479E-09    1.519E-09    1.559E-09    1.600E-09    1.640E-09    1.681E-09    1.721E-09    1.762E-09
     1.803E-09    1.844E-09    1.886E-09    1.927E-09    1.969E-09    2.010E-09    2.050E-09    2.090E-09    2.129E-09    2.168E-09
     2.205E-09    2.240E-09    2.274E-09    2.307E-09    2.337E-09    2.366E-09    2.392E-09    2.416E-09    2.438E-09    2.456E-09
     2.472E-09    2.485E-09    2.494E-09    2.500E-09    2.502E-09    2.501E-09    2.495E-09    2.486E-09    2.472E-09    2.453E-09
     2.430E-09    2.402E-09    2.370E-09    2.333E-09    2.290E-09    2.243E-09    2.192E-09    2.135E-09    2.073E-09    2.007E-09
     1.936E-09    1.859E-09    1.778E-09    1.692E-09    1.601E-09    1.504E-09    1.403E-09    1.297E-09    1.185E-09    1.068E-09
     9.467E-10    8.199E-10    6.879E-10    5.506E-10    4.082E-10    2.605E-10    1.076E-10   -5.062E-11   -2.140E-10   -3.823E-10
    -5.548E-10   -7.310E-10   -9.104E-10   -1.092E-09   -1.277E-09   -1.462E-09   -1.649E-09   -1.837E-09   -2.024E-09   -2.211E-09
    -2.396E-09   -2.580E-09   -2.762E-09   -2.941E-09   -3.117E-09   -3.289E-09   -3.457E-09   -3.620E-09   -3.777E-09   -3.929E-09
    -4.074E-09   -4.212E-09   -4.342E-09   -4.465E-09   -4.578E-09   -4.683E-09   -4.778E-09   -4.864E-09   -4.941E-09   -5.008E-09
    -5.068E-09   -5.118E-09   -5.161E-09   -5.196E-09   -5.223E-09   -5.243E-09   -5.256E-09   -5.263E-09   -5.262E-09   -5.255E-09
    -5.243E-09   -5.224E-09   -5.200E-09   -5.171E-09   -5.137E-09   -5.098E-09   -5.054E-09   -5.007E-09   -4.955E-09   -4.900E-09
    -4.841E-09   -4.779E-09   -4.714E-09   -4.646E-09   -4.576E-09   -4.504E-09   -4.430E-09   -4.353E-09   -4.275E-09   -4.196E-09
    -4.115E-09   -4.033E-09   -3.951E-09   -3.867E-09   -3.783E-09   -3.698E-09   -3.614E-09   -3.529E-09   -3.444E-09   -3.360E-09
    -3.277E-09   -3.194E-09   -3.112E-09   -3.031E-09   -2.951E-09   -2.873E-09   -2.797E-09   -2.723E-09   -2.650E-09   -2.580E-09
    -2.512E-09   -2.447E-09   -2.385E-09   -2.325E-09   -2.268E-09   -2.214E-09   -2.162E-09   -2.113E-09   -2.066E-09   -2.022E-09
    -1.980E-09   -1.941E-09   -1.904E-09   -1.869E-09   -1.837E-09   -1.807E-09   -1.779E-09   -1.754E-09   -1.731E-09   -1.710E-09
    -1.691E-09   -1.674E-09   -1.659E-09   -1.646E-09   -1.636E-09   -1.627E-09   -1.620E-09   -1.615E-09   -1.612E-09   -1.611E-09
    -1.612E-09   -1.614E-09   -1.618E-09   -1.624E-09   -1.631E-09   -1.640E-09   -1.650E-09   -1.662E-09   -1.675E-09   -1.690E-09
    -1.706E-09   -1.723E-09   -1.741E-09   -1.760E-09   -1.781E-09   -1.803E-09   -1.825E-09   -1.849E-09   -1.873E-09   -1.899E-09
    -1.925E-09   -1.952E-09   -1.979E-09   -2.008E-09   -2.037E-09   -2.066E-09   -2.096E-09   -2.126E-09   -2.157E-09   -2.188E-09
    -2.220E-09   -2.252E-09   -2.284E-09   -2.317E-09   -2.349E-09   -2.383E-09   -2.416E-09   -2.449E-09   -2.483E-09   -2.517E-09
    -2.551E-09   -2.585E-09   -2.619E-09   -2.653E-09   -2.687E-09   -2.721E-09   -2.755E-09   -2.789E-09   -2.823E-09   -2.857E-09
    -2.891E-09   -2.924E-09   -2.958E-09   -2.991E-09   -3.024E-09   -3.056E-09   -3.089E-09   -3.121E-09   -3.153E-09   -3.184E-09
    -3.216E-09   -3.247E-09   -3.278E-09   -3.309E-09   -3.340E-09   -3.370E-09   -3.401E-09   -3.431E-09   -3.461E-09   -3.491E-09
    -3.521E-09   -3.551E-09   -3.581E-09   -3.611E-09   -3.640E-09   -3.670E-09   -3.700E-09   -3.729E-09   -3.759E-09   -3.789E-09
    -3.818E-09   -3.848E-09   -3.878E-09
 Cr       Conc. = 2.05E-10
  -1.47771E-09 -1.56452E-09 -1.76420E-09 -2.00395E-09 -2.04398E-09 -2.03508E-09 -2.01225E-09 -1.98369E-09 -1.95224E-09 -1.91911E-09
  -1.88495E-09 -1.85008E-09 -1.81472E-09 -1.77899E-09 -1.74298E-09 -1.70675E-09 -1.67032E-09 -1.63373E-09 -1.59699E-09 -1.56009E-09
  -1.52302E-09 -1.48574E-09 -1.44823E-09 -1.41038E-09 -1.37208E-09 -1.33315E-09 -1.29323E-09 -1.25175E-09 -1.20753E-09 -1.15787E-09
  -1.09446E-09 -9.77199E-10 -7.98894E-10 -5.64980E-10 -2.40280E-10  1.23647E-10  3.88743E-10  4.70950E-10  4.23631E-10  3.46184E-10
   2.47717E-10  3.82429E-11 -3.08317E-10 -5.49224E-10 -5.88050E-10 -5.83769E-10 -5.65055E-10 -5.39872E-10 -5.11235E-10 -4.80551E-10
  -4.48545E-10 -4.15611E-10 -3.82013E-10 -3.47897E-10 -3.13385E-10 -2.78505E-10 -2.43323E-10 -2.07883E-10 -1.72209E-10 -1.36327E-10
  -1.00257E-10 -6.40160E-11 -2.76167E-11  8.93102E-12  4.56154E-11  8.24267E-11  1.19360E-10  1.56409E-10  1.93565E-10  2.30824E-10
   2.68182E-10  3.05629E-10  3.43167E-10  3.80787E-10  4.18488E-10  4.56261E-10  4.94107E-10  5.32022E-10  5.70000E-10  6.08035E-10
   6.46133E-10  6.84279E-10  7.22481E-10  7.60724E-10  7.99016E-10  8.37348E-10  8.75729E-10  9.14163E-10  9.52655E-10  9.91211E-10
   1.02983E-09  1.06853E-09  1.10730E-09  1.14616E-09  1.18510E-09  1.22413E-09  1.26326E-09  1.30250E-09  1.34184E-09  1.38129E-09
   1.42086E-09  1.46055E-09  1.50037E-09  1.54032E-09  1.58040E-09  1.62063E-09  1.66100E-09  1.70153E-09  1.74221E-09  1.78306E-09
   1.82407E-09  1.86525E-09  1.90660E-09  1.94802E-09  1.98934E-09  2.03037E-09  2.07095E-09  2.11090E-09  2.15003E-09  2.18818E-09
   2.22518E-09  2.26083E-09  2.29498E-09  2.32744E-09  2.35804E-09  2.38659E-09  2.41294E-09  2.43689E-09  2.45828E-09  2.47693E-09
   2.49266E-09  2.50530E-09  2.51467E-09  2.52059E-09  2.52290E-09  2.52141E-09  2.51595E-09  2.50635E-09  2.49243E-09  2.47400E-09
   2.45092E-09  2.42311E-09  2.39055E-09  2.35322E-09  2.31110E-09  2.26417E-09  2.21241E-09  2.15581E-09  2.09433E-09  2.02797E-09
   1.95670E-09  1.88051E-09  1.79938E-09  1.71329E-09  1.62223E-09  1.52618E-09  1.42514E-09  1.31911E-09  1.20809E-09  1.09208E-09
   9.71134E-10  8.45307E-10  7.14747E-10  5.79705E-10  4.40816E-10  2.99824E-10  1.64251E-10  5.09025E-11 -5.40072E-11 -1.33916E-10
  -1.90098E-10 -2.65396E-10 -4.05152E-10 -6.05972E-10 -8.28936E-10 -1.05376E-09 -1.30449E-09 -1.61127E-09 -1.93072E-09 -2.15286E-09
  -2.35182E-09 -2.54261E-09 -2.72850E-09 -2.91029E-09 -3.08802E-09 -3.26146E-09 -3.43025E-09 -3.59396E-09 -3.75209E-09 -3.90417E-09
  -4.04968E-09 -4.18812E-09 -4.31896E-09 -4.44166E-09 -4.55570E-09 -4.66057E-09 -4.75587E-09 -4.84178E-09 -4.91856E-09 -4.98646E-09
  -5.04575E-09 -5.09668E-09 -5.13952E-09 -5.17451E-09 -5.20193E-09 -5.22203E-09 -5.23506E-09 -5.24129E-09 -5.24097E-09 -5.23436E-09
  -5.22172E-09 -5.20330E-09 -5.17937E-09 -5.15019E-09 -5.11600E-09 -5.07707E-09 -5.03366E-09 -4.98602E-09 -4.93440E-09 -4.87908E-09
  -4.82031E-09 -4.75833E-09 -4.69342E-09 -4.62582E-09 -4.55579E-09 -4.48350E-09 -4.40914E-09 -4.33291E-09 -4.25498E-09 -4.17555E-09
  -4.09481E-09 -4.01294E-09 -3.93013E-09 -3.84657E-09 -3.76243E-09 -3.67792E-09 -3.59322E-09 -3.50853E-09 -3.42399E-09 -3.33985E-09
  -3.25627E-09 -3.17342E-09 -3.09151E-09 -3.01073E-09 -2.93125E-09 -2.85327E-09 -2.77696E-09 -2.70253E-09 -2.63016E-09 -2.56004E-09
  -2.49233E-09 -2.42727E-09 -2.36491E-09 -2.30523E-09 -2.24822E-09 -2.19384E-09 -2.14204E-09 -2.09280E-09 -2.04609E-09 -2.00188E-09
  -1.96013E-09 -1.92080E-09 -1.88387E-09 -1.84930E-09 -1.81707E-09 -1.78714E-09 -1.75946E-09 -1.73403E-09 -1.71080E-09 -1.68973E-09
  -1.67080E-09 -1.65397E-09 -1.63921E-09 -1.62648E-09 -1.61577E-09 -1.60701E-09 -1.60020E-09 -1.59530E-09 -1.59228E-09 -1.59109E-09
  -1.59170E-09 -1.59406E-09 -1.59812E-09 -1.60383E-09 -1.61114E-09 -1.62000E-09 -1.63037E-09 -1.64218E-09 -1.65539E-09 -1.66996E-09
  -1.68583E-09 -1.70295E-09 -1.72128E-09 -1.74076E-09 -1.76134E-09 -1.78297E-09 -1.80561E-09 -1.82920E-09 -1.85370E-09 -1.87905E-09
  -1.90521E-09 -1.93212E-09 -1.95974E-09 -1.98802E-09 -2.01690E-09 -2.04634E-09 -2.07628E-09 -2.10668E-09 -2.13751E-09 -2.16874E-09
  -2.20033E-09 -2.23228E-09 -2.26455E-09 -2.29712E-09 -2.32995E-09 -2.36304E-09 -2.39634E-09 -2.42983E-09 -2.46350E-09 -2.49731E-09
  -2.53124E-09 -2.56526E-09 -2.59934E-09 -2.63347E-09 -2.66761E-09 -2.70175E-09 -2.73585E-09 -2.76989E-09 -2.80384E-09 -2.83768E-09
  -2.87138E-09 -2.90492E-09 -2.93828E-09 -2.97141E-09 -3.00431E-09 -3.03695E-09 -3.06933E-09 -3.10146E-09 -3.13336E-09 -3.16503E-09
  -3.19649E-09 -3.22775E-09 -3.25883E-09 -3.28972E-09 -3.32045E-09 -3.35103E-09 -3.38147E-09 -3.41177E-09 -3.44196E-09 -3.47204E-09
  -3.50203E-09 -3.53193E-09 -3.56177E-09 -3.59154E-09 -3.62126E-09 -3.65096E-09 -3.68062E-09 -3.71027E-09 -3.73992E-09 -3.76959E-09
  -3.79928E-09 -3.82900E-09 -3.85876E-09
 Gln      Conc. = 2.89E-09
  -5.29300E-10  3.08349E-11  6.64377E-10  1.36179E-09  2.00214E-09  2.43219E-09  2.57210E-09  2.42228E-09  2.06910E-09  1.67047E-09
   1.03074E-09  2.29637E-10 -1.27075E-10 -5.84189E-10 -8.69421E-10 -9.89626E-10 -1.04466E-09 -1.06817E-09 -1.07379E-09 -1.06804E-09
  -1.05460E-09 -1.03575E-09 -1.01292E-09 -9.86850E-10 -9.57842E-10 -9.26280E-10 -8.93311E-10 -8.58991E-10 -8.23116E-10 -7.86407E-10
  -7.48884E-10 -7.10517E-10 -6.71297E-10 -6.31186E-10 -5.90142E-10 -5.48105E-10 -5.04994E-10 -4.60704E-10 -4.15106E-10 -3.68040E-10
  -3.19262E-10 -2.68537E-10 -2.15400E-10 -1.59342E-10 -9.97843E-11 -3.59061E-11  3.31793E-11  1.08309E-10  1.91532E-10  2.85586E-10
   3.93152E-10  5.20965E-10  6.79823E-10  8.87458E-10  1.18649E-09  1.65289E-09  2.22954E-09  2.99619E-09  4.03823E-09  5.03912E-09
   5.84543E-09  6.61512E-09  7.23535E-09  7.42119E-09  7.03448E-09  6.21232E-09  5.31301E-09  4.65330E-09  3.67562E-09  2.51690E-09
   2.05515E-09  1.97038E-09  1.90226E-09  2.10356E-09  2.57612E-09  3.33329E-09  4.12866E-09  4.88069E-09  5.60365E-09  6.21135E-09
   6.61184E-09  6.72813E-09  6.40722E-09  5.93498E-09  5.51911E-09  4.78134E-09  3.91930E-09  3.47232E-09  2.99957E-09  2.56292E-09
   2.31678E-09  2.16594E-09  2.07003E-09  2.00889E-09  1.96862E-09  1.94356E-09  1.93084E-09  1.92699E-09  1.92986E-09  1.93862E-09
   1.95193E-09  1.96856E-09  1.98801E-09  2.00993E-09  2.03413E-09  2.06043E-09  2.08828E-09  2.11751E-09  2.14797E-09  2.17954E-09
   2.21210E-09  2.24557E-09  2.27985E-09  2.31478E-09  2.35013E-09  2.38565E-09  2.42113E-09  2.45636E-09  2.49112E-09  2.52520E-09
   2.55840E-09  2.59052E-09  2.62136E-09  2.65074E-09  2.67845E-09  2.70430E-09  2.72811E-09  2.74969E-09  2.76886E-09  2.78542E-09
   2.79919E-09  2.81000E-09  2.81765E-09  2.82197E-09  2.82278E-09  2.81989E-09  2.81313E-09  2.80232E-09  2.78729E-09  2.76785E-09
   2.74385E-09  2.71522E-09  2.68194E-09  2.64399E-09  2.60137E-09  2.55405E-09  2.50203E-09  2.44530E-09  2.38385E-09  2.31769E-09
   2.24682E-09  2.17126E-09  2.09103E-09  2.00616E-09  1.91672E-09  1.82278E-09  1.72445E-09  1.62191E-09  1.51539E-09  1.40524E-09
   1.29200E-09  1.17651E-09  1.06019E-09  9.45449E-10  8.37069E-10  7.45729E-10  7.02498E-10  8.46735E-10  1.32549E-09  2.01908E-09
   3.12525E-09  4.52513E-09  5.60177E-09  5.82841E-09  5.33546E-09  4.62215E-09  3.86017E-09  2.67746E-09  7.84992E-10 -9.94233E-10
  -1.60824E-09 -1.96462E-09 -2.23738E-09 -2.47196E-09 -2.68483E-09 -2.88316E-09 -3.07037E-09 -3.24819E-09 -3.41744E-09 -3.57847E-09
  -3.73132E-09 -3.87588E-09 -4.01189E-09 -4.13901E-09 -4.25688E-09 -4.36507E-09 -4.46331E-09 -4.55181E-09 -4.63090E-09 -4.70088E-09
  -4.76204E-09 -4.81467E-09 -4.85906E-09 -4.89547E-09 -4.92419E-09 -4.94549E-09 -4.95963E-09 -4.96689E-09 -4.96754E-09 -4.96183E-09
  -4.95004E-09 -4.93242E-09 -4.90923E-09 -4.88075E-09 -4.84723E-09 -4.80894E-09 -4.76613E-09 -4.71906E-09 -4.66799E-09 -4.61320E-09
  -4.55492E-09 -4.49342E-09 -4.42896E-09 -4.36181E-09 -4.29219E-09 -4.22031E-09 -4.14634E-09 -4.07048E-09 -3.99292E-09 -3.91385E-09
