 LCModel (Version 6.3-1R) Copyright: S.W. Provencher.          Ref.: Magn. Reson. Med. 30:672-679 (1993).                
 onepulse 26x10_ftSpec_smooth_lcm
 26 lines in following concentration table = NCONC+1
    Conc.  %SD   /Cr    Metabolite                                         
 1.51E-10 161%   0.000 Ala                                                 
 2.69E-09  23%   0.000 Asp                                                 
    0.000 999%   0.000 Cr                                                  
 1.12E-09  37%   0.000 GABA                                                
 2.54E-09  25%   0.000 Glc                                                 
 3.47E-10 152%   0.000 Gln                                                 
    0.000 999%   0.000 Glu                                                 
    0.000 999%   0.000 Glyc                                                
 9.08E-11 182%   0.000 GPC                                                 
 5.17E-10  70%   0.000 GSH                                                 
 8.63E-10  46%   0.000 Ins                                                 
    0.000 999%   0.000 Lac                                                 
 9.41E-10  19%   0.000 NAAG                                                
    0.000 999%   0.000 NAA                                                 
    0.000 999%   0.000 PCh                                                 
    0.000 999%   0.000 PCr                                                 
 1.82E-09  54%   0.000 PE                                                  
 6.29E-11 260%   0.000 Scyllo                                              
    0.000 999%   0.000 Ser                                                 
    0.000 999%   0.000 Tau                                                 
 9.08E-11 182%   0.000 GPC+PCh                                             
 9.41E-10  19%   0.000 NAA+NAAG                                            
 8.63E-10  46%   0.000 Ins+Glyc                                            
    0.000 999%   0.000 Cr+PCr                                              
 3.47E-10 152%   0.000 Glu+Gln                                             
   6 lines in following misc. output table
  FWHM = 0.123 ppm    S/N =   4                                            
  Data shift = 0.470 ppm                                                   
  Ph:  12 deg     -47.8 deg/ppm                                            
  alphaB,S = 6.0E-01,   3.9E+00                                            
   10 spline knots.   Ns = 5(1)                                            
  ( 8) 8 infls.   (11) 7 extrs.                                            
  363 points on ppm-axis = NY
      4.250000     4.238821     4.227641     4.216462     4.205282     4.194103     4.182923     4.171744     4.160564     4.149385
      4.138206     4.127026     4.115847     4.104667     4.093488     4.082308     4.071129     4.059949     4.048770     4.037591
      4.026411     4.015232     4.004052     3.992873     3.981693     3.970514     3.959334     3.948155     3.936975     3.925796
      3.914617     3.903437     3.892258     3.881078     3.869899     3.858719     3.847540     3.836360     3.825181     3.814002
      3.802822     3.791643     3.780463     3.769284     3.758104     3.746925     3.735745     3.724566     3.713387     3.702207
      3.691028     3.679848     3.668669     3.657489     3.646310     3.635130     3.623951     3.612772     3.601592     3.590413
      3.579233     3.568054     3.556874     3.545695     3.534515     3.523336     3.512156     3.500977     3.489798     3.478618
      3.467439     3.456259     3.445080     3.433900     3.422721     3.411541     3.400362     3.389183     3.378003     3.366824
      3.355644     3.344465     3.333285     3.322106     3.310926     3.299747     3.288568     3.277388     3.266209     3.255029
      3.243850     3.232670     3.221491     3.210311     3.199132     3.187953     3.176773     3.165594     3.154414     3.143235
      3.132055     3.120876     3.109696     3.098517     3.087337     3.076158     3.064979     3.053799     3.042620     3.031440
      3.020261     3.009081     2.997902     2.986722     2.975543     2.964364     2.953184     2.942005     2.930825     2.919646
      2.908466     2.897287     2.886107     2.874928     2.863749     2.852569     2.841390     2.830210     2.819031     2.807851
      2.796672     2.785492     2.774313     2.763134     2.751954     2.740775     2.729595     2.718416     2.707236     2.696057
      2.684877     2.673698     2.662519     2.651339     2.640160     2.628980     2.617801     2.606621     2.595442     2.584262
      2.573083     2.561903     2.550724     2.539545     2.528365     2.517186     2.506006     2.494827     2.483647     2.472468
      2.461288     2.450109     2.438930     2.427750     2.416571     2.405391     2.394212     2.383032     2.371853     2.360673
      2.349494     2.338315     2.327135     2.315956     2.304776     2.293597     2.282417     2.271238     2.260058     2.248879
      2.237700     2.226520     2.215341     2.204161     2.192982     2.181802     2.170623     2.159443     2.148264     2.137084
      2.125905     2.114726     2.103546     2.092367     2.081187     2.070008     2.058828     2.047649     2.036469     2.025290
      2.014111     2.002931     1.991752     1.980572     1.969393     1.958213     1.947034     1.935854     1.924675     1.913496
      1.902316     1.891137     1.879957     1.868778     1.857598     1.846419     1.835239     1.824060     1.812881     1.801701
      1.790522     1.779342     1.768163     1.756983     1.745804     1.734624     1.723445     1.712265     1.701086     1.689907
      1.678727     1.667548     1.656368     1.645189     1.634009     1.622830     1.611650     1.600471     1.589292     1.578112
      1.566933     1.555753     1.544574     1.533394     1.522215     1.511035     1.499856     1.488677     1.477497     1.466318
      1.455138     1.443959     1.432779     1.421600     1.410420     1.399241     1.388062     1.376882     1.365703     1.354523
      1.343344     1.332164     1.320985     1.309805     1.298626     1.287446     1.276267     1.265088     1.253908     1.242729
      1.231549     1.220370     1.209190     1.198011     1.186831     1.175652     1.164473     1.153293     1.142114     1.130934
      1.119755     1.108575     1.097396     1.086216     1.075037     1.063858     1.052678     1.041499     1.030319     1.019140
      1.007960     0.996781     0.985601     0.974422     0.963243     0.952063     0.940884     0.929704     0.918525     0.907345
      0.896166     0.884986     0.873807     0.862628     0.851448     0.840269     0.829089     0.817910     0.806730     0.795551
      0.784371     0.773192     0.762012     0.750833     0.739654     0.728474     0.717295     0.706115     0.694936     0.683756
      0.672577     0.661397     0.650218     0.639039     0.627859     0.616680     0.605500     0.594321     0.583141     0.571962
      0.560782     0.549603     0.538424     0.527244     0.516065     0.504885     0.493706     0.482526     0.471347     0.460167
      0.448988     0.437809     0.426629     0.415450     0.404270     0.393091     0.381911     0.370732     0.359552     0.348373
      0.337193     0.326014     0.314835     0.303655     0.292476     0.281296     0.270117     0.258937     0.247758     0.236578
      0.225399     0.214220     0.203040
 NY phased data points follow
   9.06478E-09  1.19512E-08  1.06577E-08  1.22394E-08  1.12180E-08  1.28891E-08  1.06303E-08  1.23564E-08  1.06580E-08  1.21021E-08
   9.81620E-09  1.15738E-08  8.88555E-09  1.17010E-08  1.03148E-08  1.24080E-08  1.01148E-08  1.12627E-08  8.80161E-09  1.06558E-08
   9.26980E-09  1.37165E-08  1.26821E-08  1.46580E-08  1.28253E-08  1.34963E-08  1.10566E-08  1.16773E-08  1.00701E-08  1.11823E-08
   9.45649E-09  1.06527E-08  8.99338E-09  1.03964E-08  8.48002E-09  9.92778E-09  7.60838E-09  8.42257E-09  6.50844E-09  8.53117E-09
   6.59692E-09  8.56919E-09  6.16293E-09  7.97608E-09  5.42975E-09  6.85380E-09  4.26696E-09  6.07004E-09  4.68078E-09  6.20704E-09
   3.67260E-09  5.92652E-09  7.17294E-09  1.15475E-08  1.05253E-08  1.22089E-08  9.74390E-09  1.05472E-08  8.40432E-09  9.35424E-09
   7.93104E-09  8.05833E-09  6.42616E-09  6.86034E-09  4.68631E-09  5.75240E-09  2.95948E-09  3.69535E-09  3.07935E-09  9.05831E-09
   1.17218E-08  1.41740E-08  1.15730E-08  1.29171E-08  1.18167E-08  1.29967E-08  1.08798E-08  1.24002E-08  1.11593E-08  1.30436E-08
   1.09465E-08  1.27053E-08  1.01184E-08  1.22298E-08  1.01234E-08  1.14278E-08  9.51721E-09  1.03798E-08  8.88707E-09  9.74038E-09
   7.83481E-09  9.41861E-09  8.03085E-09  9.32954E-09  7.07840E-09  9.08352E-09  8.28011E-09  9.06633E-09  7.33792E-09  8.04100E-09
   5.81599E-09  6.25880E-09  5.04801E-09  6.53881E-09  5.38383E-09  6.33719E-09  5.14119E-09  7.29865E-09  5.64217E-09  7.01282E-09
   5.60499E-09  7.37280E-09  6.03926E-09  7.04705E-09  5.68690E-09  6.12959E-09  4.14519E-09  4.94147E-09  3.99682E-09  5.35308E-09
   3.95301E-09  4.99397E-09  3.73222E-09  5.14960E-09  4.83433E-09  4.76202E-09  3.77871E-09  3.92400E-09  2.45656E-09  3.80970E-09
   4.47297E-09  5.83752E-09  5.15081E-09  5.43097E-09  4.64282E-09  5.96917E-09  6.10445E-09  7.14413E-09  6.29181E-09  7.34472E-09
   6.85249E-09  7.28874E-09  6.87352E-09  7.18565E-09  6.81703E-09  7.68594E-09  6.85989E-09  7.14360E-09  6.52372E-09  6.59051E-09
   5.78317E-09  6.51188E-09  5.97713E-09  6.56297E-09  5.52875E-09  5.20395E-09  5.11812E-09  4.97831E-09  2.45354E-09 -2.77880E-10
   1.41341E-10  6.53949E-09  1.18634E-08  1.43001E-08  1.48625E-08  1.59246E-08  1.62113E-08  1.68022E-08  1.76835E-08  1.79609E-08
   1.83236E-08  1.91695E-08  1.92027E-08  1.90378E-08  1.94326E-08  1.95253E-08  1.86653E-08  1.77644E-08  1.73017E-08  1.58398E-08
   1.49560E-08  1.34571E-08  1.18040E-08  9.76674E-09  7.71415E-09  6.11040E-09  4.39299E-09  2.13939E-09  9.03578E-10 -4.64188E-10
  -1.85855E-09 -2.65198E-09 -3.32359E-09 -3.99269E-09 -3.74691E-09 -4.21947E-09 -3.92673E-09 -2.93683E-09 -2.80639E-09 -2.45073E-09
  -1.69960E-09 -1.31078E-09 -8.48352E-10 -1.63053E-09 -7.70539E-10 -4.69697E-10 -5.91181E-10 -7.90509E-10 -2.98091E-10 -8.54945E-10
  -2.67918E-10 -1.02590E-09 -1.88304E-10 -8.80221E-10 -1.96128E-10 -1.88987E-10  2.38104E-10 -2.70160E-10 -3.86779E-10 -8.49403E-10
  -1.39297E-11 -7.09089E-10  2.76688E-10 -5.28705E-10 -1.99214E-10 -1.12219E-09 -3.63185E-11  1.59050E-10  2.51259E-10 -4.87388E-10
   2.37524E-11 -5.15927E-10  4.43595E-12 -1.07438E-09 -2.96067E-10 -7.18699E-10 -5.53235E-10 -9.28156E-10 -6.36438E-10 -1.07410E-09
  -1.51665E-10 -7.54714E-10  4.46973E-11 -4.97035E-10  3.45245E-10 -6.33767E-10  6.41804E-10 -8.29101E-10  5.31083E-10 -5.82051E-10
   5.57182E-10 -8.46143E-10  5.27041E-10 -5.40021E-10  1.15697E-10 -7.74693E-10 -3.87414E-10 -1.16285E-09 -7.19201E-10 -1.71057E-09
  -1.06793E-09 -1.83098E-09 -1.07871E-09 -2.07564E-09 -8.80669E-10 -1.99754E-09 -6.02879E-10 -1.25618E-09  1.40743E-12 -1.11162E-09
   1.18001E-10 -3.71273E-10  7.39618E-10 -3.29133E-10  6.84507E-10 -1.75068E-10  6.58766E-10 -4.81525E-10  8.05393E-10  7.93721E-11
   8.55441E-10 -8.86861E-11  6.12069E-10  8.70460E-11  3.88850E-10  3.72763E-10  8.85173E-10 -5.72357E-10  1.08150E-09  1.49707E-10
   5.67915E-10 -3.10130E-11  7.03723E-10 -1.09988E-11  7.83401E-10 -1.25296E-10  1.13839E-09 -3.69357E-11  4.79600E-10 -1.42324E-10
   6.58256E-10 -1.52079E-10  6.94984E-10 -1.93763E-10  7.11965E-10 -6.45791E-11  4.32243E-10 -1.02349E-10  5.65722E-10  7.37050E-11
   3.84521E-10 -2.47222E-10  5.21761E-10 -5.99430E-10  7.89740E-10  3.16039E-11  5.56930E-10 -2.68667E-10  2.19438E-10 -1.07141E-10
   6.48677E-10 -3.40601E-10  5.32445E-10 -5.20670E-10  7.09000E-10 -1.67742E-10  8.90911E-10 -2.21202E-10  2.67647E-10 -2.07670E-10
   2.07587E-10  3.76410E-11  5.19125E-10 -9.60967E-11  7.25405E-10 -4.65460E-10  3.48238E-10 -6.62965E-10  3.52173E-10 -2.41921E-10
   3.28760E-10 -4.11766E-10  1.73048E-10 -2.38226E-10  5.87391E-10 -9.38810E-10  7.78630E-10 -3.95376E-10  3.48259E-10 -6.92590E-10
   2.83482E-10 -6.77422E-10 -6.00178E-11 -7.38029E-10  2.66252E-10  3.37885E-10  2.14961E-11 -4.84083E-10  5.23863E-10 -5.75648E-10
   3.19019E-10 -7.65369E-10  8.17375E-11
 NY points of the fit to the data follow
   1.23614E-08  1.20803E-08  1.09872E-08  1.12127E-08  1.17899E-08  1.13290E-08  1.07056E-08  1.18361E-08  1.12324E-08  1.09626E-08
   9.14981E-09  9.15567E-09  9.33025E-09  1.07871E-08  1.19223E-08  1.12859E-08  1.07453E-08  1.14444E-08  1.18499E-08  1.12559E-08
   1.10491E-08  1.18317E-08  1.20720E-08  1.39154E-08  1.23972E-08  1.18422E-08  1.08647E-08  1.07559E-08  1.07135E-08  1.10397E-08
   1.06910E-08  1.07763E-08  1.04574E-08  1.10085E-08  8.87407E-09  8.47895E-09  8.12684E-09  7.82033E-09  7.21817E-09  7.66476E-09
   7.26442E-09  6.69875E-09  7.48236E-09  7.64496E-09  7.41328E-09  8.05123E-09  8.45457E-09  7.52496E-09  7.06388E-09  8.27049E-09
   7.71449E-09  7.60556E-09  8.13754E-09  8.59121E-09  8.70011E-09  8.67485E-09  8.87835E-09  7.59590E-09  7.39340E-09  8.07985E-09
   7.75429E-09  7.34398E-09  7.73012E-09  7.03406E-09  7.79378E-09  8.36117E-09  8.01769E-09  7.91972E-09  8.26437E-09  8.24153E-09
   9.08287E-09  9.32976E-09  9.53162E-09  9.09427E-09  9.57737E-09  1.27790E-08  1.26174E-08  1.13354E-08  1.21376E-08  1.22204E-08
   1.22991E-08  1.17837E-08  1.12723E-08  1.19115E-08  1.11996E-08  1.19923E-08  1.16831E-08  8.80002E-09  7.98445E-09  7.86957E-09
   7.76353E-09  7.41032E-09  7.16768E-09  7.66557E-09  7.06628E-09  6.64224E-09  7.03082E-09  6.64018E-09  6.40760E-09  6.45933E-09
   6.46281E-09  6.16816E-09  6.21724E-09  6.39414E-09  6.24430E-09  6.22259E-09  6.22521E-09  6.24185E-09  6.22238E-09  6.20021E-09
   6.30564E-09  5.98331E-09  5.94824E-09  6.11354E-09  5.86374E-09  5.77861E-09  5.74274E-09  5.72359E-09  5.71184E-09  5.70389E-09
   5.69789E-09  5.69291E-09  5.68839E-09  5.68393E-09  5.67921E-09  5.67404E-09  5.66830E-09  5.66180E-09  5.65444E-09  5.64617E-09
   5.63688E-09  5.62651E-09  5.61502E-09  5.60235E-09  5.58847E-09  5.57333E-09  5.55690E-09  5.53916E-09  5.52009E-09  5.49967E-09
   5.47789E-09  5.45475E-09  5.43027E-09  5.40445E-09  5.37732E-09  5.34890E-09  5.31926E-09  5.28847E-09  5.25664E-09  5.22389E-09
   5.19041E-09  5.15642E-09  5.12225E-09  5.08832E-09  5.05522E-09  5.02378E-09  4.99521E-09  4.97130E-09  4.95483E-09  4.95014E-09
   4.96453E-09  5.01111E-09  5.11611E-09  5.33968E-09  5.85180E-09  7.32135E-09  1.35778E-08  1.92069E-08  1.82185E-08  1.76150E-08
   1.86742E-08  1.90932E-08  1.89737E-08  1.91697E-08  1.97657E-08  1.94625E-08  2.10005E-08  2.01994E-08  1.21668E-08  6.26162E-09
   4.66790E-09  3.99775E-09  3.61467E-09  3.35331E-09  3.15379E-09  2.98967E-09  2.84754E-09  2.71997E-09  2.60260E-09  2.49264E-09
   2.38828E-09  2.28834E-09  2.19197E-09  2.09862E-09  2.00784E-09  1.91936E-09  1.83296E-09  1.74853E-09  1.66592E-09  1.58512E-09
   1.50606E-09  1.42873E-09  1.35314E-09  1.27930E-09  1.20722E-09  1.13695E-09  1.06853E-09  1.00197E-09  9.37331E-10  8.74565E-10
   8.13641E-10  7.54516E-10  6.97159E-10  6.41537E-10  5.87621E-10  5.35372E-10  4.84775E-10  4.35800E-10  3.88414E-10  3.42591E-10
   2.98322E-10  2.55566E-10  2.14303E-10  1.74516E-10  1.36172E-10  9.92559E-11  6.37543E-11  2.96219E-11 -3.15675E-12 -3.45849E-11
  -6.46942E-11 -9.35127E-11 -1.21050E-10 -1.47340E-10 -1.72392E-10 -1.96238E-10 -2.18893E-10 -2.40369E-10 -2.60697E-10 -2.79893E-10
  -2.97976E-10 -3.14966E-10 -3.30886E-10 -3.45758E-10 -3.59595E-10 -3.72419E-10 -3.84258E-10 -3.95135E-10 -4.05042E-10 -4.14013E-10
  -4.22079E-10 -4.29257E-10 -4.35557E-10 -4.40993E-10 -4.45615E-10 -4.49407E-10 -4.52408E-10 -4.54628E-10 -4.56098E-10 -4.56836E-10
  -4.56850E-10 -4.56169E-10 -4.54817E-10 -4.52814E-10 -4.50183E-10 -4.46946E-10 -4.43124E-10 -4.38740E-10 -4.33817E-10 -4.28375E-10
  -4.22437E-10 -4.16024E-10 -4.09159E-10 -4.01864E-10 -3.94160E-10 -3.86069E-10 -3.77614E-10 -3.68815E-10 -3.59696E-10 -3.50278E-10
  -3.40581E-10 -3.30631E-10 -3.20445E-10 -3.10047E-10 -2.99461E-10 -2.88705E-10 -2.77803E-10 -2.66775E-10 -2.55646E-10 -2.44434E-10
  -2.33163E-10 -2.21853E-10 -2.10527E-10 -1.99207E-10 -1.87913E-10 -1.76670E-10 -1.65495E-10 -1.54411E-10 -1.43442E-10 -1.32608E-10
  -1.21933E-10 -1.11432E-10 -1.01132E-10 -9.10534E-11 -8.12172E-11 -7.16470E-11 -6.23622E-11 -5.33832E-11 -4.47351E-11 -3.64349E-11
  -2.85076E-11 -2.09728E-11 -1.38298E-11 -7.06818E-12 -6.79234E-13  5.34600E-12  1.10191E-11  1.63501E-11  2.13467E-11  2.60205E-11
   3.03784E-11  3.44351E-11  3.81970E-11  4.16742E-11  4.48761E-11  4.78136E-11  5.04967E-11  5.29343E-11  5.51369E-11  5.71146E-11
   5.88735E-11  6.04269E-11  6.17871E-11  6.29564E-11  6.39508E-11  6.47790E-11  6.54470E-11  6.59685E-11  6.63527E-11  6.66088E-11
   6.67452E-11  6.67735E-11  6.67021E-11  6.65413E-11  6.63026E-11  6.59933E-11  6.56208E-11  6.52009E-11  6.47384E-11  6.42475E-11
   6.37312E-11  6.32054E-11  6.26754E-11  6.21543E-11  6.16525E-11  6.11727E-11  6.07287E-11  6.03368E-11  5.99949E-11  5.97196E-11
   5.95191E-11  5.94025E-11  5.93810E-11
 NY background values follow
    -2.884E-09   -2.810E-09   -2.736E-09   -2.662E-09   -2.588E-09   -2.514E-09   -2.439E-09   -2.365E-09   -2.290E-09   -2.216E-09
    -2.141E-09   -2.067E-09   -1.992E-09   -1.918E-09   -1.843E-09   -1.768E-09   -1.694E-09   -1.619E-09   -1.545E-09   -1.470E-09
    -1.395E-09   -1.321E-09   -1.246E-09   -1.172E-09   -1.097E-09   -1.023E-09   -9.484E-10   -8.741E-10   -7.998E-10   -7.256E-10
    -6.515E-10   -5.775E-10   -5.035E-10   -4.296E-10   -3.558E-10   -2.821E-10   -2.086E-10   -1.351E-10   -6.173E-11    1.148E-11
     8.460E-11    1.576E-10    2.304E-10    3.031E-10    3.757E-10    4.481E-10    5.203E-10    5.924E-10    6.643E-10    7.360E-10
     8.075E-10    8.789E-10    9.501E-10    1.021E-09    1.092E-09    1.162E-09    1.233E-09    1.302E-09    1.372E-09    1.442E-09
     1.511E-09    1.579E-09    1.648E-09    1.716E-09    1.783E-09    1.850E-09    1.917E-09    1.983E-09    2.049E-09    2.114E-09
     2.179E-09    2.243E-09    2.307E-09    2.370E-09    2.433E-09    2.495E-09    2.556E-09    2.617E-09    2.677E-09    2.737E-09
     2.795E-09    2.853E-09    2.911E-09    2.967E-09    3.023E-09    3.078E-09    3.132E-09    3.186E-09    3.239E-09    3.290E-09
     3.341E-09    3.391E-09    3.440E-09    3.488E-09    3.536E-09    3.582E-09    3.627E-09    3.672E-09    3.715E-09    3.757E-09
     3.799E-09    3.839E-09    3.878E-09    3.916E-09    3.953E-09    3.988E-09    4.023E-09    4.056E-09    4.089E-09    4.120E-09
     4.149E-09    4.178E-09    4.205E-09    4.231E-09    4.256E-09    4.279E-09    4.301E-09    4.321E-09    4.340E-09    4.358E-09
     4.374E-09    4.389E-09    4.402E-09    4.414E-09    4.424E-09    4.433E-09    4.440E-09    4.445E-09    4.449E-09    4.451E-09
     4.452E-09    4.451E-09    4.448E-09    4.443E-09    4.437E-09    4.429E-09    4.419E-09    4.408E-09    4.394E-09    4.379E-09
     4.362E-09    4.343E-09    4.322E-09    4.299E-09    4.275E-09    4.248E-09    4.219E-09    4.188E-09    4.156E-09    4.121E-09
     4.084E-09    4.045E-09    4.004E-09    3.961E-09    3.916E-09    3.868E-09    3.819E-09    3.767E-09    3.713E-09    3.657E-09
     3.600E-09    3.540E-09    3.479E-09    3.416E-09    3.351E-09    3.285E-09    3.218E-09    3.149E-09    3.078E-09    3.007E-09
     2.934E-09    2.861E-09    2.786E-09    2.711E-09    2.634E-09    2.557E-09    2.479E-09    2.400E-09    2.321E-09    2.242E-09
     2.162E-09    2.082E-09    2.001E-09    1.920E-09    1.840E-09    1.759E-09    1.678E-09    1.597E-09    1.517E-09    1.437E-09
     1.357E-09    1.277E-09    1.199E-09    1.120E-09    1.043E-09    9.658E-10    8.897E-10    8.144E-10    7.401E-10    6.669E-10
     5.948E-10    5.238E-10    4.541E-10    3.857E-10    3.187E-10    2.532E-10    1.893E-10    1.270E-10    6.635E-11    7.391E-12
    -4.991E-11   -1.056E-10   -1.596E-10   -2.121E-10   -2.630E-10   -3.123E-10   -3.601E-10   -4.063E-10   -4.511E-10   -4.944E-10
    -5.362E-10   -5.766E-10   -6.155E-10   -6.530E-10   -6.892E-10   -7.240E-10   -7.574E-10   -7.895E-10   -8.203E-10   -8.498E-10
    -8.780E-10   -9.050E-10   -9.307E-10   -9.552E-10   -9.785E-10   -1.001E-09   -1.022E-09   -1.041E-09   -1.060E-09   -1.078E-09
    -1.094E-09   -1.110E-09   -1.124E-09   -1.138E-09   -1.150E-09   -1.161E-09   -1.172E-09   -1.181E-09   -1.190E-09   -1.197E-09
    -1.204E-09   -1.210E-09   -1.215E-09   -1.219E-09   -1.223E-09   -1.225E-09   -1.227E-09   -1.228E-09   -1.228E-09   -1.228E-09
    -1.227E-09   -1.225E-09   -1.222E-09   -1.219E-09   -1.215E-09   -1.211E-09   -1.206E-09   -1.201E-09   -1.195E-09   -1.188E-09
    -1.181E-09   -1.174E-09   -1.166E-09   -1.158E-09   -1.149E-09   -1.140E-09   -1.130E-09   -1.121E-09   -1.111E-09   -1.100E-09
    -1.090E-09   -1.079E-09   -1.068E-09   -1.056E-09   -1.045E-09   -1.033E-09   -1.021E-09   -1.009E-09   -9.974E-10   -9.853E-10
    -9.732E-10   -9.610E-10   -9.489E-10   -9.367E-10   -9.246E-10   -9.126E-10   -9.006E-10   -8.887E-10   -8.769E-10   -8.653E-10
    -8.538E-10   -8.425E-10   -8.315E-10   -8.206E-10   -8.100E-10   -7.997E-10   -7.897E-10   -7.799E-10   -7.706E-10   -7.615E-10
    -7.529E-10   -7.446E-10   -7.368E-10   -7.293E-10   -7.222E-10   -7.155E-10   -7.091E-10   -7.031E-10   -6.974E-10   -6.920E-10
    -6.870E-10   -6.822E-10   -6.778E-10   -6.737E-10   -6.698E-10   -6.662E-10   -6.629E-10   -6.598E-10   -6.569E-10   -6.543E-10
    -6.519E-10   -6.497E-10   -6.477E-10   -6.459E-10   -6.443E-10   -6.428E-10   -6.415E-10   -6.404E-10   -6.394E-10   -6.385E-10
    -6.378E-10   -6.372E-10   -6.366E-10   -6.362E-10   -6.358E-10   -6.355E-10   -6.353E-10   -6.351E-10   -6.350E-10   -6.349E-10
    -6.349E-10   -6.348E-10   -6.347E-10   -6.347E-10   -6.346E-10   -6.345E-10   -6.344E-10   -6.342E-10   -6.340E-10   -6.337E-10
    -6.333E-10   -6.329E-10   -6.323E-10
 Ala      Conc. = 1.51E-10
  -2.77222E-09 -2.72329E-09 -2.63694E-09 -2.54500E-09 -2.46769E-09 -2.41565E-09 -2.32314E-09 -2.23320E-09 -2.21950E-09 -2.12802E-09
  -2.03231E-09 -2.00811E-09 -1.93749E-09 -1.86030E-09 -1.79973E-09 -1.73348E-09 -1.66429E-09 -1.59348E-09 -1.52172E-09 -1.44932E-09
  -1.37650E-09 -1.30338E-09 -1.23004E-09 -1.15654E-09 -1.08296E-09 -1.00929E-09 -9.35581E-10 -8.61846E-10 -7.88116E-10 -7.14390E-10
  -6.40675E-10 -5.67025E-10 -4.93406E-10 -4.19851E-10 -3.46359E-10 -2.72951E-10 -1.99628E-10 -1.26380E-10 -5.32457E-11  1.97640E-11
   9.26901E-11  1.65500E-10  2.38165E-10  3.10693E-10  3.83094E-10  4.55338E-10  5.27445E-10  5.99386E-10  6.71157E-10  7.42744E-10
   8.14184E-10  8.85437E-10  9.56505E-10  1.02737E-09  1.09801E-09  1.16842E-09  1.23858E-09  1.30848E-09  1.37808E-09  1.44738E-09
   1.51636E-09  1.58499E-09  1.65327E-09  1.72117E-09  1.78867E-09  1.85577E-09  1.92243E-09  1.98864E-09  2.05439E-09  2.11965E-09
   2.18442E-09  2.24866E-09  2.31237E-09  2.37553E-09  2.43812E-09  2.50013E-09  2.56152E-09  2.62230E-09  2.68246E-09  2.74196E-09
   2.80079E-09  2.85895E-09  2.91643E-09  2.97321E-09  3.02927E-09  3.08463E-09  3.13927E-09  3.19322E-09  3.24647E-09  3.29905E-09
   3.35102E-09  3.40244E-09  3.45347E-09  3.50431E-09  3.55536E-09  3.60741E-09  3.66200E-09  3.72295E-09  3.80185E-09  3.94847E-09
   4.19457E-09  4.03033E-09  4.19565E-09  4.48697E-09  4.42846E-09  4.47882E-09  4.54312E-09  4.61076E-09  4.63673E-09  4.65530E-09
   4.79642E-09  4.50643E-09  4.50075E-09  4.69289E-09  4.46778E-09  4.40559E-09  4.39063E-09  4.39093E-09  4.39734E-09  4.40632E-09
   4.41623E-09  4.42620E-09  4.43572E-09  4.44447E-09  4.45223E-09  4.45885E-09  4.46422E-09  4.46824E-09  4.47084E-09  4.47198E-09
   4.47160E-09  4.46965E-09  4.46611E-09  4.46092E-09  4.45407E-09  4.44552E-09  4.43525E-09  4.42322E-09  4.40941E-09  4.39380E-09
   4.37636E-09  4.35707E-09  4.33591E-09  4.31285E-09  4.28788E-09  4.26096E-09  4.23208E-09  4.20122E-09  4.16835E-09  4.13347E-09
   4.09654E-09  4.05755E-09  4.01649E-09  3.97333E-09  3.92807E-09  3.88069E-09  3.83120E-09  3.77967E-09  3.72620E-09  3.67093E-09
   3.61402E-09  3.55569E-09  3.49635E-09  3.43676E-09  3.37896E-09  3.33004E-09  3.33013E-09  3.42835E-09  3.25185E-09  3.21094E-09
   3.14464E-09  3.08794E-09  3.00058E-09  2.93589E-09  2.86561E-09  2.79704E-09  2.70341E-09  2.71007E-09  2.41750E-09  2.28710E-09
   2.19155E-09  2.10432E-09  2.01998E-09  1.93692E-09  1.85451E-09  1.77255E-09  1.69092E-09  1.60960E-09  1.52863E-09  1.44803E-09
   1.36785E-09  1.28817E-09  1.20902E-09  1.13051E-09  1.05266E-09  9.75563E-10  8.99288E-10  8.23920E-10  7.49505E-10  6.76139E-10
   6.03888E-10  5.32824E-10  4.63024E-10  3.94557E-10  3.27501E-10  2.61924E-10  1.97923E-10  1.35532E-10  7.48423E-11  1.58218E-11
  -4.15392E-11 -9.72652E-11 -1.51370E-10 -2.03879E-10 -2.54806E-10 -3.04177E-10 -3.52002E-10 -3.98302E-10 -4.43105E-10 -4.86426E-10
  -5.28273E-10 -5.68678E-10 -6.07657E-10 -6.45226E-10 -6.81408E-10 -7.16221E-10 -7.49671E-10 -7.81802E-10 -8.12627E-10 -8.42145E-10
  -8.70387E-10 -8.97379E-10 -9.23128E-10 -9.47666E-10 -9.71000E-10 -9.93162E-10 -1.01417E-09 -1.03402E-09 -1.05276E-09 -1.07039E-09
  -1.08694E-09 -1.10241E-09 -1.11685E-09 -1.13026E-09 -1.14266E-09 -1.15407E-09 -1.16451E-09 -1.17402E-09 -1.18257E-09 -1.19021E-09
  -1.19696E-09 -1.20284E-09 -1.20787E-09 -1.21204E-09 -1.21542E-09 -1.21798E-09 -1.21978E-09 -1.22080E-09 -1.22109E-09 -1.22066E-09
  -1.21953E-09 -1.21771E-09 -1.21523E-09 -1.21212E-09 -1.20839E-09 -1.20407E-09 -1.19917E-09 -1.19373E-09 -1.18776E-09 -1.18128E-09
  -1.17432E-09 -1.16689E-09 -1.15902E-09 -1.15073E-09 -1.14204E-09 -1.13298E-09 -1.12356E-09 -1.11381E-09 -1.10375E-09 -1.09340E-09
  -1.08277E-09 -1.07191E-09 -1.06081E-09 -1.04952E-09 -1.03804E-09 -1.02640E-09 -1.01462E-09 -1.00273E-09 -9.90741E-10 -9.78678E-10
  -9.66564E-10 -9.54417E-10 -9.42262E-10 -9.30120E-10 -9.18011E-10 -9.05958E-10 -8.93982E-10 -8.82104E-10 -8.70345E-10 -8.58729E-10
  -8.47277E-10 -8.36006E-10 -8.24943E-10 -8.14106E-10 -8.03518E-10 -7.93201E-10 -7.83175E-10 -7.73460E-10 -7.64082E-10 -7.55056E-10
  -7.46409E-10 -7.38160E-10 -7.30307E-10 -7.22841E-10 -7.15751E-10 -7.09029E-10 -7.02664E-10 -6.96647E-10 -6.90969E-10 -6.85618E-10
  -6.80587E-10 -6.75861E-10 -6.71434E-10 -6.67296E-10 -6.63437E-10 -6.59847E-10 -6.56515E-10 -6.53433E-10 -6.50589E-10 -6.47974E-10
  -6.45580E-10 -6.43396E-10 -6.41408E-10 -6.39615E-10 -6.37999E-10 -6.36553E-10 -6.35271E-10 -6.34138E-10 -6.33145E-10 -6.32283E-10
  -6.31544E-10 -6.30916E-10 -6.30390E-10 -6.29957E-10 -6.29603E-10 -6.29323E-10 -6.29108E-10 -6.28944E-10 -6.28824E-10 -6.28735E-10
  -6.28674E-10 -6.28624E-10 -6.28581E-10 -6.28530E-10 -6.28462E-10 -6.28374E-10 -6.28253E-10 -6.28081E-10 -6.27860E-10 -6.27575E-10
  -6.27216E-10 -6.26775E-10 -6.26241E-10
 Asp      Conc. = 2.69E-09
  -1.08463E-10  4.08979E-10 -4.65713E-10 -1.69043E-10 -6.62284E-10 -7.95601E-10 -7.79537E-10 -1.11044E-09 -1.48957E-09 -1.62846E-09
  -1.67653E-09 -1.68266E-09 -1.66271E-09 -1.63686E-09 -1.58694E-09 -1.53325E-09 -1.47686E-09 -1.41747E-09 -1.35549E-09 -1.29131E-09
  -1.22525E-09 -1.15753E-09 -1.08830E-09 -1.01764E-09 -9.45578E-10 -8.72048E-10 -7.96932E-10 -7.19996E-10 -6.40901E-10 -5.59093E-10
  -4.73731E-10 -3.83548E-10 -2.86320E-10 -1.78180E-10 -5.13544E-11  1.12525E-10  3.69082E-10  8.08229E-10  7.37779E-10  1.17519E-09
   9.52450E-10  1.15750E-09  1.33369E-09  2.06682E-09  2.47364E-09  3.71627E-09  4.00121E-09  3.66647E-09  3.47773E-09  4.98018E-09
   4.15961E-09  4.42367E-09  5.02894E-09  5.39189E-09  4.92851E-09  5.28705E-09  4.97127E-09  3.60835E-09  3.33856E-09  4.36256E-09
   3.50400E-09  3.06494E-09  3.27308E-09  2.90431E-09  2.72813E-09  2.89750E-09  3.13265E-09  2.92036E-09  2.82604E-09  2.78809E-09
   2.77908E-09  2.78713E-09  2.80622E-09  2.83287E-09  2.86494E-09  2.90097E-09  2.93997E-09  2.98120E-09  3.02412E-09  3.06830E-09
   3.11341E-09  3.15919E-09  3.20543E-09  3.25193E-09  3.29854E-09  3.34515E-09  3.39164E-09  3.43791E-09  3.48389E-09  3.52949E-09
   3.57464E-09  3.61930E-09  3.66340E-09  3.70689E-09  3.74972E-09  3.79187E-09  3.83327E-09  3.87391E-09  3.91372E-09  3.95270E-09
   3.99079E-09  4.02799E-09  4.06424E-09  4.09953E-09  4.13385E-09  4.16713E-09  4.19936E-09  4.23052E-09  4.26058E-09  4.28950E-09
   4.31727E-09  4.34387E-09  4.36926E-09  4.39341E-09  4.41632E-09  4.43794E-09  4.45826E-09  4.47725E-09  4.49490E-09  4.51117E-09
   4.52604E-09  4.53950E-09  4.55151E-09  4.56206E-09  4.57113E-09  4.57869E-09  4.58472E-09  4.58920E-09  4.59211E-09  4.59343E-09
   4.59314E-09  4.59121E-09  4.58763E-09  4.58237E-09  4.57543E-09  4.56676E-09  4.55637E-09  4.54423E-09  4.53032E-09  4.51463E-09
   4.49713E-09  4.47782E-09  4.45668E-09  4.43370E-09  4.40886E-09  4.38215E-09  4.35358E-09  4.32313E-09  4.29081E-09  4.25662E-09
   4.22058E-09  4.18272E-09  4.14306E-09  4.10167E-09  4.05863E-09  4.01405E-09  3.96813E-09  3.92118E-09  3.87370E-09  3.82640E-09
   3.78037E-09  3.73741E-09  3.70077E-09  3.67689E-09  3.68061E-09  3.75343E-09  4.05428E-09  5.54106E-09  7.67733E-09  6.03851E-09
   6.47491E-09  6.54456E-09  6.68726E-09  6.44639E-09  6.55098E-09  6.60809E-09  6.55535E-09  6.57943E-09  7.19999E-09  3.72049E-09
   2.88490E-09  2.55592E-09  2.36039E-09  2.21540E-09  2.09420E-09  1.98595E-09  1.88546E-09  1.79001E-09  1.69812E-09  1.60885E-09
   1.52163E-09  1.43613E-09  1.35209E-09  1.26942E-09  1.18799E-09  1.10779E-09  1.02878E-09  9.50996E-10  8.74425E-10  7.99128E-10
   7.25132E-10  6.52482E-10  5.81237E-10  5.11445E-10  4.43168E-10  3.76464E-10  3.11416E-10  2.48049E-10  1.86449E-10  1.26577E-10
   6.84134E-11  1.19323E-11 -4.28856E-11 -9.60693E-11 -1.47635E-10 -1.97614E-10 -2.46019E-10 -2.92872E-10 -3.38203E-10 -3.82029E-10
  -4.24360E-10 -4.65231E-10 -5.04657E-10 -5.42657E-10 -5.79254E-10 -6.14467E-10 -6.48304E-10 -6.80809E-10 -7.11996E-10 -7.41864E-10
