 LCModel (Version 6.3-1R) Copyright: S.W. Provencher.          Ref.: Magn. Reson. Med. 30:672-679 (1993).                
 onepulse 26x16_ftSpec_smooth_lcm
 26 lines in following concentration table = NCONC+1
    Conc.  %SD /Cr+PCr  Metabolite                                         
    0.000 999%   0.000 Ala                                                 
    0.000 999%   0.000 Asp                                                 
    0.000 999%   0.000 Cr                                                  
    0.000 999%   0.000 GABA                                                
 4.75E-12 999% 2.5E-02 Glc                                                 
 1.94E-09  35%  10.069 Gln                                                 
    0.000 999%   0.000 Glu                                                 
    0.000 999%   0.000 Glyc                                                
 1.61E-10  96%   0.837 GPC                                                 
    0.000 999%   0.000 GSH                                                 
 1.22E-09  44%   6.340 Ins                                                 
    0.000 999%   0.000 Lac                                                 
 1.74E-10 229%   0.903 NAAG                                                
 3.90E-10 136%   2.026 NAA                                                 
    0.000 999%   0.000 PCh                                                 
 1.93E-10 148%   1.000 PCr                                                 
    0.000 999%   0.000 PE                                                  
 1.18E-10 271%   0.612 Scyllo                                              
 4.35E-09  23%  22.583 Ser                                                 
 5.47E-10 218%   2.840 Tau                                                 
 1.61E-10  96%   0.837 GPC+PCh                                             
 5.64E-10  58%   2.928 NAA+NAAG                                            
 1.22E-09  44%   6.340 Ins+Glyc                                            
 1.93E-10 148%   1.000 Cr+PCr                                              
 1.94E-09  35%  10.069 Glu+Gln                                             
   6 lines in following misc. output table
  FWHM = 0.101 ppm    S/N =   3                                            
  Data shift = 0.369 ppm                                                   
  Ph: -34 deg     -30.5 deg/ppm                                            
  alphaB,S = 8.8E-01,   5.3E+01                                            
    8 spline knots.   Ns = 5(1)                                            
  ( 5) 2 infls.   ( 3) 1 extrs.                                            
  363 points on ppm-axis = NY
      4.250000     4.238821     4.227641     4.216462     4.205282     4.194103     4.182923     4.171744     4.160564     4.149385
      4.138206     4.127026     4.115847     4.104667     4.093488     4.082308     4.071129     4.059949     4.048770     4.037591
      4.026411     4.015232     4.004052     3.992873     3.981693     3.970514     3.959334     3.948155     3.936975     3.925796
      3.914617     3.903437     3.892258     3.881078     3.869899     3.858719     3.847540     3.836360     3.825181     3.814002
      3.802822     3.791643     3.780463     3.769284     3.758104     3.746925     3.735745     3.724566     3.713387     3.702207
      3.691028     3.679848     3.668669     3.657489     3.646310     3.635130     3.623951     3.612772     3.601592     3.590413
      3.579233     3.568054     3.556874     3.545695     3.534515     3.523336     3.512156     3.500977     3.489798     3.478618
      3.467439     3.456259     3.445080     3.433900     3.422721     3.411541     3.400362     3.389183     3.378003     3.366824
      3.355644     3.344465     3.333285     3.322106     3.310926     3.299747     3.288568     3.277388     3.266209     3.255029
      3.243850     3.232670     3.221491     3.210311     3.199132     3.187953     3.176773     3.165594     3.154414     3.143235
      3.132055     3.120876     3.109696     3.098517     3.087337     3.076158     3.064979     3.053799     3.042620     3.031440
      3.020261     3.009081     2.997902     2.986722     2.975543     2.964364     2.953184     2.942005     2.930825     2.919646
      2.908466     2.897287     2.886107     2.874928     2.863749     2.852569     2.841390     2.830210     2.819031     2.807851
      2.796672     2.785492     2.774313     2.763134     2.751954     2.740775     2.729595     2.718416     2.707236     2.696057
      2.684877     2.673698     2.662519     2.651339     2.640160     2.628980     2.617801     2.606621     2.595442     2.584262
      2.573083     2.561903     2.550724     2.539545     2.528365     2.517186     2.506006     2.494827     2.483647     2.472468
      2.461288     2.450109     2.438930     2.427750     2.416571     2.405391     2.394212     2.383032     2.371853     2.360673
      2.349494     2.338315     2.327135     2.315956     2.304776     2.293597     2.282417     2.271238     2.260058     2.248879
      2.237700     2.226520     2.215341     2.204161     2.192982     2.181802     2.170623     2.159443     2.148264     2.137084
      2.125905     2.114726     2.103546     2.092367     2.081187     2.070008     2.058828     2.047649     2.036469     2.025290
      2.014111     2.002931     1.991752     1.980572     1.969393     1.958213     1.947034     1.935854     1.924675     1.913496
      1.902316     1.891137     1.879957     1.868778     1.857598     1.846419     1.835239     1.824060     1.812881     1.801701
      1.790522     1.779342     1.768163     1.756983     1.745804     1.734624     1.723445     1.712265     1.701086     1.689907
      1.678727     1.667548     1.656368     1.645189     1.634009     1.622830     1.611650     1.600471     1.589292     1.578112
      1.566933     1.555753     1.544574     1.533394     1.522215     1.511035     1.499856     1.488677     1.477497     1.466318
      1.455138     1.443959     1.432779     1.421600     1.410420     1.399241     1.388062     1.376882     1.365703     1.354523
      1.343344     1.332164     1.320985     1.309805     1.298626     1.287446     1.276267     1.265088     1.253908     1.242729
      1.231549     1.220370     1.209190     1.198011     1.186831     1.175652     1.164473     1.153293     1.142114     1.130934
      1.119755     1.108575     1.097396     1.086216     1.075037     1.063858     1.052678     1.041499     1.030319     1.019140
      1.007960     0.996781     0.985601     0.974422     0.963243     0.952063     0.940884     0.929704     0.918525     0.907345
      0.896166     0.884986     0.873807     0.862628     0.851448     0.840269     0.829089     0.817910     0.806730     0.795551
      0.784371     0.773192     0.762012     0.750833     0.739654     0.728474     0.717295     0.706115     0.694936     0.683756
      0.672577     0.661397     0.650218     0.639039     0.627859     0.616680     0.605500     0.594321     0.583141     0.571962
      0.560782     0.549603     0.538424     0.527244     0.516065     0.504885     0.493706     0.482526     0.471347     0.460167
      0.448988     0.437809     0.426629     0.415450     0.404270     0.393091     0.381911     0.370732     0.359552     0.348373
      0.337193     0.326014     0.314835     0.303655     0.292476     0.281296     0.270117     0.258937     0.247758     0.236578
      0.225399     0.214220     0.203040
 NY phased data points follow
   1.35515E-08  1.34248E-08  1.25620E-08  1.24956E-08  1.09562E-08  1.08716E-08  1.01999E-08  1.01203E-08  9.80110E-09  9.78697E-09
   9.46899E-09  1.07820E-08  9.92182E-09  1.09021E-08  1.11510E-08  1.07190E-08  1.05691E-08  1.06738E-08  1.08508E-08  1.09335E-08
   9.84778E-09  9.97716E-09  9.48465E-09  1.05951E-08  1.13992E-08  1.12270E-08  1.05081E-08  1.00794E-08  1.02054E-08  1.07172E-08
   1.16817E-08  1.37903E-08  1.40004E-08  1.37094E-08  1.32274E-08  1.24503E-08  1.09503E-08  1.10101E-08  1.10290E-08  1.04059E-08
   9.82020E-09  9.65866E-09  9.49938E-09  8.75837E-09  8.68800E-09  8.60990E-09  7.72449E-09  7.80933E-09  7.12646E-09  7.50249E-09
   7.60711E-09  7.08007E-09  7.10902E-09  6.58114E-09  5.45494E-09  5.91068E-09  5.68445E-09  5.51276E-09  5.16052E-09  5.16888E-09
   6.59813E-09  8.83538E-09  1.19802E-08  1.36432E-08  1.26594E-08  1.23725E-08  1.07662E-08  1.05440E-08  9.05408E-09  9.14441E-09
   7.74317E-09  7.58507E-09  6.50248E-09  6.34248E-09  5.74751E-09  5.03654E-09  5.65912E-09  8.58365E-09  1.14497E-08  1.37347E-08
   1.44502E-08  1.46446E-08  1.43146E-08  1.42042E-08  1.34268E-08  1.30727E-08  1.26438E-08  1.24503E-08  1.18984E-08  1.20992E-08
   1.09809E-08  1.07454E-08  1.05506E-08  9.66456E-09  9.78196E-09  8.93099E-09  9.35893E-09  9.28853E-09  8.30297E-09  8.68793E-09
   8.25674E-09  8.12714E-09  8.81701E-09  7.67059E-09  8.10614E-09  8.26244E-09  6.94824E-09  6.66096E-09  6.30787E-09  5.88399E-09
   5.48383E-09  5.97308E-09  5.98597E-09  6.20978E-09  5.82941E-09  6.19415E-09  5.83408E-09  7.00847E-09  7.00144E-09  7.25912E-09
   6.48832E-09  6.65137E-09  5.86406E-09  5.69408E-09  4.46895E-09  4.85093E-09  4.49682E-09  5.62926E-09  5.12646E-09  5.33199E-09
   4.47576E-09  5.05673E-09  4.79586E-09  4.34870E-09  4.33979E-09  4.73424E-09  3.88537E-09  4.09074E-09  5.14491E-09  5.52191E-09
   6.16911E-09  5.58088E-09  6.09284E-09  6.12838E-09  6.59273E-09  7.30688E-09  7.62161E-09  7.55631E-09  7.45678E-09  7.94504E-09
   7.75827E-09  6.93277E-09  7.03634E-09  6.81353E-09  6.99463E-09  7.34163E-09  7.50981E-09  6.86147E-09  7.11253E-09  6.75665E-09
   7.44994E-09  6.78157E-09  6.36553E-09  5.99528E-09  6.19097E-09  7.43237E-09  7.78862E-09  8.90586E-09  1.16893E-08  1.63782E-08
   1.93545E-08  1.98756E-08  1.84988E-08  1.72513E-08  1.66538E-08  1.54871E-08  1.44361E-08  1.39077E-08  1.32947E-08  1.22509E-08
   1.17393E-08  1.07799E-08  1.02903E-08  9.23220E-09  8.21117E-09  7.32024E-09  6.35015E-09  4.98365E-09  3.88470E-09  2.80523E-09
   6.72268E-10 -8.64346E-10 -2.92150E-09 -4.77775E-09 -6.34830E-09 -8.89603E-09 -1.14180E-08 -1.32970E-08 -1.45551E-08 -1.65041E-08
  -1.72374E-08 -1.79359E-08 -1.82400E-08 -1.78276E-08 -1.73009E-08 -1.60692E-08 -1.51676E-08 -1.32767E-08 -1.15779E-08 -9.64760E-09
  -7.86134E-09 -6.28031E-09 -4.36766E-09 -2.93985E-09 -2.41728E-09 -1.77985E-09 -9.88417E-10 -1.26820E-09 -1.02817E-09 -2.07508E-09
  -1.56201E-09 -1.28527E-09 -1.95969E-09 -1.66755E-09 -1.13175E-09 -1.53219E-09 -7.34641E-10 -1.00020E-09 -8.05111E-10 -6.82341E-10
  -1.10736E-09 -1.06120E-09 -1.10726E-09 -1.36200E-09 -1.52725E-09 -1.06327E-09 -4.56405E-10 -7.31028E-10 -1.92465E-10 -9.70875E-10
  -7.46772E-10 -2.18591E-10 -6.09360E-10 -5.46653E-10 -1.35177E-09 -9.84155E-10 -1.20605E-09 -8.67538E-10 -2.47856E-10 -7.83875E-10
  -1.72463E-10  1.48703E-10  7.88920E-10 -2.34062E-10  2.51334E-10  1.14202E-10  1.29903E-10 -5.87139E-10 -7.50780E-10 -5.29734E-10
  -8.54523E-10 -1.15784E-09 -1.03443E-09 -1.06131E-09 -1.35163E-09 -4.20946E-10 -1.09141E-09 -6.05343E-10  1.65427E-10 -1.94575E-11
   4.75933E-10  1.48642E-10  6.62804E-10  6.83768E-10  8.53397E-10  7.32520E-10  1.10049E-09  8.24862E-10  7.04576E-10 -3.11494E-10
   2.79096E-10 -2.88039E-10 -3.00313E-10 -3.06362E-10  1.52583E-11  1.33836E-10 -5.20348E-10 -3.96937E-10  6.54561E-11 -6.97475E-10
  -3.07610E-10 -3.10903E-10 -3.18594E-10 -6.13919E-10  7.01060E-11 -5.38268E-10 -5.14969E-10 -5.73508E-10 -2.29203E-10 -7.44509E-10
  -3.24460E-10 -5.30202E-10 -6.45408E-10 -3.58087E-10 -4.49196E-10 -4.26121E-10 -3.50558E-10 -7.14530E-10 -5.02828E-10 -7.73986E-10
  -3.12366E-10 -7.21214E-10 -7.80498E-11 -2.90243E-10 -3.52709E-10 -4.10977E-10 -3.25997E-10  1.12539E-10 -3.06194E-10 -6.11061E-10
  -2.97816E-10  1.57566E-10 -3.01569E-10  7.44769E-11 -4.47838E-10 -3.74561E-10 -1.68013E-10  1.01084E-11 -1.83230E-10 -2.39759E-10
  -5.75437E-11 -2.63949E-11  1.63814E-10 -3.05253E-10  3.70564E-10 -3.78520E-10  3.22666E-10 -5.56662E-10  1.98294E-10 -9.18235E-11
   1.74177E-11 -5.48221E-10  4.69934E-10  3.85916E-10  3.52637E-10 -6.29751E-11  1.90384E-10  5.66391E-10  3.63466E-10  2.77187E-10
   3.00292E-10 -7.16509E-10  1.47268E-10  6.19207E-10  4.89920E-10  4.14591E-11  6.55135E-10  5.39680E-10 -1.81975E-10  6.56853E-10
  -5.06799E-10  7.03649E-10  9.29965E-10
 NY points of the fit to the data follow
   1.17947E-08  1.25196E-08  1.23394E-08  1.19749E-08  1.19879E-08  1.19293E-08  1.14029E-08  1.05253E-08  9.72631E-09  9.40017E-09
   9.46775E-09  9.70308E-09  1.01209E-08  1.05210E-08  1.08917E-08  1.10690E-08  1.10932E-08  1.11417E-08  1.10357E-08  1.05259E-08
   9.97676E-09  9.58138E-09  9.29548E-09  9.11391E-09  9.30708E-09  9.89196E-09  1.07188E-08  1.14901E-08  1.20417E-08  1.23461E-08
   1.26085E-08  1.26991E-08  1.26735E-08  1.24145E-08  1.19060E-08  1.12532E-08  1.07714E-08  1.04217E-08  1.01612E-08  9.95053E-09
   9.73859E-09  9.45839E-09  9.06180E-09  8.63015E-09  8.34090E-09  8.12309E-09  7.93380E-09  7.75129E-09  7.57015E-09  7.40697E-09
   7.25934E-09  7.13008E-09  7.01617E-09  6.90436E-09  6.85334E-09  7.00922E-09  7.27181E-09  7.63156E-09  8.21405E-09  8.92639E-09
   9.59234E-09  1.01990E-08  1.06933E-08  1.10213E-08  1.11268E-08  1.09766E-08  1.06572E-08  1.02503E-08  9.62023E-09  8.96401E-09
   8.50496E-09  8.19686E-09  8.01750E-09  7.97231E-09  8.05508E-09  8.33091E-09  8.81508E-09  9.67430E-09  1.08610E-08  1.21155E-08
   1.32134E-08  1.39979E-08  1.43918E-08  1.45817E-08  1.45891E-08  1.42077E-08  1.34928E-08  1.25536E-08  1.15085E-08  1.07435E-08
   1.02448E-08  9.87354E-09  9.57665E-09  9.32814E-09  9.11208E-09  8.92160E-09  8.75267E-09  8.59944E-09  8.45687E-09  8.32292E-09
   8.19978E-09  8.08600E-09  7.97749E-09  7.87292E-09  7.77345E-09  7.67842E-09  7.58699E-09  7.49859E-09  7.41262E-09  7.32871E-09
   7.24662E-09  7.16598E-09  7.08656E-09  7.00813E-09  6.93050E-09  6.85348E-09  6.77693E-09  6.70068E-09  6.62461E-09  6.54863E-09
   6.47257E-09  6.39639E-09  6.31996E-09  6.24322E-09  6.16609E-09  6.08848E-09  6.01030E-09  5.93157E-09  5.85216E-09  5.77203E-09
   5.69114E-09  5.60942E-09  5.52686E-09  5.44339E-09  5.35898E-09  5.27356E-09  5.18717E-09  5.09971E-09  5.01119E-09  4.92154E-09
   4.83079E-09  4.73890E-09  4.64585E-09  4.55161E-09  4.45621E-09  4.35963E-09  4.26190E-09  4.16310E-09  4.06333E-09  3.96272E-09
   3.86138E-09  3.75950E-09  3.65724E-09  3.55487E-09  3.45269E-09  3.35111E-09  3.25068E-09  3.15216E-09  3.05665E-09  2.96582E-09
   2.88224E-09  2.81029E-09  2.75772E-09  2.73995E-09  2.79197E-09  3.01336E-09  3.82153E-09  7.00628E-09  1.14909E-08  1.57605E-08
   1.88459E-08  2.04533E-08  2.08335E-08  2.03915E-08  1.92661E-08  1.71616E-08  1.36333E-08  8.79289E-09  4.16117E-09  2.41813E-09
   1.72507E-09  1.32067E-09  1.03453E-09  8.08938E-10  6.18822E-10  4.51525E-10  2.99975E-10  1.59942E-10  2.86514E-11 -9.56559E-11
  -2.14183E-10 -3.27838E-10 -4.37210E-10 -5.42757E-10 -6.44770E-10 -7.43523E-10 -8.39207E-10 -9.31896E-10 -1.02171E-09 -1.10874E-09
  -1.19300E-09 -1.27452E-09 -1.35332E-09 -1.42940E-09 -1.50278E-09 -1.57340E-09 -1.64129E-09 -1.70641E-09 -1.76875E-09 -1.82824E-09
  -1.88492E-09 -1.93871E-09 -1.98960E-09 -2.03756E-09 -2.08257E-09 -2.12456E-09 -2.16353E-09 -2.19946E-09 -2.23228E-09 -2.26208E-09
  -2.28889E-09 -2.31281E-09 -2.33387E-09 -2.35216E-09 -2.36773E-09 -2.38066E-09 -2.39101E-09 -2.39884E-09 -2.40421E-09 -2.40720E-09
  -2.40788E-09 -2.40629E-09 -2.40252E-09 -2.39662E-09 -2.38866E-09 -2.37871E-09 -2.36683E-09 -2.35308E-09 -2.33754E-09 -2.32026E-09
  -2.30131E-09 -2.28076E-09 -2.25866E-09 -2.23508E-09 -2.21009E-09 -2.18375E-09 -2.15612E-09 -2.12726E-09 -2.09725E-09 -2.06613E-09
  -2.03398E-09 -2.00084E-09 -1.96680E-09 -1.93189E-09 -1.89619E-09 -1.85976E-09 -1.82265E-09 -1.78492E-09 -1.74663E-09 -1.70783E-09
  -1.66859E-09 -1.62897E-09 -1.58901E-09 -1.54877E-09 -1.50830E-09 -1.46766E-09 -1.42691E-09 -1.38608E-09 -1.34524E-09 -1.30444E-09
  -1.26372E-09 -1.22312E-09 -1.18272E-09 -1.14252E-09 -1.10262E-09 -1.06302E-09 -1.02379E-09 -9.84965E-10 -9.46579E-10 -9.08683E-10
  -8.71321E-10 -8.34523E-10 -7.98334E-10 -7.62778E-10 -7.27902E-10 -6.93740E-10 -6.60328E-10 -6.27675E-10 -5.95843E-10 -5.64847E-10
  -5.34709E-10 -5.05457E-10 -4.77071E-10 -4.49544E-10 -4.22862E-10 -3.97023E-10 -3.72006E-10 -3.47810E-10 -3.24420E-10 -3.01828E-10
  -2.80027E-10 -2.59002E-10 -2.38751E-10 -2.19258E-10 -2.00515E-10 -1.82514E-10 -1.65249E-10 -1.48711E-10 -1.32886E-10 -1.17769E-10
  -1.03353E-10 -8.96258E-11 -7.65871E-11 -6.42207E-11 -5.25250E-11 -4.14897E-11 -3.11103E-11 -2.13753E-11 -1.22824E-11 -3.82450E-12
   4.00457E-12  1.12185E-11  1.78118E-11  2.37951E-11  2.91759E-11  3.39615E-11  3.81463E-11  4.17442E-11  4.47551E-11  4.71896E-11
   4.90447E-11  5.03284E-11  5.10457E-11  5.11978E-11  5.07849E-11  4.98142E-11  4.82859E-11  4.62058E-11  4.35694E-11  4.03899E-11
   3.66550E-11  3.23772E-11  2.75499E-11  2.21770E-11  1.62655E-11  9.80171E-12  2.79698E-12 -4.75520E-12 -1.28496E-11 -2.14923E-11
  -3.06829E-11 -4.04205E-11 -5.07099E-11 -6.15504E-11 -7.29469E-11 -8.48990E-11 -9.74146E-11 -1.10491E-10 -1.24134E-10 -1.38348E-10
  -1.53136E-10 -1.68502E-10 -1.84453E-10
 NY background values follow
     2.512E-09    2.591E-09    2.668E-09    2.745E-09    2.821E-09    2.896E-09    2.970E-09    3.043E-09    3.115E-09    3.186E-09
     3.255E-09    3.324E-09    3.392E-09    3.459E-09    3.524E-09    3.589E-09    3.653E-09    3.715E-09    3.777E-09    3.837E-09
     3.897E-09    3.955E-09    4.013E-09    4.069E-09    4.124E-09    4.179E-09    4.232E-09    4.284E-09    4.335E-09    4.386E-09
     4.435E-09    4.483E-09    4.530E-09    4.576E-09    4.622E-09    4.666E-09    4.709E-09    4.751E-09    4.792E-09    4.832E-09
     4.871E-09    4.909E-09    4.947E-09    4.983E-09    5.018E-09    5.052E-09    5.086E-09    5.118E-09    5.149E-09    5.180E-09
     5.209E-09    5.238E-09    5.265E-09    5.292E-09    5.318E-09    5.343E-09    5.367E-09    5.390E-09    5.412E-09    5.433E-09
     5.454E-09    5.473E-09    5.492E-09    5.510E-09    5.527E-09    5.543E-09    5.558E-09    5.572E-09    5.586E-09    5.599E-09
     5.611E-09    5.622E-09    5.633E-09    5.643E-09    5.652E-09    5.660E-09    5.667E-09    5.674E-09    5.680E-09    5.685E-09
     5.689E-09    5.692E-09    5.695E-09    5.697E-09    5.697E-09    5.697E-09    5.696E-09    5.695E-09    5.692E-09    5.688E-09
     5.684E-09    5.678E-09    5.672E-09    5.665E-09    5.656E-09    5.647E-09    5.637E-09    5.625E-09    5.613E-09    5.600E-09
     5.585E-09    5.570E-09    5.553E-09    5.536E-09    5.517E-09    5.497E-09    5.476E-09    5.454E-09    5.430E-09    5.406E-09
     5.380E-09    5.353E-09    5.325E-09    5.295E-09    5.265E-09    5.233E-09    5.199E-09    5.165E-09    5.129E-09    5.092E-09
     5.053E-09    5.013E-09    4.972E-09    4.929E-09    4.885E-09    4.839E-09    4.792E-09    4.743E-09    4.693E-09    4.642E-09
     4.589E-09    4.534E-09    4.478E-09    4.421E-09    4.361E-09    4.301E-09    4.238E-09    4.174E-09    4.109E-09    4.041E-09
     3.973E-09    3.902E-09    3.830E-09    3.756E-09    3.680E-09    3.603E-09    3.524E-09    3.443E-09    3.361E-09    3.278E-09
     3.192E-09    3.106E-09    3.018E-09    2.929E-09    2.838E-09    2.747E-09    2.655E-09    2.561E-09    2.467E-09    2.371E-09
     2.275E-09    2.179E-09    2.081E-09    1.983E-09    1.885E-09    1.786E-09    1.687E-09    1.587E-09    1.487E-09    1.388E-09
     1.288E-09    1.188E-09    1.088E-09    9.883E-10    8.888E-10    7.897E-10    6.909E-10    5.926E-10    4.948E-10    3.976E-10
     3.010E-10    2.052E-10    1.102E-10    1.608E-11   -7.711E-11   -1.693E-10   -2.604E-10   -3.503E-10   -4.390E-10   -5.264E-10
    -6.124E-10   -6.970E-10   -7.801E-10   -8.617E-10   -9.416E-10   -1.020E-09   -1.096E-09   -1.171E-09   -1.244E-09   -1.315E-09
    -1.383E-09   -1.450E-09   -1.515E-09   -1.577E-09   -1.637E-09   -1.695E-09   -1.751E-09   -1.804E-09   -1.855E-09   -1.903E-09
    -1.949E-09   -1.992E-09   -2.032E-09   -2.070E-09   -2.105E-09   -2.137E-09   -2.166E-09   -2.192E-09   -2.216E-09   -2.237E-09
    -2.254E-09   -2.270E-09   -2.282E-09   -2.292E-09   -2.299E-09   -2.303E-09   -2.306E-09   -2.305E-09   -2.303E-09   -2.298E-09
    -2.291E-09   -2.282E-09   -2.271E-09   -2.257E-09   -2.242E-09   -2.225E-09   -2.206E-09   -2.185E-09   -2.162E-09   -2.138E-09
    -2.113E-09   -2.085E-09   -2.057E-09   -2.026E-09   -1.995E-09   -1.962E-09   -1.928E-09   -1.893E-09   -1.857E-09   -1.820E-09
    -1.781E-09   -1.742E-09   -1.702E-09   -1.662E-09   -1.620E-09   -1.578E-09   -1.535E-09   -1.492E-09   -1.448E-09   -1.403E-09
    -1.359E-09   -1.314E-09   -1.268E-09   -1.223E-09   -1.177E-09   -1.131E-09   -1.085E-09   -1.040E-09   -9.936E-10   -9.478E-10
    -9.022E-10   -8.567E-10   -8.115E-10   -7.665E-10   -7.218E-10   -6.775E-10   -6.336E-10   -5.902E-10   -5.472E-10   -5.048E-10
    -4.630E-10   -4.218E-10   -3.812E-10   -3.413E-10   -3.021E-10   -2.637E-10   -2.261E-10   -1.892E-10   -1.533E-10   -1.182E-10
    -8.397E-11   -5.070E-11   -1.833E-11    1.313E-11    4.371E-11    7.341E-11    1.023E-10    1.302E-10    1.574E-10    1.837E-10
     2.091E-10    2.338E-10    2.577E-10    2.807E-10    3.030E-10    3.245E-10    3.452E-10    3.652E-10    3.844E-10    4.028E-10
     4.206E-10    4.376E-10    4.539E-10    4.695E-10    4.843E-10    4.985E-10    5.120E-10    5.248E-10    5.370E-10    5.485E-10
     5.593E-10    5.694E-10    5.790E-10    5.878E-10    5.961E-10    6.037E-10    6.107E-10    6.170E-10    6.228E-10    6.279E-10
     6.324E-10    6.364E-10    6.397E-10    6.424E-10    6.446E-10    6.461E-10    6.471E-10    6.475E-10    6.473E-10    6.465E-10
     6.451E-10    6.432E-10    6.407E-10    6.376E-10    6.340E-10    6.298E-10    6.250E-10    6.196E-10    6.136E-10    6.071E-10
     6.000E-10    5.923E-10    5.841E-10    5.753E-10    5.659E-10    5.559E-10    5.453E-10    5.341E-10    5.223E-10    5.100E-10
     4.970E-10    4.834E-10    4.693E-10
 Glc      Conc. = 4.75E-12
   2.50647E-09  2.58723E-09  2.66697E-09  2.74571E-09  2.82313E-09  2.89922E-09  2.97372E-09  3.04677E-09  3.11819E-09  3.18800E-09
   3.25683E-09  3.32474E-09  3.39173E-09  3.45807E-09  3.52422E-09  3.59029E-09  3.65613E-09  3.72144E-09  3.78559E-09  3.84830E-09
   3.90969E-09  3.96968E-09  4.02806E-09  4.08478E-09  4.13952E-09  4.19246E-09  4.24448E-09  4.29593E-09  4.34672E-09  4.39668E-09
   4.44555E-09  4.49334E-09  4.54015E-09  4.58587E-09  4.63041E-09  4.67403E-09  4.71668E-09  4.75828E-09  4.79890E-09  4.83859E-09
   4.87737E-09  4.91519E-09  4.95209E-09  4.98801E-09  5.02300E-09  5.05703E-09  5.09013E-09  5.12227E-09  5.15347E-09  5.18375E-09
   5.21309E-09  5.24151E-09  5.26899E-09  5.29556E-09  5.32124E-09  5.34598E-09  5.36984E-09  5.39284E-09  5.41488E-09  5.43609E-09
   5.45643E-09  5.47588E-09  5.49449E-09  5.51223E-09  5.52916E-09  5.54524E-09  5.56049E-09  5.57491E-09  5.58853E-09  5.60136E-09
   5.61338E-09  5.62461E-09  5.63509E-09  5.64477E-09  5.65371E-09  5.66186E-09  5.66923E-09  5.67582E-09  5.68161E-09  5.68660E-09
   5.69076E-09  5.69410E-09  5.69661E-09  5.69827E-09  5.69908E-09  5.69903E-09  5.69810E-09  5.69629E-09  5.69358E-09  5.68996E-09
   5.68541E-09  5.67995E-09  5.67351E-09  5.66615E-09  5.65781E-09  5.64846E-09  5.63814E-09  5.62680E-09  5.61444E-09  5.60103E-09
   5.58658E-09  5.57106E-09  5.55446E-09  5.53678E-09  5.51796E-09  5.49803E-09  5.47696E-09  5.45475E-09  5.43137E-09  5.40677E-09
   5.38101E-09  5.35402E-09  5.32579E-09  5.29631E-09  5.26557E-09  5.23355E-09  5.20025E-09  5.16564E-09  5.12969E-09  5.09244E-09
   5.05378E-09  5.01379E-09  4.97239E-09  4.92960E-09  4.88540E-09  4.83976E-09  4.79264E-09  4.74410E-09  4.69407E-09  4.64254E-09
   4.58951E-09  4.53494E-09  4.47886E-09  4.42122E-09  4.36202E-09  4.30120E-09  4.23885E-09  4.17486E-09  4.10926E-09  4.04201E-09
   3.97313E-09  3.90259E-09  3.83039E-09  3.75648E-09  3.68089E-09  3.60360E-09  3.52460E-09  3.44397E-09  3.36176E-09  3.27803E-09
   3.19285E-09  3.10629E-09  3.01839E-09  2.92925E-09  2.83890E-09  2.74744E-09  2.65493E-09  2.56142E-09  2.46701E-09  2.37175E-09
   2.27570E-09  2.17897E-09  2.08159E-09  1.98367E-09  1.88530E-09  1.78660E-09  1.68797E-09  1.59038E-09  1.49313E-09  1.39554E-09
   1.29719E-09  1.19808E-09  1.09844E-09  9.98543E-10  8.98517E-10  7.98234E-10  6.97543E-10  5.96668E-10  4.96627E-10  3.98739E-10
   3.01921E-10  2.05962E-10  1.10838E-10  1.66346E-11 -7.66071E-11 -1.68828E-10 -2.59950E-10 -3.49879E-10 -4.38609E-10 -5.26041E-10
  -6.12082E-10 -6.96716E-10 -7.79847E-10 -8.61425E-10 -9.41348E-10 -1.01959E-09 -1.09609E-09 -1.17075E-09 -1.24351E-09 -1.31435E-09
  -1.38318E-09 -1.44994E-09 -1.51457E-09 -1.57702E-09 -1.63725E-09 -1.69516E-09 -1.75073E-09 -1.80390E-09 -1.85462E-09 -1.90280E-09
  -1.94846E-09 -1.99150E-09 -2.03188E-09 -2.06956E-09 -2.10451E-09 -2.13665E-09 -2.16596E-09 -2.19242E-09 -2.21594E-09 -2.23661E-09
  -2.25445E-09 -2.26954E-09 -2.28192E-09 -2.29167E-09 -2.29883E-09 -2.30348E-09 -2.30567E-09 -2.30546E-09 -2.30291E-09 -2.29808E-09
  -2.29105E-09 -2.28186E-09 -2.27059E-09 -2.25728E-09 -2.24202E-09 -2.22485E-09 -2.20584E-09 -2.18505E-09 -2.16255E-09 -2.13840E-09
  -2.11265E-09 -2.08539E-09 -2.05666E-09 -2.02653E-09 -1.99505E-09 -1.96230E-09 -1.92833E-09 -1.89321E-09 -1.85700E-09 -1.81975E-09
  -1.78153E-09 -1.74240E-09 -1.70243E-09 -1.66164E-09 -1.62013E-09 -1.57795E-09 -1.53515E-09 -1.49179E-09 -1.44792E-09 -1.40361E-09
  -1.35891E-09 -1.31388E-09 -1.26857E-09 -1.22304E-09 -1.17733E-09 -1.13150E-09 -1.08561E-09 -1.03970E-09 -9.93822E-10 -9.48034E-10
  -9.02374E-10 -8.56893E-10 -8.11647E-10 -7.66665E-10 -7.22015E-10 -6.77720E-10 -6.33837E-10 -5.90408E-10 -5.47462E-10 -5.05050E-10
  -4.63216E-10 -4.21989E-10 -3.81416E-10 -3.41517E-10 -3.02342E-10 -2.63922E-10 -2.26293E-10 -1.89466E-10 -1.53499E-10 -1.18411E-10
  -8.42194E-11 -5.09534E-11 -1.85930E-11  1.28696E-11  4.34479E-11  7.31444E-11  1.01981E-10  1.29959E-10  1.57093E-10  1.83392E-10
   2.08864E-10  2.33522E-10  2.57371E-10  2.80425E-10  3.02693E-10  3.24184E-10  3.44903E-10  3.64861E-10  3.84070E-10  4.02538E-10
   4.20269E-10  4.37277E-10  4.53564E-10  4.69144E-10  4.84020E-10  4.98202E-10  5.11695E-10  5.24512E-10  5.36653E-10  5.48127E-10
   5.58940E-10  5.69106E-10  5.78619E-10  5.87491E-10  5.95729E-10  6.03339E-10  6.10319E-10  6.16680E-10  6.22424E-10  6.27561E-10
   6.32088E-10  6.36014E-10  6.39343E-10  6.42076E-10  6.44215E-10  6.45766E-10  6.46730E-10  6.47113E-10  6.46910E-10  6.46135E-10
   6.44776E-10  6.42845E-10  6.40336E-10  6.37253E-10  6.33603E-10  6.29373E-10  6.24573E-10  6.19198E-10  6.13252E-10  6.06730E-10
   5.99632E-10  5.91960E-10  5.83708E-10  5.74878E-10  5.65464E-10  5.55467E-10  5.44880E-10  5.33706E-10  5.21938E-10  5.09571E-10
   4.96605E-10  4.83034E-10  4.68851E-10
 Gln      Conc. = 1.94E-09
   8.22636E-10  1.12482E-09  1.55794E-09  2.10567E-09  2.70941E-09  3.30434E-09  3.83190E-09  4.24755E-09  4.53991E-09  4.76412E-09
   4.80747E-09  4.67679E-09  4.59190E-09  4.41768E-09  4.27749E-09  4.18656E-09  4.12763E-09  4.08984E-09  4.06668E-09  4.05397E-09
   4.04892E-09  4.04954E-09  4.05440E-09  4.06248E-09  4.07313E-09  4.08580E-09  4.09970E-09  4.11446E-09  4.12981E-09  4.14523E-09
   4.16043E-09  4.17515E-09  4.18916E-09  4.20227E-09  4.21426E-09  4.22497E-09  4.23415E-09  4.24161E-09  4.24713E-09  4.25042E-09
   4.25130E-09  4.24946E-09  4.24473E-09  4.23683E-09  4.22535E-09  4.20987E-09  4.18994E-09  4.16430E-09  4.13250E-09  4.09485E-09
   4.04960E-09  3.99624E-09  3.93699E-09  3.88345E-09  3.90705E-09  4.14325E-09  4.47752E-09  4.88725E-09  5.50883E-09  6.27971E-09
   7.03944E-09  7.76523E-09  8.38014E-09  8.79890E-09  8.96229E-09  8.86652E-09  8.61959E-09  8.31415E-09  7.77579E-09  7.19432E-09
   6.78194E-09  6.50510E-09  6.36158E-09  6.38529E-09  6.57148E-09  6.97415E-09  7.46757E-09  8.00493E-09  8.55226E-09  9.05017E-09
   9.45123E-09  9.69615E-09  9.71165E-09  9.62670E-09  9.46833E-09  9.11816E-09  8.74435E-09  8.45656E-09  8.12728E-09  7.83897E-09
   7.61782E-09  7.44096E-09  7.29499E-09  7.17088E-09  7.06192E-09  6.96507E-09  6.87794E-09  6.79835E-09  6.72499E-09  6.65677E-09
   6.59254E-09  6.53141E-09  6.47286E-09  6.41651E-09  6.36196E-09  6.30890E-09  6.25692E-09  6.20582E-09  6.15533E-09  6.10524E-09
   6.05548E-09  6.00580E-09  5.95610E-09  5.90628E-09  5.85621E-09  5.80580E-09  5.75497E-09  5.70364E-09  5.65170E-09  5.59916E-09
   5.54585E-09  5.49180E-09  5.43691E-09  5.38114E-09  5.32446E-09  5.26679E-09  5.20808E-09  5.14836E-09  5.08753E-09  5.02557E-09
   4.96246E-09  4.89812E-09  4.83259E-09  4.76579E-09  4.69771E-09  4.62829E-09  4.55759E-09  4.48549E-09  4.41203E-09  4.33713E-09
   4.26083E-09  4.18309E-09  4.10390E-09  4.02320E-09  3.94103E-09  3.85735E-09  3.77218E-09  3.68557E-09  3.59760E-09  3.50833E-09
   3.41785E-09  3.32623E-09  3.23357E-09  3.13997E-09  3.04555E-09  2.95045E-09  2.85485E-09  2.75896E-09  2.66307E-09  2.56761E-09
   2.47315E-09  2.38071E-09  2.29195E-09  2.21013E-09  2.14243E-09  2.10863E-09  2.18758E-09  2.77215E-09  3.64724E-09  4.48514E-09
   5.07342E-09  5.34454E-09  5.35007E-09  5.17815E-09  4.86230E-09  4.34195E-09  3.51963E-09  2.40932E-09  1.32261E-09  8.59143E-10
   6.33035E-10  4.70874E-10  3.34868E-10  2.12500E-10  9.83985E-11 -1.00959E-11 -1.14423E-10 -2.15400E-10 -3.13607E-10 -4.09331E-10
  -5.02751E-10 -5.94041E-10 -6.83250E-10 -7.70430E-10 -8.55563E-10 -9.38680E-10 -1.01978E-09 -1.09879E-09 -1.17570E-09 -1.25049E-09
  -1.32312E-09 -1.39353E-09 -1.46168E-09 -1.52754E-09 -1.59106E-09 -1.65217E-09 -1.71085E-09 -1.76704E-09 -1.82072E-09 -1.87178E-09
  -1.92026E-09 -1.96605E-09 -2.00913E-09 -2.04945E-09 -2.08699E-09 -2.12167E-09 -2.15348E-09 -2.18238E-09 -2.20832E-09 -2.23135E-09
  -2.25152E-09 -2.26890E-09 -2.28354E-09 -2.29551E-09 -2.30486E-09 -2.31167E-09 -2.31598E-09 -2.31787E-09 -2.31739E-09 -2.31460E-09
