 LCModel (Version 6.3-1R) Copyright: S.W. Provencher.          Ref.: Magn. Reson. Med. 30:672-679 (1993).                
 onepulse 26x11_ftSpec_smooth_lcm
 26 lines in following concentration table = NCONC+1
    Conc.  %SD   /Cr    Metabolite                                         
 4.21E-10  62%   0.000 Ala                                                 
 3.09E-09  16%   0.000 Asp                                                 
    0.000 999%   0.000 Cr                                                  
 1.45E-09  29%   0.000 GABA                                                
 2.48E-09  26%   0.000 Glc                                                 
    0.000 999%   0.000 Gln                                                 
    0.000 999%   0.000 Glu                                                 
    0.000 999%   0.000 Glyc                                                
    0.000 999%   0.000 GPC                                                 
    0.000 999%   0.000 GSH                                                 
 6.98E-10  57%   0.000 Ins                                                 
    0.000 999%   0.000 Lac                                                 
 1.10E-09  13%   0.000 NAAG                                                
    0.000 999%   0.000 NAA                                                 
    0.000 999%   0.000 PCh                                                 
    0.000 999%   0.000 PCr                                                 
 2.09E-09  27%   0.000 PE                                                  
 3.41E-11 479%   0.000 Scyllo                                              
    0.000 999%   0.000 Ser                                                 
    0.000 999%   0.000 Tau                                                 
    0.000 999%   0.000 GPC+PCh                                             
 1.10E-09  13%   0.000 NAA+NAAG                                            
 6.98E-10  57%   0.000 Ins+Glyc                                            
    0.000 999%   0.000 Cr+PCr                                              
    0.000 999%   0.000 Glu+Gln                                             
   6 lines in following misc. output table
  FWHM = 0.123 ppm    S/N =   4                                            
  Data shift = 0.492 ppm                                                   
  Ph:  39 deg     -40.5 deg/ppm                                            
  alphaB,S = 8.7E-01,   4.9E+00                                            
   10 spline knots.   Ns = 5(1)                                            
  ( 9) 6 infls.   (11) 5 extrs.                                            
  363 points on ppm-axis = NY
      4.250000     4.238821     4.227641     4.216462     4.205282     4.194103     4.182923     4.171744     4.160564     4.149385
      4.138206     4.127026     4.115847     4.104667     4.093488     4.082308     4.071129     4.059949     4.048770     4.037591
      4.026411     4.015232     4.004052     3.992873     3.981693     3.970514     3.959334     3.948155     3.936975     3.925796
      3.914617     3.903437     3.892258     3.881078     3.869899     3.858719     3.847540     3.836360     3.825181     3.814002
      3.802822     3.791643     3.780463     3.769284     3.758104     3.746925     3.735745     3.724566     3.713387     3.702207
      3.691028     3.679848     3.668669     3.657489     3.646310     3.635130     3.623951     3.612772     3.601592     3.590413
      3.579233     3.568054     3.556874     3.545695     3.534515     3.523336     3.512156     3.500977     3.489798     3.478618
      3.467439     3.456259     3.445080     3.433900     3.422721     3.411541     3.400362     3.389183     3.378003     3.366824
      3.355644     3.344465     3.333285     3.322106     3.310926     3.299747     3.288568     3.277388     3.266209     3.255029
      3.243850     3.232670     3.221491     3.210311     3.199132     3.187953     3.176773     3.165594     3.154414     3.143235
      3.132055     3.120876     3.109696     3.098517     3.087337     3.076158     3.064979     3.053799     3.042620     3.031440
      3.020261     3.009081     2.997902     2.986722     2.975543     2.964364     2.953184     2.942005     2.930825     2.919646
      2.908466     2.897287     2.886107     2.874928     2.863749     2.852569     2.841390     2.830210     2.819031     2.807851
      2.796672     2.785492     2.774313     2.763134     2.751954     2.740775     2.729595     2.718416     2.707236     2.696057
      2.684877     2.673698     2.662519     2.651339     2.640160     2.628980     2.617801     2.606621     2.595442     2.584262
      2.573083     2.561903     2.550724     2.539545     2.528365     2.517186     2.506006     2.494827     2.483647     2.472468
      2.461288     2.450109     2.438930     2.427750     2.416571     2.405391     2.394212     2.383032     2.371853     2.360673
      2.349494     2.338315     2.327135     2.315956     2.304776     2.293597     2.282417     2.271238     2.260058     2.248879
      2.237700     2.226520     2.215341     2.204161     2.192982     2.181802     2.170623     2.159443     2.148264     2.137084
      2.125905     2.114726     2.103546     2.092367     2.081187     2.070008     2.058828     2.047649     2.036469     2.025290
      2.014111     2.002931     1.991752     1.980572     1.969393     1.958213     1.947034     1.935854     1.924675     1.913496
      1.902316     1.891137     1.879957     1.868778     1.857598     1.846419     1.835239     1.824060     1.812881     1.801701
      1.790522     1.779342     1.768163     1.756983     1.745804     1.734624     1.723445     1.712265     1.701086     1.689907
      1.678727     1.667548     1.656368     1.645189     1.634009     1.622830     1.611650     1.600471     1.589292     1.578112
      1.566933     1.555753     1.544574     1.533394     1.522215     1.511035     1.499856     1.488677     1.477497     1.466318
      1.455138     1.443959     1.432779     1.421600     1.410420     1.399241     1.388062     1.376882     1.365703     1.354523
      1.343344     1.332164     1.320985     1.309805     1.298626     1.287446     1.276267     1.265088     1.253908     1.242729
      1.231549     1.220370     1.209190     1.198011     1.186831     1.175652     1.164473     1.153293     1.142114     1.130934
      1.119755     1.108575     1.097396     1.086216     1.075037     1.063858     1.052678     1.041499     1.030319     1.019140
      1.007960     0.996781     0.985601     0.974422     0.963243     0.952063     0.940884     0.929704     0.918525     0.907345
      0.896166     0.884986     0.873807     0.862628     0.851448     0.840269     0.829089     0.817910     0.806730     0.795551
      0.784371     0.773192     0.762012     0.750833     0.739654     0.728474     0.717295     0.706115     0.694936     0.683756
      0.672577     0.661397     0.650218     0.639039     0.627859     0.616680     0.605500     0.594321     0.583141     0.571962
      0.560782     0.549603     0.538424     0.527244     0.516065     0.504885     0.493706     0.482526     0.471347     0.460167
      0.448988     0.437809     0.426629     0.415450     0.404270     0.393091     0.381911     0.370732     0.359552     0.348373
      0.337193     0.326014     0.314835     0.303655     0.292476     0.281296     0.270117     0.258937     0.247758     0.236578
      0.225399     0.214220     0.203040
 NY phased data points follow
   1.06016E-08  1.19277E-08  1.12886E-08  1.26989E-08  1.09150E-08  1.24286E-08  1.08737E-08  1.19816E-08  1.01057E-08  1.14323E-08
   8.84514E-09  1.13027E-08  1.06626E-08  1.23312E-08  1.04700E-08  1.10512E-08  8.82774E-09  1.02365E-08  9.52534E-09  1.32643E-08
   1.28276E-08  1.43909E-08  1.36030E-08  1.35878E-08  1.16469E-08  1.17019E-08  1.05766E-08  1.13237E-08  1.01787E-08  1.06974E-08
   9.27936E-09  1.04450E-08  8.85456E-09  9.94089E-09  8.04387E-09  8.31297E-09  6.59825E-09  8.05902E-09  6.81819E-09  8.27880E-09
   6.40093E-09  7.58250E-09  5.54119E-09  6.26762E-09  4.19286E-09  5.19512E-09  4.37495E-09  5.05689E-09  2.55665E-09  4.02552E-09
   6.09065E-09  1.04753E-08  1.04994E-08  1.17180E-08  9.85581E-09  1.03013E-08  8.70038E-09  9.01484E-09  8.08787E-09  7.62981E-09
   6.48545E-09  6.62458E-09  4.66881E-09  4.89692E-09  2.71818E-09  2.24969E-09  1.57825E-09  6.73497E-09  1.04655E-08  1.31088E-08
   1.09859E-08  1.18893E-08  1.13463E-08  1.24776E-08  1.07549E-08  1.18342E-08  1.06023E-08  1.24525E-08  1.10427E-08  1.22951E-08
   1.02208E-08  1.18447E-08  1.02083E-08  1.11750E-08  9.68553E-09  1.03301E-08  9.14541E-09  9.79022E-09  7.98349E-09  9.25709E-09
   8.17935E-09  9.21859E-09  7.30181E-09  8.78497E-09  8.69263E-09  9.17511E-09  7.71299E-09  8.00687E-09  6.14910E-09  5.96911E-09
   4.94729E-09  6.15501E-09  5.55005E-09  6.01380E-09  4.92179E-09  6.79357E-09  5.73800E-09  6.54259E-09  5.62131E-09  7.10706E-09
   6.31374E-09  6.75135E-09  5.87247E-09  5.91277E-09  4.24548E-09  4.42547E-09  4.04822E-09  5.01748E-09  3.83670E-09  4.36094E-09
   3.79109E-09  4.54644E-09  4.42770E-09  4.27434E-09  3.87579E-09  3.33416E-09  1.90926E-09  2.49828E-09  3.53166E-09  4.78055E-09
   4.49901E-09  4.53396E-09  3.83797E-09  4.65231E-09  4.95061E-09  5.98874E-09  5.47869E-09  6.24488E-09  6.09748E-09  6.46387E-09
   5.96339E-09  6.22316E-09  6.03871E-09  6.53242E-09  6.14664E-09  6.15568E-09  6.03691E-09  5.74813E-09  4.92735E-09  5.50250E-09
   5.09928E-09  5.40810E-09  4.80010E-09  4.26232E-09  4.00396E-09  3.85370E-09  1.40414E-09 -2.35527E-09 -2.96023E-09  3.02847E-09
   9.22571E-09  1.21698E-08  1.28759E-08  1.38670E-08  1.46520E-08  1.51221E-08  1.63596E-08  1.65121E-08  1.73411E-08  1.82136E-08
   1.89798E-08  1.87186E-08  1.96661E-08  2.01395E-08  2.00722E-08  1.93474E-08  1.95827E-08  1.85848E-08  1.83653E-08  1.74928E-08
   1.63974E-08  1.47425E-08  1.29290E-08  1.14669E-08  1.00989E-08  7.47716E-09  5.98315E-09  4.23201E-09  2.66611E-09  9.74363E-10
   6.29671E-11 -1.68180E-09 -1.75849E-09 -2.96271E-09 -3.02271E-09 -2.63593E-09 -2.46027E-09 -2.47026E-09 -1.77401E-09 -1.63880E-09
  -7.17130E-10 -1.48124E-09 -8.09452E-10 -1.03789E-10 -3.70738E-11 -4.50962E-10  2.36597E-10 -5.11306E-10  8.29531E-11 -7.87742E-10
  -6.12429E-11 -6.10097E-10  1.43671E-10  1.59140E-10  4.40043E-10  1.21556E-10  2.31434E-10 -4.14179E-10  5.00823E-10 -5.89262E-10
   5.87499E-10 -3.02957E-10  1.24697E-10 -9.20557E-10  2.37181E-10  4.11546E-10  5.80451E-10 -2.01313E-10  6.18448E-10 -7.17097E-11
   4.89803E-10 -6.71878E-10  1.58353E-11 -4.84590E-10 -3.08208E-10 -6.68587E-10 -3.93543E-10 -1.01606E-09  4.89234E-11 -5.86203E-10
   3.19385E-10 -2.68168E-10  5.99022E-10 -3.70097E-10  1.05623E-09 -3.25518E-10  8.60491E-10 -3.24599E-10  8.87880E-10 -2.14652E-10
   9.07944E-10  2.09016E-10  4.05107E-10 -3.70902E-10 -1.41911E-11 -8.66787E-10 -2.81131E-10 -1.22569E-09 -7.95313E-10 -1.82922E-09
  -6.98851E-10 -1.68376E-09 -8.65103E-10 -1.68579E-09 -5.60205E-10 -1.11414E-09  2.39556E-10 -7.37856E-10  2.83311E-10 -1.33356E-10
   9.10628E-10  1.93096E-11  7.05723E-10  4.89994E-11  7.74378E-10 -3.26787E-11  8.04738E-10  5.05591E-10  1.01683E-09  3.88216E-10
   7.05638E-10  3.01859E-10  7.47087E-10  5.16596E-10  1.31754E-09 -3.08895E-11  1.23932E-09  4.75888E-10  9.81612E-10  2.03997E-10
   1.11782E-09  4.37508E-10  1.10733E-09  2.53531E-10  1.37548E-09  7.33014E-10  9.97212E-10  4.53248E-10  1.02922E-09  2.95925E-10
   1.10713E-09  3.70307E-10  1.09454E-09  7.26415E-10  9.50933E-10  5.49478E-10  9.79096E-10  7.25931E-10  1.02266E-09  5.57258E-10
   1.09204E-09  1.14818E-10  1.25026E-09  6.69430E-10  9.57262E-10  3.33535E-10  1.05578E-09  5.06770E-10  1.20788E-09  5.12957E-10
   1.01633E-09  2.32174E-10  1.11589E-09  4.77886E-10  1.46918E-09  5.90564E-10  9.07881E-10  5.92824E-10  1.03936E-09  7.88092E-10
   1.27302E-09  6.35368E-10  1.53447E-09  3.82330E-10  1.00209E-09  7.32552E-11  1.04579E-09  4.42198E-10  1.03003E-09  3.42622E-10
   1.09381E-09  5.22032E-10  1.27671E-09 -1.41005E-10  1.58926E-09  6.49910E-10  1.10642E-09  2.33153E-10  1.11111E-09  2.26074E-10
   8.41587E-10  1.13346E-10  8.24151E-10  1.32769E-09  9.30033E-10  2.65864E-10  1.40082E-09  4.38444E-10  9.94984E-10  4.22423E-10
   1.07224E-09  5.42499E-10  1.25244E-09
 NY points of the fit to the data follow
   1.39038E-08  1.27132E-08  1.16809E-08  1.14801E-08  1.16415E-08  1.09629E-08  1.02985E-08  1.08395E-08  9.71182E-09  9.25048E-09
   9.23982E-09  9.18495E-09  9.70363E-09  1.14510E-08  1.25406E-08  1.18317E-08  1.13809E-08  1.19203E-08  1.22371E-08  1.20392E-08
   1.21284E-08  1.25597E-08  1.28402E-08  1.33991E-08  1.20433E-08  1.12931E-08  1.06127E-08  1.04451E-08  1.07305E-08  1.11573E-08
   1.05077E-08  1.06105E-08  1.06894E-08  9.46780E-09  8.05056E-09  8.57692E-09  7.56772E-09  7.36378E-09  7.12807E-09  7.47670E-09
   6.30991E-09  6.56304E-09  7.39750E-09  6.45595E-09  6.74734E-09  8.17556E-09  8.32536E-09  7.38206E-09  7.14847E-09  8.44671E-09
   8.02739E-09  7.92955E-09  8.41385E-09  8.32047E-09  8.27987E-09  8.34696E-09  8.36121E-09  6.48104E-09  6.46732E-09  7.19084E-09
   6.64912E-09  6.67332E-09  6.84299E-09  6.48699E-09  7.71328E-09  7.97428E-09  8.12878E-09  8.15328E-09  8.41605E-09  8.60454E-09
   9.30305E-09  9.93485E-09  9.12395E-09  8.64968E-09  9.88780E-09  1.15417E-08  1.21824E-08  1.12078E-08  1.12614E-08  1.11700E-08
   1.11293E-08  1.12422E-08  1.10658E-08  1.10749E-08  1.06322E-08  1.19271E-08  1.13274E-08  7.84194E-09  7.40843E-09  7.45542E-09
   7.02525E-09  6.69792E-09  7.05022E-09  6.96635E-09  6.16576E-09  6.37629E-09  6.36695E-09  5.82099E-09  5.90293E-09  6.04309E-09
   6.23755E-09  5.77905E-09  5.96866E-09  6.43060E-09  6.26308E-09  6.28852E-09  6.30238E-09  6.29267E-09  6.29372E-09  6.39688E-09
   6.42863E-09  5.58424E-09  5.67886E-09  5.89222E-09  5.25785E-09  5.05558E-09  4.97017E-09  4.92496E-09  4.89776E-09  4.87998E-09
   4.86746E-09  4.85821E-09  4.85094E-09  4.84484E-09  4.83937E-09  4.83420E-09  4.82905E-09  4.82368E-09  4.81799E-09  4.81184E-09
   4.80511E-09  4.79775E-09  4.78970E-09  4.78089E-09  4.77129E-09  4.76083E-09  4.74950E-09  4.73727E-09  4.72411E-09  4.71001E-09
   4.69496E-09  4.67895E-09  4.66200E-09  4.64409E-09  4.62523E-09  4.60546E-09  4.58480E-09  4.56333E-09  4.54111E-09  4.51824E-09
   4.49483E-09  4.47108E-09  4.44723E-09  4.42361E-09  4.40070E-09  4.37917E-09  4.36000E-09  4.34467E-09  4.33553E-09  4.33627E-09
   4.35324E-09  4.39802E-09  4.49410E-09  4.69596E-09  5.15906E-09  6.49944E-09  1.23264E-08  1.78301E-08  1.85716E-08  1.73993E-08
   1.76382E-08  1.83615E-08  1.95036E-08  2.04874E-08  2.07056E-08  2.03220E-08  2.22347E-08  2.04796E-08  1.32192E-08  7.11078E-09
   5.29449E-09  4.54391E-09  4.12278E-09  3.84292E-09  3.63608E-09  3.47175E-09  3.33424E-09  3.21472E-09  3.10785E-09  3.01021E-09
   2.91951E-09  2.83420E-09  2.75314E-09  2.67558E-09  2.60088E-09  2.52861E-09  2.45845E-09  2.39014E-09  2.32347E-09  2.25831E-09
   2.19454E-09  2.13208E-09  2.07085E-09  2.01083E-09  1.95196E-09  1.89422E-09  1.83763E-09  1.78213E-09  1.72777E-09  1.67449E-09
   1.62226E-09  1.57106E-09  1.52087E-09  1.47167E-09  1.42344E-09  1.37616E-09  1.32983E-09  1.28444E-09  1.23996E-09  1.19639E-09
   1.15373E-09  1.11196E-09  1.07109E-09  1.03110E-09  9.91987E-10  9.53750E-10  9.16393E-10  8.79894E-10  8.44253E-10  8.09483E-10
   7.75573E-10  7.42516E-10  7.10319E-10  6.78969E-10  6.48474E-10  6.18823E-10  5.90020E-10  5.62071E-10  5.34965E-10  5.08708E-10
   4.83298E-10  4.58735E-10  4.35016E-10  4.12139E-10  3.90111E-10  3.68928E-10  3.48585E-10  3.29078E-10  3.10431E-10  2.92633E-10
   2.75673E-10  2.59555E-10  2.44287E-10  2.29874E-10  2.16291E-10  2.03568E-10  1.91690E-10  1.80665E-10  1.70482E-10  1.61147E-10
   1.52658E-10  1.44994E-10  1.38137E-10  1.32068E-10  1.26768E-10  1.22221E-10  1.18409E-10  1.15312E-10  1.12913E-10  1.11195E-10
   1.10140E-10  1.09729E-10  1.09945E-10  1.10770E-10  1.12184E-10  1.14174E-10  1.16718E-10  1.19800E-10  1.23401E-10  1.27504E-10
   1.32092E-10  1.37146E-10  1.42648E-10  1.48581E-10  1.54927E-10  1.61670E-10  1.68789E-10  1.76269E-10  1.84091E-10  1.92239E-10
   2.00693E-10  2.09437E-10  2.18452E-10  2.27723E-10  2.37229E-10  2.46955E-10  2.56881E-10  2.66992E-10  2.77268E-10  2.87694E-10
   2.98250E-10  3.08920E-10  3.19686E-10  3.30530E-10  3.41435E-10  3.52384E-10  3.63358E-10  3.74339E-10  3.85313E-10  3.96259E-10
   4.07162E-10  4.18005E-10  4.28780E-10  4.39492E-10  4.50141E-10  4.60729E-10  4.71258E-10  4.81730E-10  4.92146E-10  5.02507E-10
   5.12815E-10  5.23074E-10  5.33282E-10  5.43442E-10  5.53555E-10  5.63624E-10  5.73650E-10  5.83635E-10  5.93581E-10  6.03488E-10
   6.13357E-10  6.23191E-10  6.32995E-10  6.42763E-10  6.52503E-10  6.62215E-10  6.71897E-10  6.81555E-10  6.91190E-10  7.00804E-10
   7.10395E-10  7.19968E-10  7.29524E-10  7.39064E-10  7.48591E-10  7.58105E-10  7.67606E-10  7.77100E-10  7.86586E-10  7.96068E-10
   8.05542E-10  8.15016E-10  8.24486E-10  8.33959E-10  8.43435E-10  8.52911E-10  8.62392E-10  8.71885E-10  8.81382E-10  8.90890E-10
   9.00410E-10  9.09943E-10  9.19491E-10
 NY background values follow
    -9.534E-10   -9.049E-10   -8.562E-10   -8.075E-10   -7.588E-10   -7.100E-10   -6.612E-10   -6.123E-10   -5.634E-10   -5.145E-10
    -4.655E-10   -4.166E-10   -3.676E-10   -3.186E-10   -2.696E-10   -2.205E-10   -1.715E-10   -1.225E-10   -7.354E-11   -2.455E-11
     2.441E-11    7.336E-11    1.223E-10    1.712E-10    2.200E-10    2.688E-10    3.176E-10    3.663E-10    4.150E-10    4.636E-10
     5.122E-10    5.607E-10    6.091E-10    6.575E-10    7.058E-10    7.540E-10    8.021E-10    8.501E-10    8.981E-10    9.459E-10
     9.937E-10    1.041E-09    1.089E-09    1.136E-09    1.184E-09    1.231E-09    1.278E-09    1.325E-09    1.371E-09    1.418E-09
     1.465E-09    1.511E-09    1.557E-09    1.603E-09    1.649E-09    1.695E-09    1.740E-09    1.786E-09    1.831E-09    1.876E-09
     1.920E-09    1.964E-09    2.009E-09    2.052E-09    2.096E-09    2.139E-09    2.182E-09    2.225E-09    2.267E-09    2.309E-09
     2.350E-09    2.392E-09    2.432E-09    2.473E-09    2.513E-09    2.552E-09    2.592E-09    2.630E-09    2.668E-09    2.706E-09
     2.744E-09    2.780E-09    2.817E-09    2.853E-09    2.888E-09    2.923E-09    2.957E-09    2.990E-09    3.023E-09    3.056E-09
     3.088E-09    3.119E-09    3.150E-09    3.180E-09    3.209E-09    3.238E-09    3.266E-09    3.293E-09    3.320E-09    3.346E-09
     3.371E-09    3.396E-09    3.419E-09    3.442E-09    3.465E-09    3.486E-09    3.507E-09    3.527E-09    3.546E-09    3.564E-09
     3.582E-09    3.598E-09    3.614E-09    3.629E-09    3.643E-09    3.656E-09    3.668E-09    3.679E-09    3.689E-09    3.699E-09
     3.707E-09    3.715E-09    3.721E-09    3.726E-09    3.731E-09    3.734E-09    3.737E-09    3.738E-09    3.738E-09    3.737E-09
     3.735E-09    3.732E-09    3.728E-09    3.723E-09    3.717E-09    3.709E-09    3.700E-09    3.691E-09    3.680E-09    3.667E-09
     3.654E-09    3.639E-09    3.623E-09    3.606E-09    3.588E-09    3.568E-09    3.547E-09    3.525E-09    3.501E-09    3.476E-09
     3.450E-09    3.422E-09    3.394E-09    3.363E-09    3.332E-09    3.298E-09    3.264E-09    3.228E-09    3.191E-09    3.152E-09
     3.113E-09    3.072E-09    3.030E-09    2.987E-09    2.942E-09    2.897E-09    2.851E-09    2.803E-09    2.755E-09    2.706E-09
     2.656E-09    2.606E-09    2.554E-09    2.502E-09    2.450E-09    2.396E-09    2.342E-09    2.288E-09    2.233E-09    2.178E-09
     2.122E-09    2.066E-09    2.009E-09    1.953E-09    1.896E-09    1.839E-09    1.781E-09    1.724E-09    1.667E-09    1.609E-09
     1.552E-09    1.494E-09    1.437E-09    1.380E-09    1.323E-09    1.266E-09    1.210E-09    1.154E-09    1.098E-09    1.043E-09
     9.881E-10    9.337E-10    8.798E-10    8.266E-10    7.739E-10    7.219E-10    6.705E-10    6.199E-10    5.701E-10    5.211E-10
     4.728E-10    4.254E-10    3.787E-10    3.328E-10    2.876E-10    2.433E-10    1.997E-10    1.570E-10    1.150E-10    7.377E-11
     3.338E-11   -6.233E-12   -4.505E-11   -8.307E-11   -1.203E-10   -1.567E-10   -1.923E-10   -2.272E-10   -2.612E-10   -2.944E-10
    -3.268E-10   -3.584E-10   -3.892E-10   -4.192E-10   -4.484E-10   -4.768E-10   -5.044E-10   -5.311E-10   -5.571E-10   -5.822E-10
    -6.065E-10   -6.300E-10   -6.527E-10   -6.745E-10   -6.955E-10   -7.157E-10   -7.351E-10   -7.537E-10   -7.714E-10   -7.883E-10
    -8.044E-10   -8.196E-10   -8.340E-10   -8.476E-10   -8.604E-10   -8.723E-10   -8.834E-10   -8.936E-10   -9.030E-10   -9.116E-10
    -9.193E-10   -9.262E-10   -9.323E-10   -9.377E-10   -9.422E-10   -9.461E-10   -9.492E-10   -9.516E-10   -9.533E-10   -9.543E-10
    -9.547E-10   -9.544E-10   -9.535E-10   -9.520E-10   -9.499E-10   -9.473E-10   -9.441E-10   -9.403E-10   -9.361E-10   -9.313E-10
    -9.261E-10   -9.204E-10   -9.142E-10   -9.077E-10   -9.007E-10   -8.933E-10   -8.856E-10   -8.774E-10   -8.690E-10   -8.602E-10
    -8.511E-10   -8.418E-10   -8.321E-10   -8.222E-10   -8.121E-10   -8.017E-10   -7.912E-10   -7.805E-10   -7.696E-10   -7.585E-10
    -7.473E-10   -7.360E-10   -7.246E-10   -7.132E-10   -7.016E-10   -6.901E-10   -6.785E-10   -6.669E-10   -6.552E-10   -6.437E-10
    -6.321E-10   -6.207E-10   -6.093E-10   -5.979E-10   -5.866E-10   -5.754E-10   -5.642E-10   -5.531E-10   -5.420E-10   -5.310E-10
    -5.201E-10   -5.092E-10   -4.983E-10   -4.875E-10   -4.767E-10   -4.660E-10   -4.553E-10   -4.447E-10   -4.341E-10   -4.235E-10
    -4.130E-10   -4.025E-10   -3.920E-10   -3.815E-10   -3.711E-10   -3.607E-10   -3.503E-10   -3.400E-10   -3.297E-10   -3.194E-10
    -3.091E-10   -2.988E-10   -2.885E-10   -2.783E-10   -2.681E-10   -2.578E-10   -2.476E-10   -2.374E-10   -2.272E-10   -2.170E-10
    -2.068E-10   -1.966E-10   -1.864E-10   -1.762E-10   -1.659E-10   -1.557E-10   -1.455E-10   -1.352E-10   -1.250E-10   -1.147E-10
    -1.044E-10   -9.412E-11   -8.380E-11
 Ala      Conc. = 4.21E-10
  -6.18562E-10 -6.13646E-10 -5.21119E-10 -4.50496E-10 -4.30732E-10 -4.08117E-10 -2.92406E-10 -3.09136E-10 -3.74396E-10 -2.29006E-10
  -2.20890E-10 -2.85626E-10 -2.18080E-10 -1.85523E-10 -1.71515E-10 -1.41149E-10 -1.03406E-10 -6.18713E-11 -1.81556E-11  2.69406E-11
   7.29455E-11  1.19579E-10  1.66666E-10  2.14075E-10  2.61713E-10  3.09526E-10  3.57460E-10  4.05483E-10  4.53560E-10  5.01674E-10
   5.49810E-10  5.97932E-10  6.46047E-10  6.94133E-10  7.42184E-10  7.90185E-10  8.38131E-10  8.86023E-10  9.33838E-10  9.81568E-10
   1.02923E-09  1.07681E-09  1.12428E-09  1.17165E-09  1.21893E-09  1.26609E-09  1.31314E-09  1.36007E-09  1.40688E-09  1.45355E-09
   1.50010E-09  1.54651E-09  1.59278E-09  1.63890E-09  1.68486E-09  1.73065E-09  1.77626E-09  1.82168E-09  1.86689E-09  1.91189E-09
   1.95666E-09  2.00119E-09  2.04547E-09  2.08949E-09  2.13325E-09  2.17672E-09  2.21990E-09  2.26279E-09  2.30536E-09  2.34761E-09
   2.38954E-09  2.43113E-09  2.47238E-09  2.51328E-09  2.55382E-09  2.59400E-09  2.63381E-09  2.67326E-09  2.71234E-09  2.75105E-09
   2.78940E-09  2.82740E-09  2.86505E-09  2.90239E-09  2.93943E-09  2.97622E-09  3.01281E-09  3.04928E-09  3.08573E-09  3.12231E-09
   3.15924E-09  3.19683E-09  3.23558E-09  3.27626E-09  3.32021E-09  3.36983E-09  3.42999E-09  3.51212E-09  3.65013E-09  3.98387E-09
   4.44262E-09  4.09343E-09  4.37694E-09  4.93958E-09  4.84847E-09  4.93124E-09  4.99219E-09  5.01879E-09  5.05171E-09  5.18175E-09
   5.23645E-09  4.41213E-09  4.52427E-09  4.75303E-09  4.13264E-09  3.94244E-09  3.86778E-09  3.83225E-09  3.81378E-09  3.80388E-09
   3.79862E-09  3.79593E-09  3.79463E-09  3.79401E-09  3.79357E-09  3.79300E-09  3.79208E-09  3.79065E-09  3.78857E-09  3.78575E-09
   3.78212E-09  3.77761E-09  3.77218E-09  3.76578E-09  3.75837E-09  3.74993E-09  3.74042E-09  3.72983E-09  3.71812E-09  3.70528E-09
   3.69128E-09  3.67611E-09  3.65975E-09  3.64219E-09  3.62340E-09  3.60338E-09  3.58211E-09  3.55958E-09  3.53577E-09  3.51068E-09
   3.48429E-09  3.45661E-09  3.42761E-09  3.39731E-09  3.36569E-09  3.33278E-09  3.29861E-09  3.26323E-09  3.22678E-09  3.18943E-09
   3.15143E-09  3.11323E-09  3.07568E-09  3.04069E-09  3.01350E-09  3.01361E-09  3.15556E-09  3.50706E-09  3.29255E-09  3.24623E-09
   3.20654E-09  3.18756E-09  3.18670E-09  3.17985E-09  3.13312E-09  3.05768E-09  3.04834E-09  3.11054E-09  2.51404E-09  2.32741E-09
   2.22762E-09  2.15065E-09  2.08229E-09  2.01792E-09  1.95566E-09  1.89466E-09  1.83442E-09  1.77471E-09  1.71540E-09  1.65640E-09
   1.59767E-09  1.53921E-09  1.48100E-09  1.42309E-09  1.36545E-09  1.30814E-09  1.25116E-09  1.19457E-09  1.13838E-09  1.08265E-09
   1.02739E-09  9.72658E-10  9.18481E-10  8.64897E-10  8.11948E-10  7.59670E-10  7.08122E-10  6.57308E-10  6.07293E-10  5.58063E-10
   5.09625E-10  4.61976E-10  4.15121E-10  3.69054E-10  3.23780E-10  2.79293E-10  2.35605E-10  1.92711E-10  1.50607E-10  1.09296E-10
   6.87891E-11  2.90760E-11 -9.83965E-12 -4.79549E-11 -8.52717E-11 -1.21787E-10 -1.57491E-10 -1.92402E-10 -2.26514E-10 -2.59810E-10
  -2.92299E-10 -3.23984E-10 -3.54855E-10 -3.84921E-10 -4.14172E-10 -4.42618E-10 -4.70250E-10 -4.97063E-10 -5.23062E-10 -5.48244E-10
  -5.72608E-10 -5.96150E-10 -6.18873E-10 -6.40777E-10 -6.61855E-10 -6.82110E-10 -7.01543E-10 -7.20159E-10 -7.37933E-10 -7.54875E-10
  -7.70995E-10 -7.86288E-10 -8.00744E-10 -8.14360E-10 -8.27157E-10 -8.39107E-10 -8.50225E-10 -8.60499E-10 -8.69942E-10 -8.78547E-10
  -8.86314E-10 -8.93266E-10 -8.99419E-10 -9.04792E-10 -9.09402E-10 -9.13267E-10 -9.16404E-10 -9.18832E-10 -9.20566E-10 -9.21626E-10
  -9.22029E-10 -9.21792E-10 -9.20933E-10 -9.19469E-10 -9.17419E-10 -9.14798E-10 -9.11627E-10 -9.07921E-10 -9.03698E-10 -8.98977E-10
  -8.93774E-10 -8.88106E-10 -8.81993E-10 -8.75451E-10 -8.68497E-10 -8.61149E-10 -8.53425E-10 -8.45343E-10 -8.36919E-10 -8.28171E-10
  -8.19117E-10 -8.09775E-10 -8.00162E-10 -7.90294E-10 -7.80191E-10 -7.69868E-10 -7.59345E-10 -7.48638E-10 -7.37765E-10 -7.26743E-10
  -7.15589E-10 -7.04322E-10 -6.92958E-10 -6.81516E-10 -6.70012E-10 -6.58464E-10 -6.46889E-10 -6.35306E-10 -6.23729E-10 -6.12179E-10
  -6.00672E-10 -5.89223E-10 -5.77840E-10 -5.66519E-10 -5.55259E-10 -5.44058E-10 -5.32915E-10 -5.21827E-10 -5.10794E-10 -4.99813E-10
  -4.88885E-10 -4.78003E-10 -4.67170E-10 -4.56383E-10 -4.45640E-10 -4.34940E-10 -4.24280E-10 -4.13660E-10 -4.03077E-10 -3.92529E-10
  -3.82017E-10 -3.71537E-10 -3.61086E-10 -3.50667E-10 -3.40274E-10 -3.29906E-10 -3.19564E-10 -3.09244E-10 -2.98945E-10 -2.88664E-10
  -2.78402E-10 -2.68156E-10 -2.57924E-10 -2.47705E-10 -2.37494E-10 -2.27294E-10 -2.17104E-10 -2.06917E-10 -1.96736E-10 -1.86555E-10
  -1.76378E-10 -1.66199E-10 -1.56019E-10 -1.45832E-10 -1.35639E-10 -1.25443E-10 -1.15238E-10 -1.05017E-10 -9.47889E-11 -8.45452E-11
  -7.42859E-11 -6.40097E-11 -5.37139E-11
 Asp      Conc. = 3.09E-09
   2.40856E-09  2.64149E-09  1.77919E-09  1.90255E-09  1.21843E-09  1.11635E-09  9.51186E-10  5.67167E-10  1.10492E-10 -3.80764E-11
  -8.58248E-11 -9.05637E-11 -7.39417E-11 -5.08218E-11 -5.89240E-12  4.05893E-11  8.78557E-11  1.36979E-10  1.87862E-10  2.40332E-10
   2.94245E-10  3.49538E-10  4.06216E-10  4.64338E-10  5.24025E-10  5.85489E-10  6.49014E-10  7.15013E-10  7.84043E-10  8.56907E-10
   9.34752E-10  1.01927E-09  1.11316E-09  1.22097E-09  1.35118E-09  1.52224E-09  1.78358E-09  2.22104E-09  2.19285E-09  2.57372E-09
   2.37943E-09  2.51244E-09  2.78124E-09  3.48004E-09  4.14284E-09  5.11584E-09  5.70236E-09  5.06211E-09  4.71281E-09  6.11227E-09
   5.59879E-09  5.81640E-09  6.34081E-09  6.42218E-09  6.07257E-09  6.08502E-09  5.77111E-09  4.05904E-09  3.95447E-09  4.81528E-09
   3.76532E-09  3.35874E-09  3.52314E-09  3.12368E-09  2.91580E-09  3.07815E-09  3.34921E-09  3.05759E-09  2.92334E-09  2.85980E-09
   2.83035E-09  2.82009E-09  2.82179E-09  2.83147E-09  2.84672E-09  2.86597E-09  2.88817E-09  2.91255E-09  2.93858E-09  2.96582E-09
   2.99398E-09  3.02279E-09  3.05207E-09  3.08164E-09  3.11137E-09  3.14116E-09  3.17090E-09  3.20053E-09  3.22997E-09  3.25916E-09
   3.28805E-09  3.31659E-09  3.34474E-09  3.37247E-09  3.39974E-09  3.42652E-09  3.45277E-09  3.47849E-09  3.50362E-09  3.52816E-09
   3.55208E-09  3.57536E-09  3.59799E-09  3.61994E-09  3.64120E-09  3.66173E-09  3.68154E-09  3.70060E-09  3.71889E-09  3.73639E-09
   3.75311E-09  3.76901E-09  3.78409E-09  3.79832E-09  3.81169E-09  3.82418E-09  3.83579E-09  3.84650E-09  3.85629E-09  3.86515E-09
   3.87306E-09  3.88002E-09  3.88601E-09  3.89101E-09  3.89502E-09  3.89801E-09  3.89998E-09  3.90091E-09  3.90079E-09  3.89961E-09
   3.89735E-09  3.89400E-09  3.88956E-09  3.88400E-09  3.87731E-09  3.86949E-09  3.86052E-09  3.85040E-09  3.83910E-09  3.82662E-09
   3.81296E-09  3.79809E-09  3.78202E-09  3.76474E-09  3.74623E-09  3.72650E-09  3.70554E-09  3.68335E-09  3.65995E-09  3.63533E-09
   3.60951E-09  3.58252E-09  3.55439E-09  3.52517E-09  3.49493E-09  3.46379E-09  3.43191E-09  3.39956E-09  3.36716E-09  3.33532E-09
   3.30502E-09  3.27789E-09  3.25688E-09  3.24788E-09  3.26426E-09  3.34254E-09  3.61585E-09  4.83797E-09  7.87158E-09  6.61200E-09
   6.56339E-09  6.58248E-09  6.75656E-09  7.07304E-09  7.36161E-09  7.36388E-09  7.14820E-09  7.33898E-09  8.34069E-09  4.26196E-09
   3.17294E-09  2.77774E-09  2.56307E-09  2.41669E-09  2.30259E-09  2.20609E-09  2.12016E-09  2.04104E-09  1.96660E-09  1.89551E-09
   1.82691E-09  1.76025E-09  1.69513E-09  1.63132E-09  1.56859E-09  1.50685E-09  1.44599E-09  1.38597E-09  1.32672E-09  1.26824E-09
   1.21052E-09  1.15356E-09  1.09735E-09  1.04192E-09  9.87277E-10  9.33443E-10  8.80458E-10  8.28315E-10  7.77068E-10  7.26693E-10
   6.77186E-10  6.28539E-10  5.80747E-10  5.33802E-10  4.87704E-10  4.42441E-10  3.98018E-10  3.54430E-10  3.11670E-10  2.69736E-10
   2.28637E-10  1.88361E-10  1.48908E-10  1.10281E-10  7.24754E-11  3.54926E-11 -6.58917E-13 -3.59992E-11 -7.05222E-11 -1.04213E-10
