 LCModel (Version 6.3-1R) Copyright: S.W. Provencher.          Ref.: Magn. Reson. Med. 30:672-679 (1993).                
 onepulse 26x27_ftSpec_smooth_lcm
 26 lines in following concentration table = NCONC+1
    Conc.  %SD /Cr+PCr  Metabolite                                         
    0.000 999%   0.000 Ala                                                 
    0.000 999%   0.000 Asp                                                 
    0.000 999%   0.000 Cr                                                  
    0.000 999%   0.000 GABA                                                
    0.000 999%   0.000 Glc                                                 
 1.66E-09  47%   3.312 Gln                                                 
    0.000 999%   0.000 Glu                                                 
    0.000 999%   0.000 Glyc                                                
 1.18E-10 114%   0.236 GPC                                                 
    0.000 999%   0.000 GSH                                                 
 1.78E-09  27%   3.552 Ins                                                 
    0.000 999%   0.000 Lac                                                 
 2.23E-10 166%   0.447 NAAG                                                
 5.31E-10 100%   1.061 NAA                                                 
    0.000 999%   0.000 PCh                                                 
 5.00E-10  68%   1.000 PCr                                                 
    0.000 999%   0.000 PE                                                  
 1.17E-11 999% 2.3E-02 Scyllo                                              
 5.43E-09  21%  10.858 Ser                                                 
 1.19E-09  76%   2.370 Tau                                                 
 1.18E-10 114%   0.236 GPC+PCh                                             
 7.54E-10  50%   1.508 NAA+NAAG                                            
 1.78E-09  27%   3.552 Ins+Glyc                                            
 5.00E-10  68%   1.000 Cr+PCr                                              
 1.66E-09  47%   3.312 Glu+Gln                                             
   6 lines in following misc. output table
  FWHM = 0.123 ppm    S/N =   3                                            
  Data shift = 0.347 ppm                                                   
  Ph: -33 deg     -22.1 deg/ppm                                            
  alphaB,S = 1.8E-01,   2.9E+00                                            
   16 spline knots.   Ns = 5(1)                                            
  ( 8) 5 infls.   (11) 3 extrs.                                            
  363 points on ppm-axis = NY
      4.250000     4.238821     4.227641     4.216462     4.205282     4.194103     4.182923     4.171744     4.160564     4.149385
      4.138206     4.127026     4.115847     4.104667     4.093488     4.082308     4.071129     4.059949     4.048770     4.037591
      4.026411     4.015232     4.004052     3.992873     3.981693     3.970514     3.959334     3.948155     3.936975     3.925796
      3.914617     3.903437     3.892258     3.881078     3.869899     3.858719     3.847540     3.836360     3.825181     3.814002
      3.802822     3.791643     3.780463     3.769284     3.758104     3.746925     3.735745     3.724566     3.713387     3.702207
      3.691028     3.679848     3.668669     3.657489     3.646310     3.635130     3.623951     3.612772     3.601592     3.590413
      3.579233     3.568054     3.556874     3.545695     3.534515     3.523336     3.512156     3.500977     3.489798     3.478618
      3.467439     3.456259     3.445080     3.433900     3.422721     3.411541     3.400362     3.389183     3.378003     3.366824
      3.355644     3.344465     3.333285     3.322106     3.310926     3.299747     3.288568     3.277388     3.266209     3.255029
      3.243850     3.232670     3.221491     3.210311     3.199132     3.187953     3.176773     3.165594     3.154414     3.143235
      3.132055     3.120876     3.109696     3.098517     3.087337     3.076158     3.064979     3.053799     3.042620     3.031440
      3.020261     3.009081     2.997902     2.986722     2.975543     2.964364     2.953184     2.942005     2.930825     2.919646
      2.908466     2.897287     2.886107     2.874928     2.863749     2.852569     2.841390     2.830210     2.819031     2.807851
      2.796672     2.785492     2.774313     2.763134     2.751954     2.740775     2.729595     2.718416     2.707236     2.696057
      2.684877     2.673698     2.662519     2.651339     2.640160     2.628980     2.617801     2.606621     2.595442     2.584262
      2.573083     2.561903     2.550724     2.539545     2.528365     2.517186     2.506006     2.494827     2.483647     2.472468
      2.461288     2.450109     2.438930     2.427750     2.416571     2.405391     2.394212     2.383032     2.371853     2.360673
      2.349494     2.338315     2.327135     2.315956     2.304776     2.293597     2.282417     2.271238     2.260058     2.248879
      2.237700     2.226520     2.215341     2.204161     2.192982     2.181802     2.170623     2.159443     2.148264     2.137084
      2.125905     2.114726     2.103546     2.092367     2.081187     2.070008     2.058828     2.047649     2.036469     2.025290
      2.014111     2.002931     1.991752     1.980572     1.969393     1.958213     1.947034     1.935854     1.924675     1.913496
      1.902316     1.891137     1.879957     1.868778     1.857598     1.846419     1.835239     1.824060     1.812881     1.801701
      1.790522     1.779342     1.768163     1.756983     1.745804     1.734624     1.723445     1.712265     1.701086     1.689907
      1.678727     1.667548     1.656368     1.645189     1.634009     1.622830     1.611650     1.600471     1.589292     1.578112
      1.566933     1.555753     1.544574     1.533394     1.522215     1.511035     1.499856     1.488677     1.477497     1.466318
      1.455138     1.443959     1.432779     1.421600     1.410420     1.399241     1.388062     1.376882     1.365703     1.354523
      1.343344     1.332164     1.320985     1.309805     1.298626     1.287446     1.276267     1.265088     1.253908     1.242729
      1.231549     1.220370     1.209190     1.198011     1.186831     1.175652     1.164473     1.153293     1.142114     1.130934
      1.119755     1.108575     1.097396     1.086216     1.075037     1.063858     1.052678     1.041499     1.030319     1.019140
      1.007960     0.996781     0.985601     0.974422     0.963243     0.952063     0.940884     0.929704     0.918525     0.907345
      0.896166     0.884986     0.873807     0.862628     0.851448     0.840269     0.829089     0.817910     0.806730     0.795551
      0.784371     0.773192     0.762012     0.750833     0.739654     0.728474     0.717295     0.706115     0.694936     0.683756
      0.672577     0.661397     0.650218     0.639039     0.627859     0.616680     0.605500     0.594321     0.583141     0.571962
      0.560782     0.549603     0.538424     0.527244     0.516065     0.504885     0.493706     0.482526     0.471347     0.460167
      0.448988     0.437809     0.426629     0.415450     0.404270     0.393091     0.381911     0.370732     0.359552     0.348373
      0.337193     0.326014     0.314835     0.303655     0.292476     0.281296     0.270117     0.258937     0.247758     0.236578
      0.225399     0.214220     0.203040
 NY phased data points follow
   1.46518E-08  1.35766E-08  1.80914E-08  1.44771E-08  1.66713E-08  1.28576E-08  1.51363E-08  1.19604E-08  1.45951E-08  1.11633E-08
   1.37630E-08  1.13469E-08  1.39942E-08  1.17280E-08  1.48141E-08  1.27705E-08  1.55901E-08  1.24197E-08  1.54958E-08  1.27250E-08
   1.52926E-08  1.24792E-08  1.41469E-08  1.11996E-08  1.37128E-08  1.17040E-08  1.52773E-08  1.24068E-08  1.43694E-08  1.15690E-08
   1.34236E-08  1.13605E-08  1.50846E-08  1.44381E-08  1.68717E-08  1.41774E-08  1.56355E-08  1.28951E-08  1.42797E-08  1.15192E-08
   1.29884E-08  1.11672E-08  1.29212E-08  1.01773E-08  1.21129E-08  9.76098E-09  1.20255E-08  8.59887E-09  1.04593E-08  8.55074E-09
   1.00551E-08  8.16415E-09  1.01679E-08  8.34390E-09  9.94045E-09  7.63395E-09  8.80405E-09  7.20427E-09  8.83255E-09  7.22134E-09
   9.17264E-09  7.43345E-09  9.48545E-09  9.26515E-09  1.35035E-08  1.26081E-08  1.38587E-08  1.12656E-08  1.19535E-08  9.43830E-09
   1.06562E-08  8.32060E-09  8.99015E-09  7.04215E-09  8.79506E-09  6.92958E-09  8.05145E-09  5.99627E-09  7.14886E-09  8.87881E-09
   1.39371E-08  1.51960E-08  1.82457E-08  1.52784E-08  1.57765E-08  1.35194E-08  1.42919E-08  1.23524E-08  1.32694E-08  1.18341E-08
   1.29985E-08  1.11354E-08  1.20273E-08  1.03205E-08  1.08426E-08  9.42952E-09  1.02842E-08  8.33879E-09  1.00620E-08  8.09345E-09
   8.82684E-09  7.69473E-09  9.48461E-09  8.10646E-09  9.41058E-09  8.06777E-09  8.91011E-09  7.76941E-09  8.78190E-09  6.25143E-09
   7.56358E-09  5.40484E-09  5.81987E-09  5.37042E-09  7.18067E-09  5.90431E-09  6.66973E-09  5.56147E-09  6.71336E-09  5.24136E-09
   6.90609E-09  5.10794E-09  6.18703E-09  4.78571E-09  5.14560E-09  3.25284E-09  4.24687E-09  2.71027E-09  4.27535E-09  3.12006E-09
   4.42345E-09  3.12308E-09  4.17250E-09  3.00696E-09  4.20499E-09  3.87420E-09  4.25695E-09  2.66490E-09  3.94829E-09  3.53899E-09
   5.63056E-09  5.47985E-09  7.38481E-09  6.02967E-09  6.73634E-09  6.09946E-09  8.37839E-09  7.53045E-09  8.92124E-09  7.81314E-09
   8.85768E-09  7.57618E-09  8.83501E-09  7.81683E-09  8.48191E-09  7.93927E-09  9.27627E-09  8.36598E-09  8.88019E-09  8.77234E-09
   9.61726E-09  9.20435E-09  1.02791E-08  9.65278E-09  1.07725E-08  9.62105E-09  1.07305E-08  1.11976E-08  1.18672E-08  1.11225E-08
   1.49645E-08  1.87455E-08  2.22156E-08  2.13851E-08  2.02104E-08  1.69851E-08  1.63982E-08  1.37051E-08  1.38331E-08  1.14261E-08
   1.09639E-08  9.28193E-09  8.97868E-09  7.08364E-09  6.87106E-09  4.54185E-09  4.38583E-09  2.02782E-09  1.97983E-09 -6.92639E-10
  -8.33087E-10 -3.63002E-09 -4.49379E-09 -6.96344E-09 -7.83148E-09 -1.07866E-08 -1.13690E-08 -1.45866E-08 -1.59291E-08 -1.83589E-08
  -1.90684E-08 -2.09873E-08 -2.08738E-08 -2.17896E-08 -2.08891E-08 -2.07221E-08 -1.86931E-08 -1.82867E-08 -1.50378E-08 -1.42540E-08
  -1.12622E-08 -9.87334E-09 -7.25155E-09 -6.10352E-09 -3.88837E-09 -3.88699E-09 -1.85867E-09 -2.48040E-09 -7.00069E-10 -1.44889E-09
  -6.43522E-10 -1.37693E-09 -9.77454E-10 -1.98059E-09 -1.58169E-09 -2.29473E-09 -1.66334E-09 -2.57131E-09 -1.49587E-09 -2.18823E-09
  -1.11517E-09 -1.87250E-09 -2.04639E-12 -9.32753E-10 -5.95623E-10 -1.52804E-09 -1.35950E-09 -2.54044E-09 -1.51582E-09 -1.97507E-09
  -7.31224E-10 -1.22062E-09  1.14074E-10 -1.07960E-09 -3.93848E-10 -1.74315E-09 -9.00482E-10 -1.43692E-09 -8.06267E-10 -1.30593E-09
  -3.72318E-10 -7.99996E-10  4.26999E-10 -9.45433E-11  6.36143E-10 -3.35925E-12  7.58213E-10 -6.45376E-10  2.94012E-10 -5.84286E-10
  -7.01053E-11 -6.47082E-10  7.15101E-11 -6.61888E-10 -3.04224E-10 -2.83244E-10  8.02444E-11 -5.54011E-10  9.05548E-10 -3.94574E-10
   5.00533E-10  3.12239E-10  6.08935E-10  4.15481E-10  7.18345E-10  4.59631E-10  9.11818E-10 -2.33416E-10  6.09587E-10 -2.99700E-10
   2.74653E-10 -4.25967E-10 -6.39112E-11 -7.92795E-10 -7.45225E-10 -5.75793E-10 -3.46057E-10 -8.65056E-10 -5.06941E-10 -5.46010E-10
  -3.13261E-10 -7.49171E-10 -2.45476E-10 -6.73265E-10  1.04017E-10 -8.20830E-10  2.64628E-10 -9.34291E-10 -1.36923E-10 -7.12724E-10
  -1.02194E-11 -7.07141E-10  6.10263E-11 -2.26713E-10  3.15416E-10 -9.49849E-10  1.11729E-10 -1.25389E-10 -2.50137E-10 -1.04464E-09
   2.53337E-10 -7.08253E-10 -2.24615E-10 -5.11246E-10 -7.19984E-11 -8.39624E-10 -9.47842E-11 -4.23299E-10 -8.86309E-11 -5.12076E-10
   4.45922E-10 -4.00856E-10  2.64628E-10 -7.71747E-10  1.45654E-10 -1.53165E-10  5.83341E-11 -4.49710E-10  1.31561E-10 -3.86933E-10
   1.46382E-10  2.12721E-11 -2.21622E-11 -3.45960E-10  1.33811E-10 -1.11294E-10  5.37471E-10 -8.84439E-11 -2.41026E-11 -3.79148E-10
   2.64259E-10 -1.17019E-10  3.09016E-10  2.70207E-10  2.30626E-10 -2.08291E-11  4.12948E-10  1.31067E-10  8.97046E-10  5.53571E-11
   4.94437E-10  2.68931E-10  5.86656E-10 -2.38229E-10  5.95979E-10  5.39113E-11  6.24126E-10  7.44531E-11  8.10698E-10 -1.33023E-10
   8.74310E-10  2.14396E-10  5.72118E-10
 NY points of the fit to the data follow
   1.27659E-08  1.30596E-08  1.86304E-08  1.61803E-08  1.49904E-08  1.40448E-08  1.34555E-08  1.42073E-08  1.42934E-08  1.29578E-08
   1.22084E-08  1.18558E-08  1.23240E-08  1.24283E-08  1.42419E-08  1.41267E-08  1.38392E-08  1.34947E-08  1.52551E-08  1.45242E-08
   1.35531E-08  1.28045E-08  1.30559E-08  1.14833E-08  1.36149E-08  1.20546E-08  1.31132E-08  1.25778E-08  1.36330E-08  1.33402E-08
   1.42857E-08  1.40741E-08  1.60975E-08  1.37010E-08  1.47727E-08  1.37969E-08  1.38026E-08  1.32066E-08  1.30900E-08  1.25419E-08
   1.26390E-08  1.16039E-08  1.32302E-08  1.16755E-08  1.07132E-08  1.02466E-08  9.78157E-09  9.52755E-09  9.23826E-09  9.12366E-09
   8.81703E-09  8.74156E-09  8.46685E-09  8.46250E-09  8.27245E-09  8.74637E-09  8.49945E-09  8.39826E-09  9.45677E-09  9.61717E-09
   9.62651E-09  1.01378E-08  1.08184E-08  1.09398E-08  1.08539E-08  1.12630E-08  1.12862E-08  1.01452E-08  1.08943E-08  1.03176E-08
   8.96478E-09  9.12967E-09  9.15907E-09  8.46688E-09  8.24797E-09  8.99206E-09  9.44927E-09  1.05322E-08  1.07985E-08  1.14920E-08
   1.22069E-08  1.36102E-08  1.48201E-08  1.48468E-08  1.43784E-08  1.51256E-08  1.44168E-08  1.45260E-08  1.35929E-08  1.19080E-08
   1.10262E-08  1.04749E-08  1.00755E-08  9.75634E-09  9.49932E-09  9.26451E-09  9.06520E-09  8.88126E-09  8.73795E-09  8.59287E-09
   8.44745E-09  8.31923E-09  8.21430E-09  8.10559E-09  8.00204E-09  7.90612E-09  7.81512E-09  7.72959E-09  7.64797E-09  7.56994E-09
   7.49519E-09  7.42340E-09  7.35429E-09  7.28761E-09  7.22304E-09  7.16028E-09  7.09911E-09  7.03925E-09  6.98050E-09  6.92262E-09
   6.86544E-09  6.80874E-09  6.75236E-09  6.69612E-09  6.63985E-09  6.58339E-09  6.52657E-09  6.46926E-09  6.41130E-09  6.35254E-09
   6.29284E-09  6.23206E-09  6.17008E-09  6.10676E-09  6.04198E-09  5.97560E-09  5.90751E-09  5.83761E-09  5.76578E-09  5.69189E-09
   5.61582E-09  5.53751E-09  5.45683E-09  5.37367E-09  5.28792E-09  5.19949E-09  5.10833E-09  5.01436E-09  4.91755E-09  4.81789E-09
   4.71542E-09  4.61019E-09  4.50235E-09  4.39211E-09  4.27983E-09  4.16599E-09  4.05136E-09  3.93707E-09  3.82489E-09  3.71755E-09
   3.61965E-09  3.53925E-09  3.49199E-09  3.51206E-09  3.69158E-09  4.37477E-09  7.46824E-09  1.17932E-08  1.28658E-08  1.14034E-08
   1.57860E-08  1.99980E-08  2.28114E-08  2.16030E-08  2.04888E-08  1.80795E-08  1.70072E-08  1.62429E-08  1.27298E-08  3.30535E-09
   9.14422E-10 -6.53091E-11 -6.47996E-10 -1.07292E-09 -1.41992E-09 -1.72214E-09 -1.99531E-09 -2.24766E-09 -2.48372E-09 -2.70608E-09
  -2.91624E-09 -3.11500E-09 -3.30276E-09 -3.47962E-09 -3.64556E-09 -3.80040E-09 -3.94403E-09 -4.07674E-09 -4.19890E-09 -4.31081E-09
  -4.41278E-09 -4.50506E-09 -4.58794E-09 -4.66163E-09 -4.72641E-09 -4.78248E-09 -4.83009E-09 -4.86945E-09 -4.90079E-09 -4.92433E-09
  -4.94028E-09 -4.94886E-09 -4.95028E-09 -4.94476E-09 -4.93252E-09 -4.91376E-09 -4.88869E-09 -4.85753E-09 -4.82049E-09 -4.77778E-09
  -4.72960E-09 -4.67617E-09 -4.61770E-09 -4.55440E-09 -4.48650E-09 -4.41429E-09 -4.33807E-09 -4.25813E-09 -4.17477E-09 -4.08827E-09
  -3.99892E-09 -3.90701E-09 -3.81282E-09 -3.71662E-09 -3.61870E-09 -3.51932E-09 -3.41877E-09 -3.31730E-09 -3.21516E-09 -3.11265E-09
  -3.01001E-09 -2.90747E-09 -2.80531E-09 -2.70376E-09 -2.60305E-09 -2.50344E-09 -2.40514E-09 -2.30839E-09 -2.21341E-09 -2.12043E-09
  -2.02963E-09 -1.94126E-09 -1.85538E-09 -1.77198E-09 -1.69101E-09 -1.61243E-09 -1.53619E-09 -1.46226E-09 -1.39058E-09 -1.32111E-09
  -1.25381E-09 -1.18863E-09 -1.12554E-09 -1.06448E-09 -1.00543E-09 -9.48330E-10 -8.93130E-10 -8.39814E-10 -7.88326E-10 -7.38618E-10
  -6.90651E-10 -6.44395E-10 -5.99795E-10 -5.56816E-10 -5.15429E-10 -4.75571E-10 -4.37228E-10 -4.00347E-10 -3.64896E-10 -3.30829E-10
  -2.98114E-10 -2.66712E-10 -2.36583E-10 -2.07687E-10 -1.79992E-10 -1.53456E-10 -1.28047E-10 -1.03727E-10 -8.04627E-11 -5.82219E-11
  -3.69693E-11 -1.66741E-11  2.69601E-12  2.11706E-11  3.87796E-11  5.55522E-11  7.15155E-11  8.66980E-11  1.01123E-10  1.14821E-10
   1.27809E-10  1.40117E-10  1.51766E-10  1.62773E-10  1.73162E-10  1.82955E-10  1.92164E-10  2.00812E-10  2.08899E-10  2.16423E-10
   2.23377E-10  2.29761E-10  2.35570E-10  2.40800E-10  2.45447E-10  2.49507E-10  2.52976E-10  2.55852E-10  2.58129E-10  2.59802E-10
   2.60870E-10  2.61326E-10  2.61168E-10  2.60392E-10  2.58993E-10  2.56967E-10  2.54311E-10  2.51018E-10  2.47086E-10  2.42511E-10
   2.37287E-10  2.31411E-10  2.24878E-10  2.17685E-10  2.09826E-10  2.01298E-10  1.92093E-10  1.82204E-10  1.71622E-10  1.60343E-10
   1.48358E-10  1.35662E-10  1.22246E-10  1.08108E-10  9.32407E-11  7.76392E-11  6.12992E-11  4.42149E-11  2.63822E-11  7.79898E-12
  -1.15406E-11 -3.16375E-11 -5.24961E-11 -7.41206E-11 -9.65101E-11 -1.19669E-10 -1.43598E-10 -1.68300E-10 -1.93774E-10 -2.20022E-10
  -2.47044E-10 -2.74840E-10 -3.03410E-10
 NY background values follow
     2.939E-09    3.005E-09    3.070E-09    3.135E-09    3.198E-09    3.261E-09    3.323E-09    3.384E-09    3.444E-09    3.503E-09
     3.561E-09    3.619E-09    3.675E-09    3.731E-09    3.786E-09    3.840E-09    3.893E-09    3.945E-09    3.996E-09    4.046E-09
     4.096E-09    4.144E-09    4.192E-09    4.239E-09    4.285E-09    4.330E-09    4.374E-09    4.417E-09    4.459E-09    4.500E-09
     4.541E-09    4.580E-09    4.619E-09    4.657E-09    4.694E-09    4.730E-09    4.765E-09    4.799E-09    4.833E-09    4.865E-09
     4.897E-09    4.928E-09    4.958E-09    4.987E-09    5.016E-09    5.043E-09    5.070E-09    5.097E-09    5.122E-09    5.147E-09
     5.171E-09    5.194E-09    5.217E-09    5.238E-09    5.260E-09    5.280E-09    5.300E-09    5.319E-09    5.337E-09    5.355E-09
     5.373E-09    5.389E-09    5.405E-09    5.420E-09    5.435E-09    5.449E-09    5.462E-09    5.475E-09    5.487E-09    5.498E-09
     5.509E-09    5.518E-09    5.528E-09    5.536E-09    5.544E-09    5.551E-09    5.558E-09    5.564E-09    5.569E-09    5.573E-09
     5.577E-09    5.579E-09    5.582E-09    5.583E-09    5.584E-09    5.584E-09    5.583E-09    5.581E-09    5.579E-09    5.577E-09
     5.573E-09    5.569E-09    5.564E-09    5.559E-09    5.553E-09    5.547E-09    5.540E-09    5.533E-09    5.525E-09    5.517E-09
     5.508E-09    5.499E-09    5.490E-09    5.480E-09    5.470E-09    5.459E-09    5.449E-09    5.438E-09    5.426E-09    5.415E-09
     5.403E-09    5.392E-09    5.380E-09    5.368E-09    5.355E-09    5.343E-09    5.329E-09    5.316E-09    5.301E-09    5.286E-09
     5.271E-09    5.254E-09    5.236E-09    5.217E-09    5.197E-09    5.175E-09    5.153E-09    5.128E-09    5.102E-09    5.074E-09
     5.045E-09    5.013E-09    4.979E-09    4.943E-09    4.905E-09    4.865E-09    4.822E-09    4.776E-09    4.728E-09    4.677E-09
     4.623E-09    4.566E-09    4.506E-09    4.442E-09    4.376E-09    4.305E-09    4.231E-09    4.153E-09    4.071E-09    3.985E-09
     3.894E-09    3.800E-09    3.700E-09    3.597E-09    3.488E-09    3.375E-09    3.256E-09    3.133E-09    3.004E-09    2.870E-09
     2.730E-09    2.585E-09    2.434E-09    2.277E-09    2.114E-09    1.946E-09    1.771E-09    1.589E-09    1.402E-09    1.209E-09
     1.010E-09    8.066E-10    5.993E-10    3.885E-10    1.749E-10   -4.095E-11   -2.584E-10   -4.770E-10   -6.959E-10   -9.147E-10
    -1.133E-09   -1.349E-09   -1.564E-09   -1.776E-09   -1.985E-09   -2.190E-09   -2.391E-09   -2.586E-09   -2.777E-09   -2.961E-09
    -3.138E-09   -3.308E-09   -3.471E-09   -3.625E-09   -3.770E-09   -3.905E-09   -4.031E-09   -4.146E-09   -4.253E-09   -4.349E-09
    -4.437E-09   -4.515E-09   -4.585E-09   -4.645E-09   -4.698E-09   -4.742E-09   -4.777E-09   -4.805E-09   -4.825E-09   -4.838E-09
    -4.843E-09   -4.841E-09   -4.832E-09   -4.816E-09   -4.794E-09   -4.766E-09   -4.731E-09   -4.690E-09   -4.644E-09   -4.592E-09
    -4.535E-09   -4.472E-09   -4.405E-09   -4.333E-09   -4.256E-09   -4.176E-09   -4.091E-09   -4.003E-09   -3.911E-09   -3.817E-09
    -3.719E-09   -3.620E-09   -3.518E-09   -3.414E-09   -3.308E-09   -3.201E-09   -3.093E-09   -2.984E-09   -2.875E-09   -2.765E-09
    -2.655E-09   -2.546E-09   -2.437E-09   -2.328E-09   -2.221E-09   -2.114E-09   -2.009E-09   -1.906E-09   -1.804E-09   -1.705E-09
    -1.607E-09   -1.513E-09   -1.420E-09   -1.331E-09   -1.244E-09   -1.159E-09   -1.077E-09   -9.967E-10   -9.190E-10   -8.437E-10
    -7.705E-10   -6.996E-10   -6.308E-10   -5.640E-10   -4.994E-10   -4.367E-10   -3.760E-10   -3.172E-10   -2.603E-10   -2.053E-10
    -1.520E-10   -1.005E-10   -5.072E-11   -2.600E-12    4.388E-11    8.878E-11    1.321E-10    1.739E-10    2.143E-10    2.532E-10
     2.907E-10    3.269E-10    3.617E-10    3.953E-10    4.276E-10    4.587E-10    4.886E-10    5.174E-10    5.451E-10    5.718E-10
     5.974E-10    6.220E-10    6.456E-10    6.683E-10    6.901E-10    7.110E-10    7.310E-10    7.503E-10    7.687E-10    7.864E-10
     8.033E-10    8.195E-10    8.350E-10    8.498E-10    8.639E-10    8.775E-10    8.904E-10    9.027E-10    9.143E-10    9.254E-10
     9.359E-10    9.458E-10    9.551E-10    9.637E-10    9.717E-10    9.791E-10    9.859E-10    9.921E-10    9.976E-10    1.002E-09
     1.007E-09    1.010E-09    1.013E-09    1.015E-09    1.017E-09    1.018E-09    1.018E-09    1.018E-09    1.017E-09    1.015E-09
     1.013E-09    1.010E-09    1.006E-09    1.001E-09    9.961E-10    9.902E-10    9.836E-10    9.763E-10    9.683E-10    9.595E-10
     9.500E-10    9.397E-10    9.287E-10    9.169E-10    9.044E-10    8.911E-10    8.770E-10    8.622E-10    8.465E-10    8.301E-10
     8.129E-10    7.950E-10    7.762E-10    7.566E-10    7.362E-10    7.151E-10    6.931E-10    6.703E-10    6.467E-10    6.223E-10
     5.971E-10    5.712E-10    5.444E-10
 Gln      Conc. = 1.66E-09
   2.12031E-09  1.77499E-09  2.25393E-09  2.44000E-09  3.04986E-09  3.26288E-09  3.76211E-09  3.97297E-09  4.83734E-09  4.10068E-09
   5.30646E-09  4.87237E-09  4.71473E-09  4.87038E-09  4.65900E-09  4.51612E-09  4.42643E-09  4.36783E-09  4.33007E-09  4.30609E-09
   4.29232E-09  4.28539E-09  4.28365E-09  4.28631E-09  4.29127E-09  4.29792E-09  4.30801E-09  4.31770E-09  4.32869E-09  4.34029E-09
   4.35196E-09  4.36347E-09  4.37461E-09  4.38518E-09  4.39503E-09  4.40397E-09  4.41186E-09  4.41853E-09  4.42376E-09  4.42730E-09
   4.42956E-09  4.42922E-09  4.42762E-09  4.42311E-09  4.41619E-09  4.40619E-09  4.39385E-09  4.37561E-09  4.35579E-09  4.33333E-09
   4.30100E-09  4.26633E-09  4.23495E-09  4.22031E-09  4.30801E-09  4.80092E-09  4.57178E-09  4.64170E-09  5.77638E-09  6.04442E-09
   6.15486E-09  6.79619E-09  7.41573E-09  7.88820E-09  7.87385E-09  8.52683E-09  8.37647E-09  7.47938E-09  8.21072E-09  7.86206E-09
   6.57520E-09  6.81844E-09  6.85691E-09  6.33309E-09  6.28324E-09  6.95319E-09  6.83004E-09  7.20843E-09  7.53695E-09  8.16412E-09
   8.18524E-09  8.43631E-09  9.04159E-09  8.89097E-09  8.38859E-09  9.13386E-09  8.40232E-09  8.03455E-09  8.02043E-09  7.65040E-09
   7.37966E-09  7.18060E-09  7.02019E-09  6.89254E-09  6.78695E-09  6.69431E-09  6.61251E-09  6.54085E-09  6.47542E-09  6.41554E-09
   6.36121E-09  6.31086E-09  6.26350E-09  6.21929E-09  6.17684E-09  6.13696E-09  6.09899E-09  6.06262E-09  6.02770E-09  5.99408E-09
   5.96165E-09  5.93028E-09  5.89986E-09  5.87031E-09  5.84143E-09  5.81303E-09  5.78499E-09  5.75712E-09  5.72929E-09  5.70134E-09
   5.67315E-09  5.64456E-09  5.61545E-09  5.58569E-09  5.55514E-09  5.52367E-09  5.49117E-09  5.45749E-09  5.42254E-09  5.38618E-09
   5.34826E-09  5.30870E-09  5.26737E-09  5.22413E-09  5.17889E-09  5.13150E-09  5.08188E-09  5.02990E-09  4.97545E-09  4.91840E-09
   4.85861E-09  4.79602E-09  4.73046E-09  4.66180E-09  4.58991E-09  4.51465E-09  4.43591E-09  4.35355E-09  4.26746E-09  4.17750E-09
   4.08359E-09  3.98560E-09  3.88345E-09  3.77706E-09  3.66635E-09  3.55127E-09  3.43184E-09  3.30808E-09  3.18010E-09  3.04815E-09
   2.91267E-09  2.77450E-09  2.63530E-09  2.49844E-09  2.37213E-09  2.28054E-09  2.32513E-09  3.15528E-09  3.14635E-09  2.57504E-09
   2.93544E-09  3.51535E-09  3.84581E-09  3.55533E-09  3.12592E-09  2.79016E-09  2.03573E-09  2.18094E-09  1.64464E-09 -2.30870E-10
  -7.97771E-10 -1.13432E-09 -1.40585E-09 -1.65045E-09 -1.88032E-09 -2.10019E-09 -2.31199E-09 -2.51649E-09 -2.71385E-09 -2.90399E-09
  -3.08664E-09 -3.26144E-09 -3.42795E-09 -3.58570E-09 -3.73422E-09 -3.87301E-09 -4.00172E-09 -4.12046E-09 -4.22943E-09 -4.32883E-09
  -4.41886E-09 -4.49971E-09 -4.57159E-09 -4.63469E-09 -4.68921E-09 -4.73533E-09 -4.77326E-09 -4.80321E-09 -4.82536E-09 -4.83992E-09
  -4.84710E-09 -4.84708E-09 -4.84007E-09 -4.82629E-09 -4.80591E-09 -4.77917E-09 -4.74625E-09 -4.70736E-09 -4.66271E-09 -4.61251E-09
  -4.55694E-09 -4.49623E-09 -4.43058E-09 -4.36019E-09 -4.28529E-09 -4.20618E-09 -4.12314E-09 -4.03647E-09 -3.94645E-09 -3.85338E-09
  -3.75754E-09 -3.65920E-09 -3.55867E-09 -3.45620E-09 -3.35206E-09 -3.24655E-09 -3.13993E-09 -3.03246E-09 -2.92438E-09 -2.81599E-09
  -2.70753E-09 -2.59924E-09 -2.49139E-09 -2.38420E-09 -2.27792E-09 -2.17279E-09 -2.06903E-09 -1.96687E-09 -1.86654E-09 -1.76825E-09
  -1.67221E-09 -1.57864E-09 -1.48762E-09 -1.39913E-09 -1.31312E-09 -1.22955E-09 -1.14836E-09 -1.06953E-09 -9.92999E-10 -9.18728E-10
  -8.46677E-10 -7.76792E-10 -7.09040E-10 -6.43369E-10 -5.79744E-10 -5.18117E-10 -4.58434E-10 -4.00678E-10 -3.44793E-10 -2.90731E-10
  -2.38452E-10 -1.87927E-10 -1.39098E-10 -9.19323E-11 -4.63986E-11 -2.43502E-12  3.99735E-11  8.08807E-11  1.20318E-10  1.58333E-10
   1.94957E-10  2.30230E-10  2.64192E-10  2.96883E-10  3.28336E-10  3.58593E-10  3.87686E-10  4.15653E-10  4.42528E-10  4.68344E-10
   4.93135E-10  5.16934E-10  5.39772E-10  5.61679E-10  5.82686E-10  6.02822E-10  6.22115E-10  6.40591E-10  6.58277E-10  6.75202E-10
   6.91384E-10  7.06853E-10  7.21629E-10  7.35730E-10  7.49182E-10  7.62003E-10  7.74210E-10  7.85824E-10  7.96844E-10  8.07269E-10
   8.17094E-10  8.26317E-10  8.34934E-10  8.42940E-10  8.50333E-10  8.57108E-10  8.63262E-10  8.68791E-10  8.73692E-10  8.77959E-10
   8.81591E-10  8.84582E-10  8.86929E-10  8.88628E-10  8.89674E-10  8.90065E-10  8.89796E-10  8.88863E-10  8.87261E-10  8.84988E-10
   8.82038E-10  8.78407E-10  8.74092E-10  8.69088E-10  8.63391E-10  8.56996E-10  8.49896E-10  8.42085E-10  8.33555E-10  8.24298E-10
   8.14310E-10  8.03582E-10  7.92109E-10  7.79886E-10  7.66907E-10  7.53167E-10  7.38662E-10  7.23386E-10  7.07336E-10  6.90508E-10
   6.72899E-10  6.54505E-10  6.35322E-10  6.15350E-10  5.94585E-10  5.73026E-10  5.50671E-10  5.27518E-10  5.03567E-10  4.78816E-10
   4.53267E-10  4.26918E-10  3.99770E-10
 GPC      Conc. = 1.18E-10
   2.79362E-09  2.87351E-09  3.03237E-09  3.03749E-09  3.20887E-09  3.16253E-09  3.26070E-09  3.27161E-09  3.43071E-09  3.55362E-09
   3.74031E-09  3.79419E-09  3.98864E-09  3.95084E-09  4.11745E-09  4.08973E-09  4.09997E-09  3.99457E-09  3.90998E-09  3.83447E-09
   3.75365E-09  3.64211E-09  3.49048E-09  3.66347E-09  4.50805E-09  3.96786E-09  4.20201E-09  4.43073E-09  5.29253E-09  5.57207E-09
   5.95358E-09  6.02867E-09  6.31063E-09  6.09158E-09  7.29703E-09  6.43576E-09  6.04529E-09  5.84756E-09  5.73139E-09  5.65745E-09
   5.60845E-09  5.57546E-09  5.55339E-09  5.53907E-09  5.53045E-09  5.52605E-09  5.52490E-09  5.52625E-09  5.52950E-09  5.53427E-09
   5.54022E-09  5.54705E-09  5.55455E-09  5.56258E-09  5.57107E-09  5.57975E-09  5.58857E-09  5.59751E-09  5.60644E-09  5.61535E-09
   5.62413E-09  5.63276E-09  5.64114E-09  5.64928E-09  5.65716E-09  5.66473E-09  5.67194E-09  5.67878E-09  5.68522E-09  5.69123E-09
   5.69679E-09  5.70190E-09  5.70652E-09  5.71065E-09  5.71425E-09  5.71734E-09  5.71988E-09  5.72185E-09  5.72326E-09  5.72410E-09
   5.72431E-09  5.72395E-09  5.72293E-09  5.72132E-09  5.71902E-09  5.71611E-09  5.71257E-09  5.70842E-09  5.70367E-09  5.69832E-09
   5.69243E-09  5.68597E-09  5.67899E-09  5.67149E-09  5.66349E-09  5.65500E-09  5.64606E-09  5.63669E-09  5.62689E-09  5.61671E-09
   5.60612E-09  5.59520E-09  5.58394E-09  5.57237E-09  5.56051E-09  5.54837E-09  5.53600E-09  5.52340E-09  5.51061E-09  5.49765E-09
   5.48454E-09  5.47131E-09  5.45795E-09  5.44446E-09  5.43074E-09  5.41669E-09  5.40223E-09  5.38726E-09  5.37168E-09  5.35539E-09
   5.33830E-09  5.32030E-09  5.30131E-09  5.28122E-09  5.25992E-09  5.23733E-09  5.21332E-09  5.18780E-09  5.16068E-09  5.13183E-09
   5.10115E-09  5.06854E-09  5.03390E-09  4.99709E-09  4.95805E-09  4.91664E-09  4.87276E-09  4.82632E-09  4.77719E-09  4.72527E-09
   4.67041E-09  4.61256E-09  4.55155E-09  4.48725E-09  4.41952E-09  4.34824E-09  4.27328E-09  4.19449E-09  4.11175E-09  4.02493E-09
   3.93391E-09  3.83854E-09  3.73872E-09  3.63431E-09  3.52519E-09  3.41124E-09  3.29235E-09  3.16840E-09  3.03930E-09  2.90493E-09
   2.76525E-09  2.62021E-09  2.46989E-09  2.31448E-09  2.15486E-09  1.99421E-09  1.85052E-09  1.77881E-09  1.49969E-09  1.35876E-09
   1.18365E-09  1.07225E-09  8.46783E-10  6.45666E-10  3.90833E-10  1.92917E-10 -1.10386E-10 -2.02620E-10 -6.01402E-10 -8.68036E-10
  -1.09929E-09 -1.32164E-09 -1.53946E-09 -1.75361E-09 -1.96398E-09 -2.17027E-09 -2.37199E-09 -2.56864E-09 -2.75964E-09 -2.94446E-09
  -3.12254E-09 -3.29334E-09 -3.45627E-09 -3.61078E-09 -3.75632E-09 -3.89235E-09 -4.01848E-09 -4.13478E-09 -4.24144E-09 -4.33864E-09
  -4.42656E-09 -4.50539E-09 -4.57531E-09 -4.63651E-09 -4.68918E-09 -4.73352E-09 -4.76972E-09 -4.79797E-09 -4.81846E-09 -4.83140E-09
  -4.83698E-09 -4.83541E-09 -4.82687E-09 -4.81159E-09 -4.78974E-09 -4.76155E-09 -4.72721E-09 -4.68692E-09 -4.64090E-09 -4.58933E-09
  -4.53243E-09 -4.47040E-09 -4.40345E-09 -4.33177E-09 -4.25562E-09 -4.17526E-09 -4.09099E-09 -4.00310E-09 -3.91189E-09 -3.81763E-09
