 LCModel (Version 6.3-1R) Copyright: S.W. Provencher.          Ref.: Magn. Reson. Med. 30:672-679 (1993).                
 onepulse 26x20_ftSpec_smooth_lcm
 26 lines in following concentration table = NCONC+1
    Conc.  %SD   /Cr    Metabolite                                         
 2.32E-10 196%   0.000 Ala                                                 
 1.05E-09 109%   0.000 Asp                                                 
    0.000 999%   0.000 Cr                                                  
 3.25E-09  31%   0.000 GABA                                                
 2.23E-09  36%   0.000 Glc                                                 
    0.000 999%   0.000 Gln                                                 
    0.000 999%   0.000 Glu                                                 
    0.000 999%   0.000 Glyc                                                
 1.80E-10  72%   0.000 GPC                                                 
 1.53E-10 353%   0.000 GSH                                                 
 5.22E-10 110%   0.000 Ins                                                 
    0.000 999%   0.000 Lac                                                 
    0.000 999%   0.000 NAAG                                                
 1.08E-09  37%   0.000 NAA                                                 
    0.000 999%   0.000 PCh                                                 
    0.000 999%   0.000 PCr                                                 
    0.000 999%   0.000 PE                                                  
    0.000 999%   0.000 Scyllo                                              
 2.57E-10 634%   0.000 Ser                                                 
    0.000 999%   0.000 Tau                                                 
 1.80E-10  72%   0.000 GPC+PCh                                             
 1.08E-09  37%   0.000 NAA+NAAG                                            
 5.22E-10 110%   0.000 Ins+Glyc                                            
    0.000 999%   0.000 Cr+PCr                                              
    0.000 999%   0.000 Glu+Gln                                             
   6 lines in following misc. output table
  FWHM = 0.089 ppm    S/N =   2                                            
  Data shift = 0.335 ppm                                                   
  Ph:  49 deg      18.0 deg/ppm                                            
  alphaB,S = 1.9E-01,   4.4E+01                                            
   16 spline knots.   Ns = 5(1)                                            
  (10) 2 infls.   ( 5) 1 extrs.                                            
  363 points on ppm-axis = NY
      4.250000     4.238821     4.227641     4.216462     4.205282     4.194103     4.182923     4.171744     4.160564     4.149385
      4.138206     4.127026     4.115847     4.104667     4.093488     4.082308     4.071129     4.059949     4.048770     4.037591
      4.026411     4.015232     4.004052     3.992873     3.981693     3.970514     3.959334     3.948155     3.936975     3.925796
      3.914617     3.903437     3.892258     3.881078     3.869899     3.858719     3.847540     3.836360     3.825181     3.814002
      3.802822     3.791643     3.780463     3.769284     3.758104     3.746925     3.735745     3.724566     3.713387     3.702207
      3.691028     3.679848     3.668669     3.657489     3.646310     3.635130     3.623951     3.612772     3.601592     3.590413
      3.579233     3.568054     3.556874     3.545695     3.534515     3.523336     3.512156     3.500977     3.489798     3.478618
      3.467439     3.456259     3.445080     3.433900     3.422721     3.411541     3.400362     3.389183     3.378003     3.366824
      3.355644     3.344465     3.333285     3.322106     3.310926     3.299747     3.288568     3.277388     3.266209     3.255029
      3.243850     3.232670     3.221491     3.210311     3.199132     3.187953     3.176773     3.165594     3.154414     3.143235
      3.132055     3.120876     3.109696     3.098517     3.087337     3.076158     3.064979     3.053799     3.042620     3.031440
      3.020261     3.009081     2.997902     2.986722     2.975543     2.964364     2.953184     2.942005     2.930825     2.919646
      2.908466     2.897287     2.886107     2.874928     2.863749     2.852569     2.841390     2.830210     2.819031     2.807851
      2.796672     2.785492     2.774313     2.763134     2.751954     2.740775     2.729595     2.718416     2.707236     2.696057
      2.684877     2.673698     2.662519     2.651339     2.640160     2.628980     2.617801     2.606621     2.595442     2.584262
      2.573083     2.561903     2.550724     2.539545     2.528365     2.517186     2.506006     2.494827     2.483647     2.472468
      2.461288     2.450109     2.438930     2.427750     2.416571     2.405391     2.394212     2.383032     2.371853     2.360673
      2.349494     2.338315     2.327135     2.315956     2.304776     2.293597     2.282417     2.271238     2.260058     2.248879
      2.237700     2.226520     2.215341     2.204161     2.192982     2.181802     2.170623     2.159443     2.148264     2.137084
      2.125905     2.114726     2.103546     2.092367     2.081187     2.070008     2.058828     2.047649     2.036469     2.025290
      2.014111     2.002931     1.991752     1.980572     1.969393     1.958213     1.947034     1.935854     1.924675     1.913496
      1.902316     1.891137     1.879957     1.868778     1.857598     1.846419     1.835239     1.824060     1.812881     1.801701
      1.790522     1.779342     1.768163     1.756983     1.745804     1.734624     1.723445     1.712265     1.701086     1.689907
      1.678727     1.667548     1.656368     1.645189     1.634009     1.622830     1.611650     1.600471     1.589292     1.578112
      1.566933     1.555753     1.544574     1.533394     1.522215     1.511035     1.499856     1.488677     1.477497     1.466318
      1.455138     1.443959     1.432779     1.421600     1.410420     1.399241     1.388062     1.376882     1.365703     1.354523
      1.343344     1.332164     1.320985     1.309805     1.298626     1.287446     1.276267     1.265088     1.253908     1.242729
      1.231549     1.220370     1.209190     1.198011     1.186831     1.175652     1.164473     1.153293     1.142114     1.130934
      1.119755     1.108575     1.097396     1.086216     1.075037     1.063858     1.052678     1.041499     1.030319     1.019140
      1.007960     0.996781     0.985601     0.974422     0.963243     0.952063     0.940884     0.929704     0.918525     0.907345
      0.896166     0.884986     0.873807     0.862628     0.851448     0.840269     0.829089     0.817910     0.806730     0.795551
      0.784371     0.773192     0.762012     0.750833     0.739654     0.728474     0.717295     0.706115     0.694936     0.683756
      0.672577     0.661397     0.650218     0.639039     0.627859     0.616680     0.605500     0.594321     0.583141     0.571962
      0.560782     0.549603     0.538424     0.527244     0.516065     0.504885     0.493706     0.482526     0.471347     0.460167
      0.448988     0.437809     0.426629     0.415450     0.404270     0.393091     0.381911     0.370732     0.359552     0.348373
      0.337193     0.326014     0.314835     0.303655     0.292476     0.281296     0.270117     0.258937     0.247758     0.236578
      0.225399     0.214220     0.203040
 NY phased data points follow
   1.30623E-08  1.54262E-08  1.62652E-08  1.86554E-08  1.77575E-08  1.80035E-08  1.67933E-08  1.71732E-08  1.52489E-08  1.63354E-08
   1.42281E-08  1.42637E-08  1.44952E-08  1.47111E-08  1.38290E-08  1.52218E-08  1.48864E-08  1.54460E-08  1.49343E-08  1.55052E-08
   1.43468E-08  1.50896E-08  1.43443E-08  1.41338E-08  1.39126E-08  1.40791E-08  1.32396E-08  1.52491E-08  1.44698E-08  1.45336E-08
   1.34511E-08  1.45814E-08  1.46407E-08  1.54329E-08  1.63621E-08  1.69147E-08  1.69219E-08  1.59992E-08  1.49100E-08  1.42670E-08
   1.32132E-08  1.32978E-08  1.20226E-08  1.24268E-08  1.15474E-08  1.19076E-08  1.11985E-08  1.09075E-08  9.95278E-09  1.00991E-08
   9.42090E-09  9.78876E-09  9.67752E-09  1.00483E-08  9.61598E-09  9.51125E-09  8.61219E-09  9.30570E-09  7.80060E-09  8.63855E-09
   8.25612E-09  8.92067E-09  9.03710E-09  1.07920E-08  1.18405E-08  1.41589E-08  1.54728E-08  1.55984E-08  1.45274E-08  1.34988E-08
   1.22276E-08  1.19592E-08  1.02946E-08  1.00865E-08  9.44276E-09  8.74667E-09  7.87054E-09  8.77733E-09  8.18354E-09  9.63569E-09
   1.18881E-08  1.45721E-08  1.60596E-08  1.60632E-08  1.65782E-08  1.56779E-08  1.52122E-08  1.37955E-08  1.39831E-08  1.33323E-08
   1.28554E-08  1.25059E-08  1.17312E-08  1.12127E-08  1.10760E-08  1.07551E-08  9.71946E-09  9.84627E-09  9.25882E-09  8.52478E-09
   9.01765E-09  8.31653E-09  8.67066E-09  8.36830E-09  8.36937E-09  8.47443E-09  8.07365E-09  8.06861E-09  7.59599E-09  7.45105E-09
   6.93744E-09  6.75036E-09  5.60237E-09  5.34687E-09  6.15128E-09  6.11470E-09  6.41808E-09  5.55423E-09  6.33939E-09  5.90856E-09
   6.66768E-09  6.51011E-09  6.64675E-09  5.67006E-09  5.94331E-09  4.88477E-09  5.16565E-09  3.78095E-09  3.91971E-09  4.26216E-09
   4.81986E-09  4.45766E-09  4.62842E-09  4.49396E-09  4.63682E-09  4.62079E-09  3.82144E-09  4.20022E-09  4.12739E-09  3.84985E-09
   4.29422E-09  4.80216E-09  5.32606E-09  5.47681E-09  5.40731E-09  5.76945E-09  5.54132E-09  6.73809E-09  6.90643E-09  6.77930E-09
   6.87248E-09  6.66363E-09  6.94982E-09  7.18344E-09  6.53499E-09  6.99120E-09  6.94867E-09  6.51150E-09  7.35428E-09  7.57403E-09
   7.51448E-09  7.66631E-09  7.21675E-09  8.01237E-09  7.28106E-09  7.25645E-09  7.40862E-09  8.34629E-09  9.09710E-09  1.05995E-08
   1.22147E-08  1.45058E-08  1.68800E-08  1.79264E-08  1.76312E-08  1.64820E-08  1.43321E-08  1.26283E-08  1.07992E-08  9.82830E-09
   8.45872E-09  7.62480E-09  6.66568E-09  5.78177E-09  5.06170E-09  3.91103E-09  2.76997E-09  2.05265E-09  1.60819E-09  4.89783E-10
  -1.43065E-09 -1.93559E-09 -3.70218E-09 -5.48774E-09 -6.22900E-09 -8.23750E-09 -1.05039E-08 -1.21370E-08 -1.46260E-08 -1.66320E-08
  -1.89659E-08 -2.06783E-08 -2.22339E-08 -2.38090E-08 -2.51509E-08 -2.54039E-08 -2.61643E-08 -2.51518E-08 -2.45173E-08 -2.29970E-08
  -2.12770E-08 -1.82265E-08 -1.52873E-08 -1.33659E-08 -1.08840E-08 -7.46673E-09 -5.47132E-09 -2.90424E-09 -7.54321E-10  5.57294E-10
   1.15829E-09  1.82973E-09  1.31998E-09  1.21528E-09  6.99408E-10 -2.88700E-11 -5.07815E-10 -4.70269E-10 -8.91479E-10 -2.45558E-10
   2.63541E-10  4.07132E-11 -2.51828E-10  8.13031E-10  2.02455E-10  1.06987E-10 -5.66712E-10 -2.89397E-10 -6.85992E-10  1.71795E-10
  -2.61356E-10 -5.65118E-11  3.84263E-10  4.43735E-10  3.60420E-10  5.36779E-10  4.46552E-10 -2.01460E-10 -8.00395E-11  2.44191E-10
  -4.04624E-10 -1.19576E-10  2.16587E-10  4.15693E-10  3.62678E-10  9.83078E-10  6.72054E-10  6.79728E-10  1.40703E-09  1.15027E-09
   6.85877E-10  2.48610E-10  3.50997E-10 -3.72854E-10 -3.11681E-10 -9.63436E-11 -1.53930E-11 -2.35625E-10  1.06096E-10  5.00847E-10
   8.65490E-10  1.02688E-09  1.40754E-09  1.00117E-09  1.26061E-09  1.66761E-09  1.48344E-09  9.42729E-10  1.04756E-09  1.71890E-09
   8.84778E-10  8.02744E-10  9.26770E-10  1.12557E-09  3.99959E-10  6.49715E-10  6.32150E-10  9.02528E-10  6.97441E-10  1.70402E-10
   1.09293E-09  7.48564E-10  6.37634E-10  4.78957E-10  1.25040E-09  2.61722E-10  1.49196E-09  8.99503E-10  5.91523E-10  1.64762E-10
   7.48027E-10  6.78169E-11  4.96304E-10  8.90512E-10  4.65038E-10  1.17465E-09  3.87117E-10  7.06141E-10  7.12285E-10  6.19217E-10
   4.05995E-10  1.12707E-09  7.40586E-10  9.46373E-10  6.61113E-10  9.64523E-10  1.10547E-09  9.14739E-10  7.31658E-10  1.27399E-09
   1.36163E-09  1.10711E-09  7.28937E-10  1.02246E-09  1.45918E-09  1.02247E-09  1.34635E-09  1.05223E-09  1.26442E-09  9.36018E-10
   2.02092E-09  1.57912E-09  9.26202E-10  1.57937E-09  1.56459E-09  1.87975E-09  1.63205E-09  1.56305E-09  1.48477E-09  1.96912E-09
   1.01946E-09  1.99074E-09  2.18849E-09  2.02095E-09  1.29153E-09  1.93487E-09  1.65979E-09  1.57016E-09  1.88832E-09  1.97439E-09
   2.27150E-09  2.36723E-09  2.33211E-09  2.00519E-09  2.16436E-09  2.19480E-09  2.67949E-09  2.26244E-09  2.33309E-09  2.71637E-09
   2.33023E-09  2.26684E-09  2.38195E-09
 NY points of the fit to the data follow
   1.57381E-08  1.59995E-08  1.61812E-08  1.64493E-08  1.66083E-08  1.65478E-08  1.61420E-08  1.55489E-08  1.49783E-08  1.43320E-08
   1.40633E-08  1.40550E-08  1.41879E-08  1.45018E-08  1.48924E-08  1.52683E-08  1.56720E-08  1.60504E-08  1.61159E-08  1.59588E-08
   1.59233E-08  1.57973E-08  1.53816E-08  1.49322E-08  1.43355E-08  1.36113E-08  1.32318E-08  1.34362E-08  1.39689E-08  1.47300E-08
   1.51618E-08  1.52900E-08  1.55960E-08  1.55270E-08  1.49979E-08  1.50958E-08  1.55776E-08  1.58297E-08  1.56746E-08  1.51944E-08
   1.45963E-08  1.41179E-08  1.29578E-08  1.16345E-08  1.12152E-08  1.07615E-08  9.99198E-09  9.61489E-09  9.57476E-09  9.69604E-09
   9.90825E-09  1.00670E-08  1.01062E-08  9.95201E-09  9.68119E-09  9.48414E-09  9.44827E-09  9.60502E-09  9.65024E-09  9.54320E-09
   9.54292E-09  9.79080E-09  1.02866E-08  1.08076E-08  1.16772E-08  1.26712E-08  1.33164E-08  1.37672E-08  1.41761E-08  1.43683E-08
   1.42371E-08  1.36384E-08  1.27214E-08  1.18907E-08  1.10269E-08  9.82294E-09  9.37559E-09  1.01507E-08  1.08980E-08  1.16858E-08
   1.26507E-08  1.35552E-08  1.44636E-08  1.53523E-08  1.58377E-08  1.58201E-08  1.52211E-08  1.37983E-08  1.20730E-08  1.15888E-08
   1.14642E-08  1.14688E-08  1.13957E-08  1.08609E-08  1.03585E-08  1.01303E-08  9.53953E-09  8.90765E-09  8.60097E-09  8.31386E-09
   8.09754E-09  7.96723E-09  7.89234E-09  7.91310E-09  7.96407E-09  8.00466E-09  8.02131E-09  8.00515E-09  7.93339E-09  7.78238E-09
   7.56138E-09  7.34652E-09  7.21757E-09  7.00237E-09  6.75790E-09  6.63779E-09  6.55645E-09  6.49001E-09  6.43062E-09  6.37482E-09
   6.32085E-09  6.26767E-09  6.21456E-09  6.16100E-09  6.10664E-09  6.05120E-09  5.99443E-09  5.93614E-09  5.87621E-09  5.81446E-09
   5.75076E-09  5.68501E-09  5.61711E-09  5.54694E-09  5.47444E-09  5.39950E-09  5.32205E-09  5.24200E-09  5.15930E-09  5.07387E-09
   4.98563E-09  4.89457E-09  4.80060E-09  4.70365E-09  4.60369E-09  4.50066E-09  4.39457E-09  4.28539E-09  4.17310E-09  4.05771E-09
   3.93929E-09  3.81787E-09  3.69360E-09  3.56664E-09  3.43725E-09  3.30576E-09  3.17274E-09  3.03891E-09  2.90545E-09  2.77405E-09
   2.64749E-09  2.53031E-09  2.43068E-09  2.36451E-09  2.36811E-09  2.54650E-09  3.35775E-09  5.91962E-09  8.89772E-09  1.15659E-08
   1.39527E-08  1.61167E-08  1.78586E-08  1.88754E-08  1.88809E-08  1.74258E-08  1.39269E-08  8.33641E-09  2.59408E-09  2.92403E-10
  -6.24721E-10 -1.17820E-09 -1.58887E-09 -1.92800E-09 -2.22522E-09 -2.49487E-09 -2.74452E-09 -2.97846E-09 -3.19914E-09 -3.40800E-09
  -3.60585E-09 -3.79311E-09 -3.96990E-09 -4.13616E-09 -4.29176E-09 -4.43642E-09 -4.56997E-09 -4.69267E-09 -4.80482E-09 -4.90671E-09
  -4.99859E-09 -5.08072E-09 -5.15331E-09 -5.21660E-09 -5.27080E-09 -5.31609E-09 -5.35270E-09 -5.38081E-09 -5.40062E-09 -5.41230E-09
  -5.41605E-09 -5.41205E-09 -5.40047E-09 -5.38151E-09 -5.35532E-09 -5.32210E-09 -5.28202E-09 -5.23525E-09 -5.18197E-09 -5.12234E-09
  -5.05654E-09 -4.98475E-09 -4.90713E-09 -4.82386E-09 -4.73515E-09 -4.64133E-09 -4.54270E-09 -4.43960E-09 -4.33236E-09 -4.22129E-09
  -4.10673E-09 -3.98899E-09 -3.86841E-09 -3.74530E-09 -3.61998E-09 -3.49279E-09 -3.36405E-09 -3.23408E-09 -3.10318E-09 -2.97172E-09
  -2.84000E-09 -2.70834E-09 -2.57707E-09 -2.44652E-09 -2.31698E-09 -2.18880E-09 -2.06231E-09 -1.93781E-09 -1.81564E-09 -1.69613E-09
  -1.57957E-09 -1.46633E-09 -1.35653E-09 -1.25012E-09 -1.14706E-09 -1.04728E-09 -9.50697E-10 -8.57268E-10 -7.66913E-10 -6.79576E-10
  -5.95195E-10 -5.13691E-10 -4.35016E-10 -3.59092E-10 -2.85867E-10 -2.15270E-10 -1.47215E-10 -8.16821E-11 -1.85828E-11  4.21561E-11
   1.00597E-10  1.56787E-10  2.10814E-10  2.62733E-10  3.12593E-10  3.60496E-10  4.06465E-10  4.50591E-10  4.92926E-10  5.33549E-10
   5.72511E-10  6.09870E-10  6.45687E-10  6.80023E-10  7.12928E-10  7.44468E-10  7.74695E-10  8.03672E-10  8.31456E-10  8.58102E-10
   8.83671E-10  9.08221E-10  9.31811E-10  9.54497E-10  9.76337E-10  9.97393E-10  1.01772E-09  1.03737E-09  1.05641E-09  1.07491E-09
   1.09290E-09  1.11045E-09  1.12763E-09  1.14448E-09  1.16107E-09  1.17746E-09  1.19370E-09  1.20985E-09  1.22593E-09  1.24197E-09
   1.25796E-09  1.27393E-09  1.28989E-09  1.30585E-09  1.32182E-09  1.33781E-09  1.35384E-09  1.36991E-09  1.38605E-09  1.40226E-09
   1.41855E-09  1.43495E-09  1.45145E-09  1.46807E-09  1.48483E-09  1.50173E-09  1.51879E-09  1.53603E-09  1.55344E-09  1.57105E-09
   1.58887E-09  1.60691E-09  1.62518E-09  1.64370E-09  1.66247E-09  1.68151E-09  1.70081E-09  1.72036E-09  1.74015E-09  1.76016E-09
   1.78039E-09  1.80081E-09  1.82143E-09  1.84223E-09  1.86319E-09  1.88431E-09  1.90556E-09  1.92695E-09  1.94846E-09  1.97007E-09
   1.99178E-09  2.01357E-09  2.03544E-09  2.05736E-09  2.07933E-09  2.10133E-09  2.12336E-09  2.14540E-09  2.16744E-09  2.18947E-09
   2.21147E-09  2.23344E-09  2.25536E-09
 NY background values follow
     5.449E-09    5.444E-09    5.439E-09    5.435E-09    5.430E-09    5.425E-09    5.420E-09    5.416E-09    5.411E-09    5.406E-09
     5.402E-09    5.397E-09    5.393E-09    5.388E-09    5.384E-09    5.380E-09    5.376E-09    5.372E-09    5.368E-09    5.365E-09
     5.361E-09    5.358E-09    5.355E-09    5.352E-09    5.349E-09    5.347E-09    5.345E-09    5.343E-09    5.341E-09    5.339E-09
     5.338E-09    5.337E-09    5.336E-09    5.336E-09    5.336E-09    5.336E-09    5.336E-09    5.337E-09    5.338E-09    5.340E-09
     5.341E-09    5.343E-09    5.346E-09    5.349E-09    5.352E-09    5.355E-09    5.359E-09    5.363E-09    5.368E-09    5.373E-09
     5.378E-09    5.384E-09    5.390E-09    5.397E-09    5.404E-09    5.412E-09    5.420E-09    5.428E-09    5.437E-09    5.446E-09
     5.455E-09    5.465E-09    5.475E-09    5.486E-09    5.496E-09    5.507E-09    5.517E-09    5.528E-09    5.539E-09    5.550E-09
     5.560E-09    5.571E-09    5.582E-09    5.592E-09    5.602E-09    5.612E-09    5.622E-09    5.632E-09    5.641E-09    5.650E-09
     5.658E-09    5.666E-09    5.674E-09    5.681E-09    5.687E-09    5.693E-09    5.699E-09    5.704E-09    5.708E-09    5.711E-09
     5.714E-09    5.715E-09    5.717E-09    5.717E-09    5.716E-09    5.715E-09    5.712E-09    5.709E-09    5.705E-09    5.699E-09
     5.693E-09    5.685E-09    5.677E-09    5.667E-09    5.656E-09    5.644E-09    5.631E-09    5.616E-09    5.600E-09    5.583E-09
     5.565E-09    5.545E-09    5.523E-09    5.501E-09    5.476E-09    5.450E-09    5.423E-09    5.393E-09    5.362E-09    5.329E-09
     5.294E-09    5.257E-09    5.219E-09    5.178E-09    5.135E-09    5.089E-09    5.042E-09    4.992E-09    4.939E-09    4.885E-09
     4.827E-09    4.767E-09    4.705E-09    4.639E-09    4.571E-09    4.500E-09    4.427E-09    4.350E-09    4.270E-09    4.187E-09
     4.101E-09    4.012E-09    3.919E-09    3.824E-09    3.724E-09    3.621E-09    3.515E-09    3.405E-09    3.291E-09    3.174E-09
     3.052E-09    2.927E-09    2.798E-09    2.664E-09    2.527E-09    2.385E-09    2.239E-09    2.089E-09    1.934E-09    1.774E-09
     1.610E-09    1.442E-09    1.269E-09    1.091E-09    9.077E-10    7.199E-10    5.271E-10    3.292E-10    1.262E-10   -8.136E-11
    -2.930E-10   -5.083E-10   -7.265E-10   -9.471E-10   -1.170E-09   -1.394E-09   -1.618E-09   -1.843E-09   -2.068E-09   -2.292E-09
    -2.514E-09   -2.735E-09   -2.953E-09   -3.167E-09   -3.379E-09   -3.586E-09   -3.789E-09   -3.986E-09   -4.177E-09   -4.362E-09
    -4.541E-09   -4.711E-09   -4.874E-09   -5.029E-09   -5.174E-09   -5.309E-09   -5.435E-09   -5.551E-09   -5.657E-09   -5.753E-09
    -5.839E-09   -5.917E-09   -5.985E-09   -6.045E-09   -6.095E-09   -6.137E-09   -6.171E-09   -6.196E-09   -6.213E-09   -6.223E-09
    -6.224E-09   -6.218E-09   -6.204E-09   -6.183E-09   -6.155E-09   -6.120E-09   -6.079E-09   -6.030E-09   -5.976E-09   -5.915E-09
    -5.847E-09   -5.774E-09   -5.695E-09   -5.611E-09   -5.521E-09   -5.426E-09   -5.326E-09   -5.222E-09   -5.114E-09   -5.002E-09
    -4.887E-09   -4.768E-09   -4.646E-09   -4.522E-09   -4.396E-09   -4.268E-09   -4.139E-09   -4.008E-09   -3.876E-09   -3.744E-09
    -3.612E-09   -3.479E-09   -3.348E-09   -3.216E-09   -3.086E-09   -2.957E-09   -2.830E-09   -2.705E-09   -2.582E-09   -2.462E-09
    -2.345E-09   -2.231E-09   -2.121E-09   -2.014E-09   -1.910E-09   -1.810E-09   -1.713E-09   -1.619E-09   -1.528E-09   -1.440E-09
    -1.355E-09   -1.273E-09   -1.194E-09   -1.118E-09   -1.044E-09   -9.731E-10   -9.046E-10   -8.386E-10   -7.751E-10   -7.139E-10
    -6.550E-10   -5.984E-10   -5.439E-10   -4.916E-10   -4.413E-10   -3.929E-10   -3.466E-10   -3.020E-10   -2.593E-10   -2.182E-10
    -1.789E-10   -1.411E-10   -1.049E-10   -7.015E-11   -3.685E-11   -4.914E-12    2.570E-11    5.507E-11    8.324E-11    1.103E-10
     1.362E-10    1.612E-10    1.851E-10    2.082E-10    2.304E-10    2.518E-10    2.725E-10    2.926E-10    3.120E-10    3.308E-10
     3.492E-10    3.671E-10    3.847E-10    4.019E-10    4.188E-10    4.356E-10    4.522E-10    4.687E-10    4.851E-10    5.015E-10
     5.179E-10    5.342E-10    5.506E-10    5.669E-10    5.832E-10    5.996E-10    6.159E-10    6.324E-10    6.489E-10    6.654E-10
     6.821E-10    6.988E-10    7.157E-10    7.327E-10    7.498E-10    7.671E-10    7.845E-10    8.021E-10    8.199E-10    8.378E-10
     8.560E-10    8.744E-10    8.931E-10    9.119E-10    9.311E-10    9.505E-10    9.701E-10    9.901E-10    1.010E-09    1.031E-09
     1.051E-09    1.072E-09    1.093E-09    1.114E-09    1.135E-09    1.157E-09    1.179E-09    1.200E-09    1.222E-09    1.244E-09
     1.266E-09    1.289E-09    1.311E-09    1.333E-09    1.355E-09    1.378E-09    1.400E-09    1.423E-09    1.445E-09    1.468E-09
     1.490E-09    1.512E-09    1.535E-09
 Ala      Conc. = 2.32E-10
   5.60704E-09  5.62140E-09  5.62928E-09  5.63338E-09  5.63359E-09  5.63020E-09  5.61836E-09  5.59130E-09  5.57078E-09  5.55792E-09
   5.52343E-09  5.49216E-09  5.47763E-09  5.45794E-09  5.43855E-09  5.42534E-09  5.41534E-09  5.40723E-09  5.40034E-09  5.39433E-09
   5.38899E-09  5.38418E-09  5.37985E-09  5.37592E-09  5.37235E-09  5.36914E-09  5.36625E-09  5.36367E-09  5.36142E-09  5.35948E-09
   5.35785E-09  5.35653E-09  5.35552E-09  5.35482E-09  5.35444E-09  5.35438E-09  5.35465E-09  5.35524E-09  5.35617E-09  5.35742E-09
   5.35904E-09  5.36099E-09  5.36330E-09  5.36597E-09  5.36902E-09  5.37242E-09  5.37622E-09  5.38041E-09  5.38498E-09  5.38996E-09
   5.39535E-09  5.40113E-09  5.40735E-09  5.41400E-09  5.42112E-09  5.42863E-09  5.43658E-09  5.44499E-09  5.45381E-09  5.46299E-09
   5.47251E-09  5.48233E-09  5.49242E-09  5.50273E-09  5.51323E-09  5.52390E-09  5.53468E-09  5.54555E-09  5.55648E-09  5.56742E-09
   5.57833E-09  5.58921E-09  5.59999E-09  5.61065E-09  5.62116E-09  5.63149E-09  5.64160E-09  5.65144E-09  5.66101E-09  5.67029E-09
   5.67919E-09  5.68776E-09  5.69589E-09  5.70365E-09  5.71094E-09  5.71780E-09  5.72420E-09  5.73015E-09  5.73567E-09  5.74078E-09
   5.74554E-09  5.75002E-09  5.75436E-09  5.75879E-09  5.76367E-09  5.76959E-09  5.77773E-09  5.79043E-09  5.81351E-09  5.86639E-09
   5.98153E-09  6.07974E-09  6.17013E-09  6.31643E-09  6.46634E-09  6.58734E-09  6.67043E-09  6.70986E-09  6.68512E-09  6.57427E-09
   6.38827E-09  6.20440E-09  6.10294E-09  5.91219E-09  5.68945E-09  5.58859E-09  5.52458E-09  5.47389E-09  5.42885E-09  5.38618E-09
   5.34421E-09  5.30199E-09  5.25894E-09  5.21465E-09  5.16883E-09  5.12128E-09  5.07182E-09  5.02031E-09  4.96664E-09  4.91069E-09
   4.85236E-09  4.79157E-09  4.72824E-09  4.66228E-09  4.59363E-09  4.52220E-09  4.44794E-09  4.37077E-09  4.29062E-09  4.20742E-09
   4.12108E-09  4.03158E-09  3.93881E-09  3.84272E-09  3.74323E-09  3.64025E-09  3.53374E-09  3.42359E-09  3.30976E-09  3.19216E-09
   3.07074E-09  2.94541E-09  2.81612E-09  2.68279E-09  2.54538E-09  2.40379E-09  2.25801E-09  2.10795E-09  1.95360E-09  1.79491E-09
   1.63190E-09  1.46460E-09  1.29320E-09  1.11801E-09  9.39992E-10  7.62030E-10  5.97539E-10  4.79328E-10  3.60656E-10  2.27448E-10
   8.33739E-11 -6.96899E-11 -2.37496E-10 -4.27747E-10 -6.47320E-10 -9.08324E-10 -1.22637E-09 -1.60037E-09 -1.97066E-09 -2.23446E-09
  -2.47192E-09 -2.70006E-09 -2.92263E-09 -3.14059E-09 -3.35405E-09 -3.56281E-09 -3.76651E-09 -3.96472E-09 -4.15695E-09 -4.34271E-09
  -4.52148E-09 -4.69275E-09 -4.85597E-09 -5.01059E-09 -5.15611E-09 -5.29196E-09 -5.41775E-09 -5.53357E-09 -5.63958E-09 -5.73595E-09
  -5.82286E-09 -5.90047E-09 -5.96895E-09 -6.02846E-09 -6.07919E-09 -6.12129E-09 -6.15494E-09 -6.18030E-09 -6.19754E-09 -6.20683E-09
  -6.20834E-09 -6.20223E-09 -6.18866E-09 -6.16783E-09 -6.13987E-09 -6.10498E-09 -6.06330E-09 -6.01501E-09 -5.96028E-09 -5.89928E-09
  -5.83216E-09 -5.75910E-09 -5.68027E-09 -5.59584E-09 -5.50601E-09 -5.41111E-09 -5.31145E-09 -5.20734E-09 -5.09913E-09 -4.98713E-09
  -4.87166E-09 -4.75304E-09 -4.63161E-09 -4.50767E-09 -4.38155E-09 -4.25358E-09 -4.12407E-09 -3.99336E-09 -3.86174E-09 -3.72958E-09
  -3.59717E-09 -3.46483E-09 -3.33290E-09 -3.20170E-09 -3.07154E-09 -2.94275E-09 -2.81564E-09 -2.69055E-09 -2.56781E-09 -2.44772E-09
  -2.33060E-09 -2.21680E-09 -2.10646E-09 -1.99952E-09 -1.89593E-09 -1.79563E-09 -1.69854E-09 -1.60461E-09 -1.51376E-09 -1.42594E-09
  -1.34107E-09 -1.25909E-09 -1.17995E-09 -1.10356E-09 -1.02988E-09 -9.58828E-10 -8.90326E-10 -8.24350E-10 -7.60812E-10 -6.99639E-10
  -6.40768E-10 -5.84153E-10 -5.29703E-10 -4.77366E-10 -4.27092E-10 -3.78778E-10 -3.32401E-10 -2.87871E-10 -2.45135E-10 -2.04113E-10
  -1.64756E-10 -1.27003E-10 -9.07954E-11 -5.60715E-11 -2.27811E-11  9.14213E-12  3.97500E-11  6.91063E-11  9.72678E-11  1.24289E-10
   1.50231E-10  1.75153E-10  1.99112E-10  2.22167E-10  2.44374E-10  2.65795E-10  2.86485E-10  3.06504E-10  3.25905E-10  3.44759E-10
   3.63109E-10  3.81024E-10  3.98560E-10  4.15768E-10  4.32714E-10  4.49456E-10  4.66047E-10  4.82551E-10  4.98989E-10  5.15377E-10
   5.31727E-10  5.48051E-10  5.64361E-10  5.80670E-10  5.96990E-10  6.13334E-10  6.29713E-10  6.46140E-10  6.62628E-10  6.79188E-10
   6.95833E-10  7.12575E-10  7.29428E-10  7.46402E-10  7.63510E-10  7.80765E-10  7.98179E-10  8.15765E-10  8.33533E-10  8.51498E-10
   8.69671E-10  8.88065E-10  9.06691E-10  9.25563E-10  9.44692E-10  9.64088E-10  9.83747E-10  1.00366E-09  1.02380E-09  1.04417E-09
   1.06476E-09  1.08555E-09  1.10653E-09  1.12769E-09  1.14902E-09  1.17050E-09  1.19212E-09  1.21388E-09  1.23575E-09  1.25774E-09
   1.27982E-09  1.30198E-09  1.32422E-09  1.34652E-09  1.36886E-09  1.39124E-09  1.41365E-09  1.43607E-09  1.45849E-09  1.48091E-09
   1.50330E-09  1.52565E-09  1.54796E-09
 Asp      Conc. = 1.05E-09
   6.71594E-09  6.56367E-09  6.42073E-09  6.26663E-09  6.12451E-09  5.94492E-09  5.79049E-09  5.65562E-09  5.59060E-09  5.55212E-09
   5.52641E-09  5.50819E-09  5.49510E-09  5.48556E-09  5.47749E-09  5.47031E-09  5.46411E-09  5.45880E-09  5.45428E-09  5.45049E-09
   5.44737E-09  5.44492E-09  5.44315E-09  5.44207E-09  5.44171E-09  5.44219E-09  5.44355E-09  5.44594E-09  5.44953E-09  5.45458E-09
   5.46142E-09  5.47054E-09  5.48273E-09  5.49928E-09  5.52258E-09  5.55794E-09  5.61871E-09  5.68643E-09  5.77087E-09  5.84273E-09
   5.89866E-09  5.94702E-09  6.00861E-09  6.11404E-09  6.24614E-09  6.43540E-09  6.57448E-09  6.66752E-09  6.83164E-09  7.02214E-09
   7.22039E-09  7.33991E-09  7.33238E-09  7.15592E-09  6.85205E-09  6.56824E-09  6.35701E-09  6.33221E-09  6.24495E-09  6.07619E-09
   5.98932E-09  5.94598E-09  5.90787E-09  5.90939E-09  5.92324E-09  5.89093E-09  5.81252E-09  5.77038E-09  5.74697E-09  5.73346E-09
   5.72591E-09  5.72229E-09  5.72135E-09  5.72233E-09  5.72468E-09  5.72804E-09  5.73211E-09  5.73666E-09  5.74152E-09  5.74657E-09
   5.75164E-09  5.75667E-09  5.76153E-09  5.76619E-09  5.77051E-09  5.77450E-09  5.77805E-09  5.78113E-09  5.78369E-09  5.78566E-09
   5.78703E-09  5.78773E-09  5.78773E-09  5.78698E-09  5.78546E-09  5.78310E-09  5.77990E-09  5.77580E-09  5.77076E-09  5.76478E-09
   5.75777E-09  5.74974E-09  5.74063E-09  5.73042E-09  5.71907E-09  5.70654E-09  5.69283E-09  5.67785E-09  5.66162E-09  5.64408E-09
   5.62521E-09  5.60497E-09  5.58330E-09  5.56019E-09  5.53558E-09  5.50937E-09  5.48154E-09  5.45200E-09  5.42069E-09  5.38755E-09
   5.35251E-09  5.31552E-09  5.27652E-09  5.23543E-09  5.19220E-09  5.14677E-09  5.09907E-09  5.04904E-09  4.99663E-09  4.94177E-09
   4.88439E-09  4.82443E-09  4.76184E-09  4.69654E-09  4.62849E-09  4.55761E-09  4.48386E-09  4.40716E-09  4.32747E-09  4.24471E-09
   4.15879E-09  4.06971E-09  3.97737E-09  3.88170E-09  3.78265E-09  3.68013E-09  3.57410E-09  3.46447E-09  3.35120E-09  3.23421E-09
   3.11347E-09  2.98890E-09  2.86046E-09  2.72813E-09  2.59185E-09  2.45162E-09  2.30744E-09  2.15932E-09  2.00737E-09  1.85170E-09
   1.69258E-09  1.53048E-09  1.36632E-09  1.20180E-09  1.04096E-09  8.95108E-10  8.11283E-10  9.61925E-10  1.14397E-09  1.27747E-09
   1.37352E-09  1.44180E-09  1.45685E-09  1.38179E-09  1.18498E-09  8.13001E-10  1.91727E-10 -6.94278E-10 -1.61526E-09 -2.05255E-09
  -2.34882E-09 -2.60511E-09 -2.84377E-09 -3.07196E-09 -3.29238E-09 -3.50613E-09 -3.71354E-09 -3.91459E-09 -4.10903E-09 -4.29657E-09
  -4.47678E-09 -4.64924E-09 -4.81345E-09 -4.96891E-09 -5.11514E-09 -5.25160E-09 -5.37793E-09 -5.49421E-09 -5.60062E-09 -5.69735E-09
  -5.78458E-09 -5.86247E-09 -5.93120E-09 -5.99094E-09 -6.04188E-09 -6.08417E-09 -6.11799E-09 -6.14350E-09 -6.16089E-09 -6.17031E-09
  -6.17193E-09 -6.16594E-09 -6.15248E-09 -6.13174E-09 -6.10387E-09 -6.06906E-09 -6.02746E-09 -5.97924E-09 -5.92458E-09 -5.86364E-09
  -5.79659E-09 -5.72359E-09 -5.64481E-09 -5.56043E-09 -5.47066E-09 -5.37580E-09 -5.27618E-09 -5.17212E-09 -5.06395E-09 -4.95199E-09
