 LCModel (Version 6.3-1R) Copyright: S.W. Provencher.          Ref.: Magn. Reson. Med. 30:672-679 (1993).                
 onepulse 26x25_ftSpec_smooth_lcm
 26 lines in following concentration table = NCONC+1
    Conc.  %SD /Cr+PCr  Metabolite                                         
    0.000 999%   0.000 Ala                                                 
    0.000 999%   0.000 Asp                                                 
    0.000 999%   0.000 Cr                                                  
    0.000 999%   0.000 GABA                                                
    0.000 999%   0.000 Glc                                                 
 2.35E-09  35%   4.594 Gln                                                 
    0.000 999%   0.000 Glu                                                 
    0.000 999%   0.000 Glyc                                                
 1.19E-10 119%   0.233 GPC                                                 
    0.000 999%   0.000 GSH                                                 
 1.77E-09  27%   3.451 Ins                                                 
    0.000 999%   0.000 Lac                                                 
 2.49E-10 158%   0.487 NAAG                                                
 5.42E-10 101%   1.058 NAA                                                 
    0.000 999%   0.000 PCh                                                 
 5.12E-10  69%   1.000 PCr                                                 
    0.000 999%   0.000 PE                                                  
    0.000 999%   0.000 Scyllo                                              
 5.27E-09  19%  10.301 Ser                                                 
 1.30E-09  38%   2.547 Tau                                                 
 1.19E-10 119%   0.233 GPC+PCh                                             
 7.91E-10  50%   1.545 NAA+NAAG                                            
 1.77E-09  27%   3.451 Ins+Glyc                                            
 5.12E-10  69%   1.000 Cr+PCr                                              
 2.35E-09  35%   4.594 Glu+Gln                                             
   6 lines in following misc. output table
  FWHM = 0.123 ppm    S/N =   3                                            
  Data shift = 0.347 ppm                                                   
  Ph: -44 deg     -22.0 deg/ppm                                            
  alphaB,S = 1.7E-01,   1.3E+00                                            
   16 spline knots.   Ns = 5(1)                                            
  (12) 3 infls.   (11) 1 extrs.                                            
  363 points on ppm-axis = NY
      4.250000     4.238821     4.227641     4.216462     4.205282     4.194103     4.182923     4.171744     4.160564     4.149385
      4.138206     4.127026     4.115847     4.104667     4.093488     4.082308     4.071129     4.059949     4.048770     4.037591
      4.026411     4.015232     4.004052     3.992873     3.981693     3.970514     3.959334     3.948155     3.936975     3.925796
      3.914617     3.903437     3.892258     3.881078     3.869899     3.858719     3.847540     3.836360     3.825181     3.814002
      3.802822     3.791643     3.780463     3.769284     3.758104     3.746925     3.735745     3.724566     3.713387     3.702207
      3.691028     3.679848     3.668669     3.657489     3.646310     3.635130     3.623951     3.612772     3.601592     3.590413
      3.579233     3.568054     3.556874     3.545695     3.534515     3.523336     3.512156     3.500977     3.489798     3.478618
      3.467439     3.456259     3.445080     3.433900     3.422721     3.411541     3.400362     3.389183     3.378003     3.366824
      3.355644     3.344465     3.333285     3.322106     3.310926     3.299747     3.288568     3.277388     3.266209     3.255029
      3.243850     3.232670     3.221491     3.210311     3.199132     3.187953     3.176773     3.165594     3.154414     3.143235
      3.132055     3.120876     3.109696     3.098517     3.087337     3.076158     3.064979     3.053799     3.042620     3.031440
      3.020261     3.009081     2.997902     2.986722     2.975543     2.964364     2.953184     2.942005     2.930825     2.919646
      2.908466     2.897287     2.886107     2.874928     2.863749     2.852569     2.841390     2.830210     2.819031     2.807851
      2.796672     2.785492     2.774313     2.763134     2.751954     2.740775     2.729595     2.718416     2.707236     2.696057
      2.684877     2.673698     2.662519     2.651339     2.640160     2.628980     2.617801     2.606621     2.595442     2.584262
      2.573083     2.561903     2.550724     2.539545     2.528365     2.517186     2.506006     2.494827     2.483647     2.472468
      2.461288     2.450109     2.438930     2.427750     2.416571     2.405391     2.394212     2.383032     2.371853     2.360673
      2.349494     2.338315     2.327135     2.315956     2.304776     2.293597     2.282417     2.271238     2.260058     2.248879
      2.237700     2.226520     2.215341     2.204161     2.192982     2.181802     2.170623     2.159443     2.148264     2.137084
      2.125905     2.114726     2.103546     2.092367     2.081187     2.070008     2.058828     2.047649     2.036469     2.025290
      2.014111     2.002931     1.991752     1.980572     1.969393     1.958213     1.947034     1.935854     1.924675     1.913496
      1.902316     1.891137     1.879957     1.868778     1.857598     1.846419     1.835239     1.824060     1.812881     1.801701
      1.790522     1.779342     1.768163     1.756983     1.745804     1.734624     1.723445     1.712265     1.701086     1.689907
      1.678727     1.667548     1.656368     1.645189     1.634009     1.622830     1.611650     1.600471     1.589292     1.578112
      1.566933     1.555753     1.544574     1.533394     1.522215     1.511035     1.499856     1.488677     1.477497     1.466318
      1.455138     1.443959     1.432779     1.421600     1.410420     1.399241     1.388062     1.376882     1.365703     1.354523
      1.343344     1.332164     1.320985     1.309805     1.298626     1.287446     1.276267     1.265088     1.253908     1.242729
      1.231549     1.220370     1.209190     1.198011     1.186831     1.175652     1.164473     1.153293     1.142114     1.130934
      1.119755     1.108575     1.097396     1.086216     1.075037     1.063858     1.052678     1.041499     1.030319     1.019140
      1.007960     0.996781     0.985601     0.974422     0.963243     0.952063     0.940884     0.929704     0.918525     0.907345
      0.896166     0.884986     0.873807     0.862628     0.851448     0.840269     0.829089     0.817910     0.806730     0.795551
      0.784371     0.773192     0.762012     0.750833     0.739654     0.728474     0.717295     0.706115     0.694936     0.683756
      0.672577     0.661397     0.650218     0.639039     0.627859     0.616680     0.605500     0.594321     0.583141     0.571962
      0.560782     0.549603     0.538424     0.527244     0.516065     0.504885     0.493706     0.482526     0.471347     0.460167
      0.448988     0.437809     0.426629     0.415450     0.404270     0.393091     0.381911     0.370732     0.359552     0.348373
      0.337193     0.326014     0.314835     0.303655     0.292476     0.281296     0.270117     0.258937     0.247758     0.236578
      0.225399     0.214220     0.203040
 NY phased data points follow
   1.96075E-08  2.09395E-08  2.30396E-08  2.10268E-08  2.05336E-08  1.84706E-08  1.83109E-08  1.66979E-08  1.70664E-08  1.58730E-08
   1.66451E-08  1.63093E-08  1.68011E-08  1.62887E-08  1.75332E-08  1.75991E-08  1.78051E-08  1.69012E-08  1.77939E-08  1.68306E-08
   1.71691E-08  1.59641E-08  1.56415E-08  1.48771E-08  1.57921E-08  1.54493E-08  1.72261E-08  1.57787E-08  1.56817E-08  1.49086E-08
   1.48294E-08  1.47634E-08  1.70662E-08  1.75929E-08  1.82862E-08  1.69223E-08  1.65584E-08  1.51112E-08  1.45972E-08  1.28738E-08
   1.31762E-08  1.23637E-08  1.32094E-08  1.16194E-08  1.18873E-08  1.08638E-08  1.15381E-08  9.60667E-09  1.03053E-08  9.47503E-09
   1.00233E-08  9.17047E-09  1.05957E-08  9.74142E-09  1.01235E-08  8.84623E-09  9.17037E-09  8.78671E-09  9.23300E-09  8.82045E-09
   1.01530E-08  9.72457E-09  1.13651E-08  1.24708E-08  1.56629E-08  1.53655E-08  1.55403E-08  1.34582E-08  1.24931E-08  1.09527E-08
   1.09799E-08  9.90857E-09  9.05967E-09  8.86540E-09  9.08062E-09  8.05424E-09  8.81900E-09  7.98477E-09  9.19404E-09  1.23926E-08
   1.66748E-08  1.83651E-08  1.99045E-08  1.77154E-08  1.68438E-08  1.51553E-08  1.47544E-08  1.35291E-08  1.32523E-08  1.27793E-08
   1.31232E-08  1.14148E-08  1.18060E-08  1.07970E-08  1.03835E-08  9.66160E-09  9.55413E-09  8.61690E-09  9.50901E-09  7.80310E-09
   8.39265E-09  7.58915E-09  8.92849E-09  8.04605E-09  8.83897E-09  8.00221E-09  7.90035E-09  7.71654E-09  7.73218E-09  6.16277E-09
   6.75907E-09  5.22124E-09  4.81326E-09  5.33622E-09  6.43912E-09  5.98218E-09  6.07648E-09  5.98218E-09  6.18093E-09  5.42364E-09
   6.59200E-09  5.35878E-09  5.52426E-09  4.91955E-09  4.84588E-09  3.52885E-09  3.86511E-09  3.05240E-09  4.29000E-09  4.15643E-09
   4.67843E-09  4.08175E-09  4.48007E-09  3.96919E-09  4.88176E-09  4.57606E-09  4.26110E-09  3.90386E-09  4.17859E-09  4.56297E-09
   5.96313E-09  6.54173E-09  7.74972E-09  6.36300E-09  6.66589E-09  6.68825E-09  8.14967E-09  7.64302E-09  8.35677E-09  7.94969E-09
   7.81690E-09  7.88537E-09  8.46226E-09  7.51786E-09  7.94991E-09  7.98921E-09  8.73029E-09  7.94095E-09  8.43632E-09  8.43408E-09
   8.73619E-09  8.86548E-09  9.38337E-09  9.34054E-09  9.62172E-09  9.71895E-09  1.02812E-08  1.11948E-08  1.18086E-08  1.21460E-08
   1.63217E-08  1.99627E-08  2.27015E-08  2.21950E-08  1.97506E-08  1.64004E-08  1.50470E-08  1.23655E-08  1.21714E-08  1.00084E-08
   9.31912E-09  8.20296E-09  7.17073E-09  6.12612E-09  5.24537E-09  3.59785E-09  2.76740E-09  1.27081E-09  5.52357E-10 -1.13425E-09
  -2.05464E-09 -4.57996E-09 -5.79616E-09 -7.84322E-09 -9.01111E-09 -1.13862E-08 -1.30827E-08 -1.56433E-08 -1.72651E-08 -1.96797E-08
  -2.15419E-08 -2.31218E-08 -2.35905E-08 -2.48010E-08 -2.47065E-08 -2.45609E-08 -2.35948E-08 -2.29579E-08 -2.05307E-08 -1.97399E-08
  -1.68473E-08 -1.48825E-08 -1.22762E-08 -1.01156E-08 -7.80493E-09 -5.86727E-09 -3.85724E-09 -2.88802E-09 -8.51765E-10 -6.28440E-10
   3.21551E-10 -2.50516E-10 -2.43119E-10 -2.08404E-10 -8.54925E-10 -1.14827E-09 -1.52701E-09 -1.38742E-09 -7.67448E-10 -9.06039E-10
  -7.55568E-10 -8.09946E-10  2.10272E-10 -4.21905E-10 -6.95342E-10 -1.06939E-09 -9.02159E-10 -1.13258E-09 -9.68129E-10 -9.61177E-10
  -1.67206E-10 -5.47626E-10  6.20779E-10 -2.45894E-10  4.07018E-11 -3.48864E-10 -2.19200E-10 -2.54440E-10 -3.52774E-10 -7.96848E-10
  -3.69883E-10 -1.61149E-10  4.20239E-10  3.32370E-10  6.01767E-10  1.05880E-09  1.22920E-09  4.76605E-10  9.23057E-10  6.22997E-10
   3.53047E-10  4.51799E-11  2.25794E-10 -4.54563E-10 -7.25277E-10 -1.57245E-11 -6.42487E-11 -3.21955E-10  6.62071E-10  1.10943E-10
   1.00188E-09  7.40443E-10  9.20213E-10  1.57965E-09  1.22130E-09  1.43153E-09  1.36503E-09  6.87134E-10  1.19987E-09  9.96469E-10
   1.24301E-09  6.69821E-10  5.21890E-10  3.16017E-10  3.18299E-10  8.65835E-10  2.00276E-10  3.18855E-10  9.71303E-11  5.68946E-10
   7.34009E-10  3.57500E-10  6.71990E-10  1.20389E-10  5.02231E-10  2.62878E-10  7.14011E-10 -1.01787E-10  9.09435E-10  3.70442E-10
   2.29441E-10  3.43646E-12  3.82573E-10  3.95820E-10  6.20946E-10 -4.45520E-11  4.26525E-10  8.41692E-10 -9.83507E-11 -8.70271E-11
   4.11333E-10  1.56793E-10  5.79552E-10  6.87789E-10  3.99464E-10  3.89832E-10  7.73523E-10  4.23122E-10  3.78273E-10  8.33529E-10
   1.00080E-09  8.91988E-10  8.57094E-10  4.02293E-10  6.89805E-10  7.42162E-10  9.69127E-10  4.49955E-10  9.36001E-10  5.62164E-10
   1.38765E-09  1.28857E-09  1.02095E-09  1.05748E-09  1.16077E-09  1.20137E-09  1.18953E-09  8.59829E-10  7.51654E-10  1.00462E-09
   1.24418E-09  1.28636E-09  1.07239E-09  1.49856E-09  1.13983E-09  1.14367E-09  1.46827E-09  1.03162E-09  1.49678E-09  1.59115E-09
   1.28384E-09  1.41164E-09  1.86942E-09  1.07208E-09  1.58199E-09  1.58810E-09  1.58985E-09  1.62529E-09  2.09610E-09  1.60791E-09
   2.26440E-09  1.38879E-09  1.46774E-09
 NY points of the fit to the data follow
   1.97396E-08  1.96480E-08  2.41167E-08  2.08836E-08  1.90125E-08  1.84418E-08  1.76952E-08  1.80956E-08  1.83238E-08  1.62993E-08
   1.63777E-08  1.60692E-08  1.60119E-08  1.65196E-08  1.79806E-08  1.77664E-08  1.73236E-08  1.64707E-08  1.81818E-08  1.77795E-08
   1.62943E-08  1.55294E-08  1.56064E-08  1.43258E-08  1.60866E-08  1.46449E-08  1.58746E-08  1.56068E-08  1.61884E-08  1.59994E-08
   1.66809E-08  1.68465E-08  1.74704E-08  1.57870E-08  1.62830E-08  1.57078E-08  1.52181E-08  1.48402E-08  1.42375E-08  1.38776E-08
   1.32087E-08  1.31451E-08  1.36381E-08  1.21230E-08  1.12788E-08  1.08470E-08  1.04286E-08  1.01593E-08  9.91416E-09  9.72590E-09
   9.46099E-09  9.34496E-09  9.11053E-09  9.08958E-09  9.02434E-09  9.59233E-09  9.34589E-09  9.32363E-09  1.08618E-08  1.08973E-08
   1.12653E-08  1.20554E-08  1.26140E-08  1.29376E-08  1.28708E-08  1.31221E-08  1.32838E-08  1.13854E-08  1.24457E-08  1.17542E-08
   9.84434E-09  1.00646E-08  1.01363E-08  9.29162E-09  9.21811E-09  1.02465E-08  1.06315E-08  1.20985E-08  1.22987E-08  1.34331E-08
   1.44391E-08  1.57776E-08  1.70147E-08  1.70270E-08  1.56423E-08  1.67492E-08  1.54009E-08  1.55037E-08  1.41590E-08  1.23259E-08
   1.13396E-08  1.07262E-08  1.02658E-08  9.90240E-09  9.61304E-09  9.34338E-09  9.11679E-09  8.90509E-09  8.74465E-09  8.57945E-09
   8.41480E-09  8.27121E-09  8.15442E-09  8.03401E-09  7.91981E-09  7.81534E-09  7.71699E-09  7.62563E-09  7.53939E-09  7.45795E-09
   7.38101E-09  7.30821E-09  7.23926E-09  7.17386E-09  7.11160E-09  7.05209E-09  6.99501E-09  6.94002E-09  6.88681E-09  6.83509E-09
   6.78460E-09  6.73504E-09  6.68617E-09  6.63773E-09  6.58948E-09  6.54119E-09  6.49261E-09  6.44352E-09  6.39371E-09  6.34295E-09
   6.29102E-09  6.23772E-09  6.18284E-09  6.12617E-09  6.06754E-09  6.00671E-09  5.94353E-09  5.87781E-09  5.80937E-09  5.73801E-09
   5.66356E-09  5.58589E-09  5.50484E-09  5.42026E-09  5.33201E-09  5.23998E-09  5.14406E-09  5.04417E-09  4.94026E-09  4.83230E-09
   4.72032E-09  4.60438E-09  4.48466E-09  4.36139E-09  4.23497E-09  4.10598E-09  3.97533E-09  3.84430E-09  3.71494E-09  3.59034E-09
   3.47567E-09  3.37980E-09  3.31960E-09  3.33106E-09  3.50778E-09  4.18286E-09  7.17850E-09  1.15193E-08  1.25706E-08  1.21740E-08
   1.71164E-08  2.09458E-08  2.37072E-08  2.25612E-08  2.01672E-08  1.71608E-08  1.56141E-08  1.52092E-08  1.22526E-08  2.00731E-09
  -5.28228E-10 -1.57203E-09 -2.20351E-09 -2.67324E-09 -3.06344E-09 -3.40761E-09 -3.72132E-09 -4.01248E-09 -4.28526E-09 -4.54191E-09
  -4.78358E-09 -5.01076E-09 -5.22353E-09 -5.42169E-09 -5.60494E-09 -5.77280E-09 -5.92498E-09 -6.06183E-09 -6.18387E-09 -6.29152E-09
  -6.38523E-09 -6.46539E-09 -6.53242E-09 -6.58669E-09 -6.62859E-09 -6.65848E-09 -6.67675E-09 -6.68376E-09 -6.67987E-09 -6.66545E-09
  -6.64085E-09 -6.60644E-09 -6.56255E-09 -6.50957E-09 -6.44783E-09 -6.37770E-09 -6.29952E-09 -6.21365E-09 -6.12043E-09 -6.02021E-09
  -5.91335E-09 -5.80018E-09 -5.68104E-09 -5.55630E-09 -5.42631E-09 -5.29149E-09 -5.15224E-09 -5.00899E-09 -4.86215E-09 -4.71214E-09
  -4.55934E-09 -4.40417E-09 -4.24704E-09 -4.08832E-09 -3.92841E-09 -3.76772E-09 -3.60660E-09 -3.44546E-09 -3.28464E-09 -3.12455E-09
  -2.96555E-09 -2.80798E-09 -2.65221E-09 -2.49861E-09 -2.34749E-09 -2.19922E-09 -2.05411E-09 -1.91252E-09 -1.77476E-09 -1.64117E-09
  -1.51202E-09 -1.38766E-09 -1.26818E-09 -1.15348E-09 -1.04344E-09 -9.37917E-10 -8.36786E-10 -7.39928E-10 -6.47206E-10 -5.58500E-10
  -4.73687E-10 -3.92633E-10 -3.15228E-10 -2.41337E-10 -1.70851E-10 -1.03642E-10 -3.95744E-11  2.14334E-11  7.95193E-11  1.34805E-10
   1.87405E-10  2.37418E-10  2.84976E-10  3.30182E-10  3.73131E-10  4.13963E-10  4.52752E-10  4.89622E-10  5.24668E-10  5.58004E-10
   5.89703E-10  6.19837E-10  6.48473E-10  6.75678E-10  7.01514E-10  7.26050E-10  7.49345E-10  7.71464E-10  7.92467E-10  8.12412E-10
   8.31361E-10  8.49368E-10  8.66493E-10  8.82789E-10  8.98310E-10  9.13109E-10  9.27237E-10  9.40745E-10  9.53679E-10  9.66091E-10
   9.78022E-10  9.89520E-10  1.00063E-09  1.01139E-09  1.02183E-09  1.03202E-09  1.04196E-09  1.05171E-09  1.06127E-09  1.07062E-09
   1.07976E-09  1.08868E-09  1.09737E-09  1.10582E-09  1.11401E-09  1.12194E-09  1.12959E-09  1.13697E-09  1.14405E-09  1.15082E-09
   1.15728E-09  1.16342E-09  1.16922E-09  1.17467E-09  1.17977E-09  1.18450E-09  1.18885E-09  1.19282E-09  1.19639E-09  1.19954E-09
   1.20228E-09  1.20459E-09  1.20645E-09  1.20787E-09  1.20882E-09  1.20930E-09  1.20928E-09  1.20875E-09  1.20769E-09  1.20607E-09
   1.20389E-09  1.20112E-09  1.19773E-09  1.19373E-09  1.18908E-09  1.18377E-09  1.17779E-09  1.17113E-09  1.16376E-09  1.15567E-09
   1.14686E-09  1.13730E-09  1.12699E-09  1.11591E-09  1.10405E-09  1.09140E-09  1.07796E-09  1.06370E-09  1.04863E-09  1.03274E-09
   1.01601E-09  9.98445E-10  9.80032E-10
 NY background values follow
     5.414E-09    5.451E-09    5.487E-09    5.522E-09    5.556E-09    5.589E-09    5.621E-09    5.652E-09    5.682E-09    5.711E-09
     5.739E-09    5.766E-09    5.792E-09    5.818E-09    5.842E-09    5.865E-09    5.888E-09    5.909E-09    5.930E-09    5.949E-09
     5.968E-09    5.986E-09    6.002E-09    6.018E-09    6.033E-09    6.047E-09    6.060E-09    6.072E-09    6.083E-09    6.093E-09
     6.102E-09    6.111E-09    6.118E-09    6.125E-09    6.131E-09    6.136E-09    6.140E-09    6.143E-09    6.146E-09    6.148E-09
     6.149E-09    6.149E-09    6.148E-09    6.147E-09    6.145E-09    6.143E-09    6.140E-09    6.136E-09    6.132E-09    6.127E-09
     6.122E-09    6.116E-09    6.109E-09    6.102E-09    6.095E-09    6.087E-09    6.079E-09    6.070E-09    6.061E-09    6.051E-09
     6.042E-09    6.031E-09    6.021E-09    6.010E-09    5.998E-09    5.987E-09    5.975E-09    5.962E-09    5.949E-09    5.936E-09
     5.923E-09    5.909E-09    5.895E-09    5.880E-09    5.865E-09    5.850E-09    5.835E-09    5.819E-09    5.803E-09    5.786E-09
     5.770E-09    5.752E-09    5.735E-09    5.717E-09    5.699E-09    5.681E-09    5.662E-09    5.643E-09    5.624E-09    5.605E-09
     5.586E-09    5.567E-09    5.547E-09    5.528E-09    5.509E-09    5.489E-09    5.470E-09    5.451E-09    5.433E-09    5.414E-09
     5.396E-09    5.378E-09    5.361E-09    5.344E-09    5.327E-09    5.311E-09    5.296E-09    5.281E-09    5.266E-09    5.253E-09
     5.240E-09    5.228E-09    5.216E-09    5.206E-09    5.196E-09    5.186E-09    5.177E-09    5.168E-09    5.158E-09    5.149E-09
     5.139E-09    5.128E-09    5.117E-09    5.104E-09    5.091E-09    5.076E-09    5.060E-09    5.043E-09    5.023E-09    5.002E-09
     4.978E-09    4.952E-09    4.924E-09    4.892E-09    4.858E-09    4.821E-09    4.781E-09    4.737E-09    4.690E-09    4.639E-09
     4.584E-09    4.525E-09    4.461E-09    4.393E-09    4.321E-09    4.243E-09    4.161E-09    4.073E-09    3.980E-09    3.881E-09
     3.776E-09    3.666E-09    3.549E-09    3.426E-09    3.297E-09    3.160E-09    3.018E-09    2.868E-09    2.711E-09    2.546E-09
     2.374E-09    2.195E-09    2.007E-09    1.812E-09    1.608E-09    1.396E-09    1.176E-09    9.467E-10    7.090E-10    4.634E-10
     2.106E-10   -4.849E-11   -3.130E-10   -5.820E-10   -8.547E-10   -1.130E-09   -1.408E-09   -1.686E-09   -1.965E-09   -2.243E-09
    -2.519E-09   -2.793E-09   -3.064E-09   -3.331E-09   -3.593E-09   -3.849E-09   -4.098E-09   -4.340E-09   -4.574E-09   -4.798E-09
    -5.012E-09   -5.216E-09   -5.408E-09   -5.587E-09   -5.754E-09   -5.906E-09   -6.043E-09   -6.167E-09   -6.276E-09   -6.371E-09
    -6.453E-09   -6.522E-09   -6.578E-09   -6.622E-09   -6.654E-09   -6.674E-09   -6.682E-09   -6.680E-09   -6.666E-09   -6.643E-09
    -6.609E-09   -6.566E-09   -6.514E-09   -6.452E-09   -6.382E-09   -6.304E-09   -6.218E-09   -6.124E-09   -6.023E-09   -5.915E-09
    -5.800E-09   -5.679E-09   -5.553E-09   -5.420E-09   -5.283E-09   -5.141E-09   -4.995E-09   -4.844E-09   -4.690E-09   -4.533E-09
    -4.374E-09   -4.212E-09   -4.048E-09   -3.882E-09   -3.716E-09   -3.549E-09   -3.381E-09   -3.214E-09   -3.046E-09   -2.880E-09
    -2.715E-09   -2.551E-09   -2.389E-09   -2.229E-09   -2.072E-09   -1.918E-09   -1.767E-09   -1.620E-09   -1.476E-09   -1.337E-09
    -1.202E-09   -1.072E-09   -9.468E-10   -8.265E-10   -7.110E-10   -6.000E-10   -4.935E-10   -3.912E-10   -2.932E-10   -1.992E-10
    -1.092E-10   -2.297E-11    5.957E-11    1.385E-10    2.141E-10    2.863E-10    3.553E-10    4.212E-10    4.842E-10    5.443E-10
     6.017E-10    6.565E-10    7.088E-10    7.586E-10    8.062E-10    8.516E-10    8.950E-10    9.364E-10    9.759E-10    1.014E-09
     1.050E-09    1.084E-09    1.117E-09    1.149E-09    1.179E-09    1.208E-09    1.235E-09    1.261E-09    1.287E-09    1.311E-09
     1.334E-09    1.356E-09    1.377E-09    1.397E-09    1.416E-09    1.435E-09    1.453E-09    1.470E-09    1.487E-09    1.503E-09
     1.519E-09    1.534E-09    1.549E-09    1.563E-09    1.577E-09    1.591E-09    1.605E-09    1.618E-09    1.631E-09    1.644E-09
     1.656E-09    1.669E-09    1.681E-09    1.692E-09    1.704E-09    1.715E-09    1.726E-09    1.737E-09    1.747E-09    1.757E-09
     1.767E-09    1.776E-09    1.785E-09    1.793E-09    1.801E-09    1.809E-09    1.816E-09    1.823E-09    1.830E-09    1.836E-09
     1.842E-09    1.847E-09    1.851E-09    1.856E-09    1.859E-09    1.863E-09    1.865E-09    1.867E-09    1.869E-09    1.870E-09
     1.871E-09    1.870E-09    1.870E-09    1.868E-09    1.866E-09    1.863E-09    1.860E-09    1.855E-09    1.851E-09    1.845E-09
     1.838E-09    1.831E-09    1.823E-09    1.814E-09    1.805E-09    1.795E-09    1.783E-09    1.771E-09    1.758E-09    1.745E-09
     1.730E-09    1.715E-09    1.698E-09
 Gln      Conc. = 2.35E-09
   4.70110E-09  4.19579E-09  4.89055E-09  5.33149E-09  5.88637E-09  6.31104E-09  6.99551E-09  6.91942E-09  8.29399E-09  6.88312E-09
   8.49414E-09  7.80206E-09  7.34648E-09  7.55529E-09  7.15429E-09  6.88078E-09  6.69582E-09  6.56014E-09  6.45680E-09  6.37416E-09
   6.30651E-09  6.24969E-09  6.20048E-09  6.15793E-09  6.11947E-09  6.08330E-09  6.05287E-09  6.02214E-09  5.99366E-09  5.96654E-09
   5.94001E-09  5.91375E-09  5.88752E-09  5.86107E-09  5.83421E-09  5.80675E-09  5.77853E-09  5.74934E-09  5.71896E-09  5.68712E-09
   5.65440E-09  5.61915E-09  5.58323E-09  5.54459E-09  5.50401E-09  5.46102E-09  5.41646E-09  5.36641E-09  5.31682E-09  5.26600E-09
   5.20716E-09  5.15126E-09  5.10723E-09  5.09392E-09  5.21860E-09  5.83864E-09  5.59403E-09  5.77999E-09  7.34949E-09  7.53717E-09
   7.93890E-09  8.88405E-09  9.35411E-09  1.00799E-08  1.00293E-08  1.05330E-08  1.04880E-08  8.84345E-09  9.82789E-09  9.38924E-09
   7.50016E-09  7.76728E-09  7.84428E-09  7.11964E-09  7.15556E-09  8.04028E-09  7.79985E-09  8.51882E-09  8.97171E-09  9.58837E-09
   9.84728E-09  9.97874E-09  1.06765E-08  1.06024E-08  9.53182E-09  1.06251E-08  9.60912E-09  8.89700E-09  8.92183E-09  8.37039E-09
   7.96682E-09  7.67468E-09  7.44114E-09  7.25465E-09  7.10153E-09  6.96753E-09  6.84868E-09  6.74506E-09  6.65095E-09  6.56489E-09
   6.48725E-09  6.41607E-09  6.34958E-09  6.28839E-09  6.23024E-09  6.17648E-09  6.12618E-09  6.07891E-09  6.03449E-09  5.99272E-09
   5.95346E-09  5.91655E-09  5.88187E-09  5.84926E-09  5.81844E-09  5.78911E-09  5.76107E-09  5.73404E-09  5.70779E-09  5.68210E-09
   5.65674E-09  5.63149E-09  5.60613E-09  5.58046E-09  5.55425E-09  5.52731E-09  5.49942E-09  5.47039E-09  5.44001E-09  5.40809E-09
   5.37441E-09  5.33879E-09  5.30102E-09  5.26091E-09  5.21828E-09  5.17291E-09  5.12463E-09  5.07325E-09  5.01858E-09  4.96042E-09
   4.89856E-09  4.83287E-09  4.76315E-09  4.68921E-09  4.61086E-09  4.52794E-09  4.44028E-09  4.34771E-09  4.25005E-09  4.14716E-09
   4.03889E-09  3.92510E-09  3.80568E-09  3.68050E-09  3.54950E-09  3.41262E-09  3.26987E-09  3.12132E-09  2.96717E-09  2.80774E-09
   2.64371E-09  2.47626E-09  2.30765E-09  2.14242E-09  1.99111E-09  1.88352E-09  1.93652E-09  2.85675E-09  3.27382E-09  2.36590E-09
   3.23566E-09  3.75018E-09  4.37975E-09  4.14246E-09  3.39780E-09  2.67675E-09  1.91396E-09  1.46498E-09  1.83533E-09 -1.19656E-09
  -2.03907E-09 -2.49539E-09 -2.84869E-09 -3.16090E-09 -3.45113E-09 -3.72658E-09 -3.99015E-09 -4.24297E-09 -4.48528E-09 -4.71694E-09
  -4.93755E-09 -5.14658E-09 -5.34340E-09 -5.52730E-09 -5.69760E-09 -5.85359E-09 -5.99475E-09 -6.12130E-09 -6.23360E-09 -6.33202E-09
  -6.41690E-09 -6.48859E-09 -6.54746E-09 -6.59383E-09 -6.62807E-09 -6.65052E-09 -6.66153E-09 -6.66145E-09 -6.65063E-09 -6.62941E-09
  -6.59815E-09 -6.55718E-09 -6.50686E-09 -6.44755E-09 -6.37957E-09 -6.30330E-09 -6.21906E-09 -6.12720E-09 -6.02809E-09 -5.92204E-09
  -5.80942E-09 -5.69056E-09 -5.56582E-09 -5.43552E-09 -5.30003E-09 -5.15977E-09 -5.01516E-09 -4.86659E-09 -4.71448E-09 -4.55926E-09
  -4.40131E-09 -4.24103E-09 -4.07884E-09 -3.91512E-09 -3.75025E-09 -3.58464E-09 -3.41866E-09 -3.25270E-09 -3.08710E-09 -2.92229E-09
  -2.75860E-09 -2.59638E-09 -2.43601E-09 -2.27784E-09 -2.12220E-09 -1.96945E-09 -1.81990E-09 -1.67391E-09 -1.53179E-09 -1.39387E-09
  -1.26043E-09 -1.13182E-09 -1.00813E-09 -8.89251E-10 -7.75061E-10 -6.65436E-10 -5.60233E-10 -4.59337E-10 -3.62612E-10 -2.69937E-10
  -1.81189E-10 -9.62333E-11 -1.49590E-11  6.27684E-11  1.37060E-10  2.08042E-10  2.75851E-10  3.40569E-10  4.02334E-10  4.61269E-10
   5.17488E-10  5.71089E-10  6.22205E-10  6.70939E-10  7.17388E-10  7.61691E-10  8.03921E-10  8.44204E-10  8.82635E-10  9.19327E-10
   9.54356E-10  9.87791E-10  1.01970E-09  1.05015E-09  1.07921E-09  1.10694E-09  1.13340E-09  1.15867E-09  1.18278E-09  1.20582E-09
   1.22783E-09  1.24888E-09  1.26902E-09  1.28830E-09  1.30679E-09  1.32452E-09  1.34157E-09  1.35796E-09  1.37377E-09  1.38902E-09
   1.40377E-09  1.41806E-09  1.43194E-09  1.44545E-09  1.45862E-09  1.47150E-09  1.48413E-09  1.49654E-09  1.50873E-09  1.52069E-09
   1.53243E-09  1.54391E-09  1.55515E-09  1.56612E-09  1.57681E-09  1.58722E-09  1.59733E-09  1.60715E-09  1.61664E-09  1.62581E-09
   1.63465E-09  1.64314E-09  1.65127E-09  1.65904E-09  1.66643E-09  1.67343E-09  1.68004E-09  1.68623E-09  1.69201E-09  1.69736E-09
   1.70227E-09  1.70673E-09  1.71073E-09  1.71426E-09  1.71730E-09  1.71985E-09  1.72189E-09  1.72340E-09  1.72436E-09  1.72474E-09
   1.72454E-09  1.72372E-09  1.72228E-09  1.72020E-09  1.71746E-09  1.71404E-09  1.70993E-09  1.70512E-09  1.69958E-09  1.69331E-09
   1.68629E-09  1.67851E-09  1.66996E-09  1.66062E-09  1.65048E-09  1.63955E-09  1.62779E-09  1.61521E-09  1.60179E-09  1.58754E-09
   1.57243E-09  1.55647E-09  1.53964E-09
 GPC      Conc. = 1.19E-10
   5.39567E-09  5.48197E-09  5.54454E-09  5.56937E-09  5.65675E-09  5.60083E-09  5.66393E-09  5.69994E-09  5.83811E-09  5.95872E-09
   6.08140E-09  6.11071E-09  6.21372E-09  6.15617E-09  6.24434E-09  6.18356E-09  6.12818E-09  5.98431E-09  5.87868E-09  5.78639E-09
   5.68882E-09  5.57342E-09  5.45127E-09  5.91580E-09  6.18967E-09  5.92577E-09  6.25704E-09  6.68297E-09  7.27987E-09  7.68127E-09
   7.74387E-09  7.88162E-09  7.69244E-09  7.95974E-09  8.51609E-09  7.63884E-09  7.26809E-09  7.06786E-09  6.93906E-09  6.84719E-09
   6.77715E-09  6.72112E-09  6.67469E-09  6.63507E-09  6.60048E-09  6.56964E-09  6.54171E-09  6.51604E-09  6.49210E-09  6.46961E-09
   6.44824E-09  6.42774E-09  6.40797E-09  6.38879E-09  6.37017E-09  6.35184E-09  6.33380E-09  6.31606E-09  6.29847E-09  6.28107E-09
   6.26374E-09  6.24645E-09  6.22918E-09  6.21189E-09  6.19458E-09  6.17723E-09  6.15978E-09  6.14224E-09  6.12458E-09  6.10679E-09
   6.08885E-09  6.07077E-09  6.05252E-09  6.03411E-09  6.01551E-09  5.99674E-09  5.97778E-09  5.95860E-09  5.93923E-09  5.91968E-09
   5.89987E-09  5.87988E-09  5.85963E-09  5.83921E-09  5.81851E-09  5.79763E-09  5.77657E-09  5.75536E-09  5.73405E-09  5.71264E-09
   5.69121E-09  5.66976E-09  5.64835E-09  5.62700E-09  5.60576E-09  5.58464E-09  5.56372E-09  5.54301E-09  5.52256E-09  5.50243E-09
   5.48260E-09  5.46317E-09  5.44416E-09  5.42560E-09  5.40754E-09  5.39001E-09  5.37308E-09  5.35675E-09  5.34110E-09  5.32615E-09
   5.31197E-09  5.29857E-09  5.28596E-09  5.27413E-09  5.26290E-09  5.25209E-09  5.24158E-09  5.23116E-09  5.22069E-09  5.20999E-09
   5.19891E-09  5.18726E-09  5.17488E-09  5.16161E-09  5.14725E-09  5.13165E-09  5.11462E-09  5.09599E-09  5.07559E-09  5.05324E-09
   5.02874E-09  5.00194E-09  4.97265E-09  4.94067E-09  4.90585E-09  4.86799E-09  4.82692E-09  4.78247E-09  4.73444E-09  4.68264E-09
   4.62688E-09  4.56701E-09  4.50285E-09  4.43420E-09  4.36088E-09  4.28270E-09  4.19950E-09  4.11107E-09  4.01726E-09  3.91786E-09
   3.81273E-09  3.70166E-09  3.58450E-09  3.46106E-09  3.33118E-09  3.19468E-09  3.05142E-09  2.90123E-09  2.74396E-09  2.57947E-09
   2.40766E-09  2.22845E-09  2.04189E-09  1.84819E-09  1.64832E-09  1.44608E-09  1.26429E-09  1.12027E-09  8.05616E-10  6.31230E-10
   4.06402E-10  2.12113E-10 -5.11395E-11 -3.26769E-10 -6.51552E-10 -9.07418E-10 -1.27270E-09 -1.42167E-09 -1.88234E-09 -2.19986E-09
  -2.48795E-09 -2.76720E-09 -3.04095E-09 -3.30961E-09 -3.57277E-09 -3.82984E-09 -4.08008E-09 -4.32271E-09 -4.55690E-09 -4.78188E-09
  -4.99682E-09 -5.20093E-09 -5.39338E-09 -5.57335E-09 -5.74008E-09 -5.89275E-09 -6.03081E-09 -6.15444E-09 -6.26398E-09 -6.35977E-09
  -6.44213E-09 -6.51139E-09 -6.56791E-09 -6.61201E-09 -6.64405E-09 -6.66435E-09 -6.67327E-09 -6.67114E-09 -6.65831E-09 -6.63513E-09
  -6.60195E-09 -6.55909E-09 -6.50692E-09 -6.44578E-09 -6.37601E-09 -6.29797E-09 -6.21199E-09 -6.11842E-09 -6.01762E-09 -5.90991E-09
  -5.79565E-09 -5.67517E-09 -5.54882E-09 -5.41694E-09 -5.27989E-09 -5.13810E-09 -4.99195E-09 -4.84188E-09 -4.68829E-09 -4.53159E-09
