 LCModel (Version 6.3-1R) Copyright: S.W. Provencher.          Ref.: Magn. Reson. Med. 30:672-679 (1993).                
 onepulse 26x22_ftSpec_smooth_lcm
 26 lines in following concentration table = NCONC+1
    Conc.  %SD   /Cr    Metabolite                                         
 1.74E-10 257%   0.000 Ala                                                 
 7.89E-10 138%   0.000 Asp                                                 
    0.000 999%   0.000 Cr                                                  
 3.20E-09  22%   0.000 GABA                                                
 2.43E-09  33%   0.000 Glc                                                 
    0.000 999%   0.000 Gln                                                 
 2.48E-11 999%   0.000 Glu                                                 
    0.000 999%   0.000 Glyc                                                
 1.92E-10  66%   0.000 GPC                                                 
 2.35E-10 231%   0.000 GSH                                                 
 5.91E-10  89%   0.000 Ins                                                 
    0.000 999%   0.000 Lac                                                 
    0.000 999%   0.000 NAAG                                                
 1.18E-09  32%   0.000 NAA                                                 
    0.000 999%   0.000 PCh                                                 
    0.000 999%   0.000 PCr                                                 
    0.000 999%   0.000 PE                                                  
    0.000 999%   0.000 Scyllo                                              
 5.49E-10 272%   0.000 Ser                                                 
    0.000 999%   0.000 Tau                                                 
 1.92E-10  66%   0.000 GPC+PCh                                             
 1.18E-09  32%   0.000 NAA+NAAG                                            
 5.91E-10  89%   0.000 Ins+Glyc                                            
    0.000 999%   0.000 Cr+PCr                                              
 2.48E-11 999%   0.000 Glu+Gln                                             
   6 lines in following misc. output table
  FWHM = 0.089 ppm    S/N =   2                                            
  Data shift = 0.335 ppm                                                   
  Ph:  39 deg      16.4 deg/ppm                                            
  alphaB,S = 1.8E-01,   8.3E+01                                            
   16 spline knots.   Ns = 5(1)                                            
  (10) 2 infls.   ( 5) 1 extrs.                                            
  363 points on ppm-axis = NY
      4.250000     4.238821     4.227641     4.216462     4.205282     4.194103     4.182923     4.171744     4.160564     4.149385
      4.138206     4.127026     4.115847     4.104667     4.093488     4.082308     4.071129     4.059949     4.048770     4.037591
      4.026411     4.015232     4.004052     3.992873     3.981693     3.970514     3.959334     3.948155     3.936975     3.925796
      3.914617     3.903437     3.892258     3.881078     3.869899     3.858719     3.847540     3.836360     3.825181     3.814002
      3.802822     3.791643     3.780463     3.769284     3.758104     3.746925     3.735745     3.724566     3.713387     3.702207
      3.691028     3.679848     3.668669     3.657489     3.646310     3.635130     3.623951     3.612772     3.601592     3.590413
      3.579233     3.568054     3.556874     3.545695     3.534515     3.523336     3.512156     3.500977     3.489798     3.478618
      3.467439     3.456259     3.445080     3.433900     3.422721     3.411541     3.400362     3.389183     3.378003     3.366824
      3.355644     3.344465     3.333285     3.322106     3.310926     3.299747     3.288568     3.277388     3.266209     3.255029
      3.243850     3.232670     3.221491     3.210311     3.199132     3.187953     3.176773     3.165594     3.154414     3.143235
      3.132055     3.120876     3.109696     3.098517     3.087337     3.076158     3.064979     3.053799     3.042620     3.031440
      3.020261     3.009081     2.997902     2.986722     2.975543     2.964364     2.953184     2.942005     2.930825     2.919646
      2.908466     2.897287     2.886107     2.874928     2.863749     2.852569     2.841390     2.830210     2.819031     2.807851
      2.796672     2.785492     2.774313     2.763134     2.751954     2.740775     2.729595     2.718416     2.707236     2.696057
      2.684877     2.673698     2.662519     2.651339     2.640160     2.628980     2.617801     2.606621     2.595442     2.584262
      2.573083     2.561903     2.550724     2.539545     2.528365     2.517186     2.506006     2.494827     2.483647     2.472468
      2.461288     2.450109     2.438930     2.427750     2.416571     2.405391     2.394212     2.383032     2.371853     2.360673
      2.349494     2.338315     2.327135     2.315956     2.304776     2.293597     2.282417     2.271238     2.260058     2.248879
      2.237700     2.226520     2.215341     2.204161     2.192982     2.181802     2.170623     2.159443     2.148264     2.137084
      2.125905     2.114726     2.103546     2.092367     2.081187     2.070008     2.058828     2.047649     2.036469     2.025290
      2.014111     2.002931     1.991752     1.980572     1.969393     1.958213     1.947034     1.935854     1.924675     1.913496
      1.902316     1.891137     1.879957     1.868778     1.857598     1.846419     1.835239     1.824060     1.812881     1.801701
      1.790522     1.779342     1.768163     1.756983     1.745804     1.734624     1.723445     1.712265     1.701086     1.689907
      1.678727     1.667548     1.656368     1.645189     1.634009     1.622830     1.611650     1.600471     1.589292     1.578112
      1.566933     1.555753     1.544574     1.533394     1.522215     1.511035     1.499856     1.488677     1.477497     1.466318
      1.455138     1.443959     1.432779     1.421600     1.410420     1.399241     1.388062     1.376882     1.365703     1.354523
      1.343344     1.332164     1.320985     1.309805     1.298626     1.287446     1.276267     1.265088     1.253908     1.242729
      1.231549     1.220370     1.209190     1.198011     1.186831     1.175652     1.164473     1.153293     1.142114     1.130934
      1.119755     1.108575     1.097396     1.086216     1.075037     1.063858     1.052678     1.041499     1.030319     1.019140
      1.007960     0.996781     0.985601     0.974422     0.963243     0.952063     0.940884     0.929704     0.918525     0.907345
      0.896166     0.884986     0.873807     0.862628     0.851448     0.840269     0.829089     0.817910     0.806730     0.795551
      0.784371     0.773192     0.762012     0.750833     0.739654     0.728474     0.717295     0.706115     0.694936     0.683756
      0.672577     0.661397     0.650218     0.639039     0.627859     0.616680     0.605500     0.594321     0.583141     0.571962
      0.560782     0.549603     0.538424     0.527244     0.516065     0.504885     0.493706     0.482526     0.471347     0.460167
      0.448988     0.437809     0.426629     0.415450     0.404270     0.393091     0.381911     0.370732     0.359552     0.348373
      0.337193     0.326014     0.314835     0.303655     0.292476     0.281296     0.270117     0.258937     0.247758     0.236578
      0.225399     0.214220     0.203040
 NY phased data points follow
   1.69219E-08  1.92534E-08  2.06047E-08  2.22691E-08  2.10263E-08  2.06818E-08  1.89758E-08  1.91457E-08  1.72973E-08  1.75024E-08
   1.62594E-08  1.62449E-08  1.65341E-08  1.66683E-08  1.58282E-08  1.73289E-08  1.74948E-08  1.75040E-08  1.71271E-08  1.71905E-08
   1.61392E-08  1.63637E-08  1.57442E-08  1.52282E-08  1.54631E-08  1.55182E-08  1.50880E-08  1.65307E-08  1.57684E-08  1.52599E-08
   1.48510E-08  1.53031E-08  1.57931E-08  1.63394E-08  1.74336E-08  1.74575E-08  1.75160E-08  1.61377E-08  1.50959E-08  1.39172E-08
   1.29200E-08  1.30742E-08  1.21142E-08  1.25197E-08  1.16637E-08  1.14420E-08  1.09112E-08  1.02777E-08  1.01084E-08  9.74594E-09
   8.99395E-09  9.68214E-09  9.75259E-09  1.02833E-08  9.63217E-09  9.67266E-09  9.07866E-09  9.34069E-09  8.42750E-09  9.10262E-09
   9.00565E-09  9.94438E-09  9.88775E-09  1.18626E-08  1.30522E-08  1.51471E-08  1.58046E-08  1.59184E-08  1.42874E-08  1.26806E-08
   1.16804E-08  1.13067E-08  9.72766E-09  9.52796E-09  9.43488E-09  8.43145E-09  7.89025E-09  9.01422E-09  8.92100E-09  1.01829E-08
   1.29656E-08  1.58886E-08  1.70511E-08  1.72055E-08  1.70044E-08  1.57147E-08  1.47817E-08  1.33345E-08  1.33531E-08  1.24509E-08
   1.23428E-08  1.18524E-08  1.11537E-08  1.06950E-08  1.02045E-08  9.62059E-09  8.94088E-09  8.60771E-09  8.33003E-09  7.84391E-09
   7.61424E-09  7.95270E-09  7.34243E-09  7.76826E-09  7.72423E-09  8.16857E-09  7.25899E-09  7.21280E-09  6.85676E-09  6.58436E-09
   5.99660E-09  5.86864E-09  5.12168E-09  4.41282E-09  5.18406E-09  5.41327E-09  5.89380E-09  5.33952E-09  5.64033E-09  4.97172E-09
   5.35125E-09  5.63559E-09  5.22175E-09  5.00170E-09  4.89900E-09  4.19121E-09  3.87580E-09  3.27839E-09  2.76284E-09  3.82406E-09
   4.03228E-09  3.84808E-09  3.95936E-09  4.15660E-09  3.86406E-09  4.24664E-09  3.94581E-09  3.88973E-09  3.90467E-09  3.71421E-09
   4.03891E-09  4.94657E-09  5.66104E-09  5.91734E-09  5.02141E-09  5.64367E-09  5.39691E-09  6.66277E-09  6.52498E-09  6.61335E-09
   6.73393E-09  6.25494E-09  6.88813E-09  7.03213E-09  6.60867E-09  6.72741E-09  6.99039E-09  7.00260E-09  6.98730E-09  7.33704E-09
   7.33314E-09  7.42181E-09  7.69620E-09  8.29132E-09  7.81408E-09  7.85937E-09  8.25989E-09  8.67443E-09  9.76191E-09  1.12765E-08
   1.24866E-08  1.54783E-08  1.74612E-08  1.88346E-08  1.83797E-08  1.64104E-08  1.36402E-08  1.19003E-08  9.99175E-09  8.89353E-09
   7.28584E-09  6.45718E-09  5.28984E-09  4.61192E-09  3.64964E-09  2.41075E-09  1.52271E-09  4.43853E-10 -1.68218E-10 -1.39804E-09
  -2.87613E-09 -3.72978E-09 -5.73944E-09 -7.02333E-09 -8.11240E-09 -9.66738E-09 -1.20992E-08 -1.37854E-08 -1.60073E-08 -1.80600E-08
  -2.03696E-08 -2.20274E-08 -2.35524E-08 -2.45448E-08 -2.61427E-08 -2.62321E-08 -2.72988E-08 -2.64677E-08 -2.58087E-08 -2.39467E-08
  -2.25929E-08 -1.95811E-08 -1.67985E-08 -1.44389E-08 -1.17363E-08 -8.49744E-09 -5.64608E-09 -3.61858E-09 -1.23678E-09  1.71424E-10
   1.21598E-09  2.11777E-09  1.64656E-09  1.42759E-09  1.87519E-09  4.78183E-10 -1.24116E-10 -4.91432E-10 -5.11283E-10 -2.58188E-10
   2.09983E-10 -1.17179E-10  8.50425E-11  9.52545E-10  6.34053E-10 -4.29693E-11 -1.49766E-10  3.22855E-11 -1.97701E-10 -2.11004E-10
  -9.00289E-11 -8.46451E-11  4.52496E-10  6.35594E-10  5.04951E-10  6.02837E-10  8.12321E-10  4.03488E-10  3.58976E-10  1.78556E-11
  -1.58918E-10 -7.72725E-11  4.30836E-10  2.60606E-10  3.11882E-10  8.27521E-10  1.22633E-09  1.11770E-09  1.54801E-09  1.05304E-09
   1.36993E-09  4.14409E-10  5.75360E-10 -1.79839E-11 -2.24336E-11 -1.34857E-10  1.23927E-10  2.05977E-10  2.29502E-10  6.47134E-10
   9.59786E-10  1.11259E-09  9.90961E-10  1.03346E-09  1.75496E-09  1.49836E-09  1.91647E-09  1.32761E-09  1.12058E-09  1.47925E-09
   1.47478E-09  1.13890E-09  1.16277E-09  9.99217E-10  1.07206E-09  9.52006E-10  1.32426E-09  8.44247E-10  8.80184E-10  2.26802E-10
   1.43416E-09  1.18462E-09  1.20934E-09  7.80893E-10  9.11991E-10  7.96326E-10  1.58596E-09  8.20199E-10  1.13985E-09  6.28327E-10
   8.47122E-10  1.12956E-10  7.22992E-10  8.46862E-10  8.54103E-10  1.02466E-09  8.00578E-10  9.86073E-10  1.13139E-09  4.06797E-10
   5.97000E-10  8.15769E-10  1.04799E-09  1.19935E-09  9.95742E-10  4.72320E-10  1.33023E-09  8.85125E-10  1.15167E-09  8.61372E-10
   1.66345E-09  1.18199E-09  1.22705E-09  8.04321E-10  1.64291E-09  1.15518E-09  1.51537E-09  1.37655E-09  1.49761E-09  9.25569E-10
   1.63088E-09  1.91479E-09  1.54171E-09  1.49638E-09  1.72884E-09  1.95494E-09  1.88853E-09  1.67225E-09  1.34452E-09  1.89264E-09
   1.48431E-09  1.88609E-09  2.36686E-09  1.94235E-09  2.03527E-09  2.02729E-09  2.07769E-09  1.53117E-09  1.99610E-09  1.92922E-09
   2.46170E-09  2.25139E-09  2.96002E-09  2.29670E-09  2.26516E-09  2.08746E-09  2.95065E-09  2.23673E-09  2.68352E-09  2.68536E-09
   2.70757E-09  2.50862E-09  2.53102E-09
 NY points of the fit to the data follow
   1.94277E-08  1.96550E-08  1.98236E-08  1.99546E-08  1.98207E-08  1.93850E-08  1.86221E-08  1.77408E-08  1.69613E-08  1.63258E-08
   1.61454E-08  1.62060E-08  1.63571E-08  1.66168E-08  1.69538E-08  1.73614E-08  1.78174E-08  1.81740E-08  1.82087E-08  1.80178E-08
   1.78018E-08  1.73692E-08  1.66123E-08  1.58625E-08  1.51853E-08  1.46778E-08  1.46075E-08  1.49916E-08  1.55532E-08  1.61706E-08
   1.64068E-08  1.62951E-08  1.62477E-08  1.60186E-08  1.56660E-08  1.58345E-08  1.61677E-08  1.62284E-08  1.59304E-08  1.53482E-08
   1.46039E-08  1.37886E-08  1.25537E-08  1.14267E-08  1.09050E-08  1.03502E-08  9.76553E-09  9.52851E-09  9.53835E-09  9.65394E-09
   9.80993E-09  9.91118E-09  9.92852E-09  9.85115E-09  9.74727E-09  9.70435E-09  9.76853E-09  9.87646E-09  9.88611E-09  9.82571E-09
   9.87556E-09  1.01811E-08  1.07373E-08  1.13470E-08  1.22155E-08  1.31393E-08  1.37798E-08  1.42013E-08  1.44542E-08  1.44096E-08
   1.40201E-08  1.32416E-08  1.22526E-08  1.13397E-08  1.04097E-08  9.50097E-09  9.35096E-09  1.01641E-08  1.11949E-08  1.24154E-08
   1.36920E-08  1.47750E-08  1.56781E-08  1.63211E-08  1.63714E-08  1.57505E-08  1.45420E-08  1.28928E-08  1.14209E-08  1.10408E-08
   1.09312E-08  1.08487E-08  1.06071E-08  1.00773E-08  9.61919E-09  9.24755E-09  8.65064E-09  8.13339E-09  7.83008E-09  7.54814E-09
   7.35759E-09  7.25431E-09  7.19940E-09  7.20619E-09  7.23688E-09  7.25995E-09  7.25628E-09  7.21275E-09  7.12031E-09  6.97927E-09
   6.80715E-09  6.64387E-09  6.51526E-09  6.35080E-09  6.19722E-09  6.11759E-09  6.06061E-09  6.01231E-09  5.96801E-09  5.92557E-09
   5.88389E-09  5.84226E-09  5.80017E-09  5.75724E-09  5.71320E-09  5.66782E-09  5.62088E-09  5.57223E-09  5.52173E-09  5.46922E-09
   5.41457E-09  5.35766E-09  5.29838E-09  5.23661E-09  5.17227E-09  5.10523E-09  5.03540E-09  4.96270E-09  4.88704E-09  4.80833E-09
   4.72647E-09  4.64143E-09  4.55308E-09  4.46135E-09  4.36616E-09  4.26747E-09  4.16523E-09  4.05939E-09  3.94994E-09  3.83687E-09
   3.72024E-09  3.60010E-09  3.47660E-09  3.34992E-09  3.22036E-09  3.08832E-09  2.95445E-09  2.81961E-09  2.68516E-09  2.55309E-09
   2.42659E-09  2.31084E-09  2.21501E-09  2.15664E-09  2.17482E-09  2.37923E-09  3.23091E-09  5.75882E-09  9.11497E-09  1.24620E-08
   1.54572E-08  1.79197E-08  1.95887E-08  2.01051E-08  1.90776E-08  1.62189E-08  1.15857E-08  5.94550E-09  1.16768E-09 -7.91520E-10
  -1.62402E-09 -2.15368E-09 -2.56193E-09 -2.90809E-09 -3.21702E-09 -3.50073E-09 -3.76553E-09 -4.01488E-09 -4.25069E-09 -4.47400E-09
  -4.68527E-09 -4.88465E-09 -5.07203E-09 -5.24713E-09 -5.40960E-09 -5.55901E-09 -5.69504E-09 -5.81797E-09 -5.92816E-09 -6.02596E-09
  -6.11170E-09 -6.18568E-09 -6.24821E-09 -6.29958E-09 -6.34008E-09 -6.36997E-09 -6.38954E-09 -6.39905E-09 -6.39878E-09 -6.38899E-09
  -6.36994E-09 -6.34188E-09 -6.30508E-09 -6.25981E-09 -6.20630E-09 -6.14483E-09 -6.07564E-09 -5.99899E-09 -5.91514E-09 -5.82433E-09
  -5.72682E-09 -5.62286E-09 -5.51270E-09 -5.39660E-09 -5.27485E-09 -5.14782E-09 -5.01588E-09 -4.87942E-09 -4.73882E-09 -4.59446E-09
  -4.44672E-09 -4.29597E-09 -4.14262E-09 -3.98702E-09 -3.82955E-09 -3.67061E-09 -3.51056E-09 -3.34980E-09 -3.18867E-09 -3.02760E-09
  -2.86695E-09 -2.70708E-09 -2.54839E-09 -2.39127E-09 -2.23606E-09 -2.08317E-09 -1.93297E-09 -1.78583E-09 -1.64215E-09 -1.50230E-09
  -1.36663E-09 -1.23558E-09 -1.10927E-09 -9.87631E-10 -8.70563E-10 -7.57969E-10 -6.49728E-10 -5.45753E-10 -4.45925E-10 -3.50149E-10
  -2.58325E-10 -1.70333E-10 -8.60882E-11 -5.47012E-12  7.16101E-11  1.45264E-10  2.15618E-10  2.82727E-10  3.46722E-10  4.07716E-10
   4.65809E-10  5.21088E-10  5.73681E-10  6.23681E-10  6.71175E-10  7.16309E-10  7.59140E-10  7.99800E-10  8.38380E-10  8.75000E-10
   9.09733E-10  9.42656E-10  9.73841E-10  1.00336E-09  1.03129E-09  1.05770E-09  1.08266E-09  1.10624E-09  1.12853E-09  1.14958E-09
   1.16947E-09  1.18828E-09  1.20607E-09  1.22293E-09  1.23891E-09  1.25411E-09  1.26857E-09  1.28239E-09  1.29562E-09  1.30836E-09
   1.32065E-09  1.33259E-09  1.34424E-09  1.35566E-09  1.36695E-09  1.37816E-09  1.38937E-09  1.40065E-09  1.41203E-09  1.42353E-09
   1.43516E-09  1.44692E-09  1.45883E-09  1.47090E-09  1.48314E-09  1.49557E-09  1.50820E-09  1.52103E-09  1.53408E-09  1.54736E-09
   1.56089E-09  1.57467E-09  1.58871E-09  1.60303E-09  1.61764E-09  1.63255E-09  1.64778E-09  1.66332E-09  1.67920E-09  1.69543E-09
   1.71202E-09  1.72898E-09  1.74632E-09  1.76405E-09  1.78219E-09  1.80074E-09  1.81969E-09  1.83903E-09  1.85873E-09  1.87878E-09
   1.89916E-09  1.91984E-09  1.94082E-09  1.96207E-09  1.98358E-09  2.00532E-09  2.02728E-09  2.04943E-09  2.07176E-09  2.09426E-09
   2.11690E-09  2.13966E-09  2.16252E-09  2.18548E-09  2.20850E-09  2.23157E-09  2.25467E-09  2.27779E-09  2.30090E-09  2.32398E-09
   2.34702E-09  2.37000E-09  2.39290E-09
 NY background values follow
     6.649E-09    6.626E-09    6.603E-09    6.580E-09    6.557E-09    6.534E-09    6.512E-09    6.489E-09    6.466E-09    6.444E-09
     6.421E-09    6.399E-09    6.376E-09    6.354E-09    6.332E-09    6.310E-09    6.288E-09    6.267E-09    6.245E-09    6.224E-09
     6.203E-09    6.182E-09    6.162E-09    6.141E-09    6.121E-09    6.101E-09    6.082E-09    6.063E-09    6.044E-09    6.025E-09
     6.007E-09    5.989E-09    5.971E-09    5.953E-09    5.936E-09    5.920E-09    5.903E-09    5.887E-09    5.872E-09    5.857E-09
     5.842E-09    5.828E-09    5.814E-09    5.800E-09    5.787E-09    5.775E-09    5.762E-09    5.751E-09    5.739E-09    5.729E-09
     5.718E-09    5.709E-09    5.699E-09    5.690E-09    5.682E-09    5.675E-09    5.667E-09    5.661E-09    5.655E-09    5.649E-09
     5.644E-09    5.639E-09    5.634E-09    5.630E-09    5.626E-09    5.623E-09    5.619E-09    5.616E-09    5.613E-09    5.611E-09
     5.608E-09    5.605E-09    5.603E-09    5.600E-09    5.597E-09    5.595E-09    5.592E-09    5.589E-09    5.586E-09    5.583E-09
     5.579E-09    5.576E-09    5.571E-09    5.567E-09    5.562E-09    5.557E-09    5.552E-09    5.546E-09    5.539E-09    5.533E-09
     5.525E-09    5.517E-09    5.509E-09    5.500E-09    5.491E-09    5.481E-09    5.470E-09    5.459E-09    5.447E-09    5.435E-09
     5.422E-09    5.408E-09    5.393E-09    5.378E-09    5.362E-09    5.345E-09    5.328E-09    5.309E-09    5.290E-09    5.270E-09
     5.249E-09    5.227E-09    5.205E-09    5.181E-09    5.157E-09    5.131E-09    5.104E-09    5.075E-09    5.046E-09    5.014E-09
     4.982E-09    4.947E-09    4.911E-09    4.872E-09    4.832E-09    4.790E-09    4.745E-09    4.699E-09    4.650E-09    4.598E-09
     4.544E-09    4.488E-09    4.428E-09    4.366E-09    4.301E-09    4.233E-09    4.162E-09    4.088E-09    4.010E-09    3.930E-09
     3.845E-09    3.757E-09    3.666E-09    3.570E-09    3.471E-09    3.368E-09    3.261E-09    3.149E-09    3.033E-09    2.913E-09
     2.788E-09    2.658E-09    2.524E-09    2.385E-09    2.240E-09    2.091E-09    1.936E-09    1.776E-09    1.611E-09    1.440E-09
     1.263E-09    1.081E-09    8.923E-10    6.980E-10    4.975E-10    2.908E-10    7.769E-11   -1.418E-10   -3.678E-10   -5.997E-10
    -8.369E-10   -1.079E-09   -1.324E-09   -1.573E-09   -1.824E-09   -2.077E-09   -2.331E-09   -2.586E-09   -2.840E-09   -3.094E-09
    -3.345E-09   -3.594E-09   -3.841E-09   -4.083E-09   -4.321E-09   -4.554E-09   -4.781E-09   -5.002E-09   -5.216E-09   -5.421E-09
    -5.618E-09   -5.806E-09   -5.984E-09   -6.151E-09   -6.307E-09   -6.451E-09   -6.582E-09   -6.701E-09   -6.807E-09   -6.902E-09
    -6.985E-09   -7.057E-09   -7.118E-09   -7.167E-09   -7.206E-09   -7.235E-09   -7.253E-09   -7.262E-09   -7.261E-09   -7.250E-09
    -7.231E-09   -7.202E-09   -7.165E-09   -7.119E-09   -7.065E-09   -7.004E-09   -6.934E-09   -6.857E-09   -6.773E-09   -6.682E-09
    -6.585E-09   -6.481E-09   -6.371E-09   -6.254E-09   -6.133E-09   -6.006E-09   -5.874E-09   -5.737E-09   -5.597E-09   -5.453E-09
    -5.305E-09   -5.154E-09   -5.001E-09   -4.845E-09   -4.688E-09   -4.529E-09   -4.369E-09   -4.209E-09   -4.048E-09   -3.887E-09
    -3.726E-09   -3.566E-09   -3.408E-09   -3.251E-09   -3.096E-09   -2.943E-09   -2.793E-09   -2.646E-09   -2.502E-09   -2.362E-09
    -2.227E-09   -2.096E-09   -1.970E-09   -1.848E-09   -1.731E-09   -1.619E-09   -1.511E-09   -1.407E-09   -1.307E-09   -1.211E-09
    -1.120E-09   -1.032E-09   -9.475E-10   -8.669E-10   -7.899E-10   -7.163E-10   -6.460E-10   -5.790E-10   -5.150E-10   -4.541E-10
    -3.961E-10   -3.408E-10   -2.883E-10   -2.383E-10   -1.908E-10   -1.457E-10   -1.029E-10   -6.228E-11   -2.372E-11    1.289E-11
     4.762E-11    8.054E-11    1.117E-10    1.413E-10    1.692E-10    1.956E-10    2.206E-10    2.442E-10    2.665E-10    2.876E-10
     3.075E-10    3.264E-10    3.442E-10    3.611E-10    3.772E-10    3.924E-10    4.069E-10    4.208E-10    4.341E-10    4.469E-10
     4.593E-10    4.713E-10    4.831E-10    4.946E-10    5.060E-10    5.173E-10    5.286E-10    5.400E-10    5.515E-10    5.631E-10
     5.749E-10    5.867E-10    5.988E-10    6.110E-10    6.234E-10    6.360E-10    6.487E-10    6.617E-10    6.749E-10    6.884E-10
     7.021E-10    7.160E-10    7.303E-10    7.448E-10    7.596E-10    7.747E-10    7.901E-10    8.058E-10    8.219E-10    8.384E-10
     8.552E-10    8.723E-10    8.899E-10    9.079E-10    9.262E-10    9.450E-10    9.642E-10    9.838E-10    1.004E-09    1.024E-09
     1.045E-09    1.066E-09    1.087E-09    1.108E-09    1.130E-09    1.152E-09    1.175E-09    1.197E-09    1.220E-09    1.242E-09
     1.265E-09    1.288E-09    1.312E-09    1.335E-09    1.358E-09    1.382E-09    1.405E-09    1.429E-09    1.452E-09    1.475E-09
     1.499E-09    1.522E-09    1.545E-09
 Ala      Conc. = 1.74E-10
   6.78198E-09  6.77146E-09  6.75635E-09  6.73771E-09  6.71517E-09  6.68860E-09  6.65590E-09  6.61650E-09  6.58058E-09  6.54540E-09
   6.50116E-09  6.46226E-09  6.43114E-09  6.39785E-09  6.36664E-09  6.33943E-09  6.31426E-09  6.29033E-09  6.26722E-09  6.24474E-09
   6.22275E-09  6.20119E-09  6.18002E-09  6.15920E-09  6.13871E-09  6.11857E-09  6.09876E-09  6.07926E-09  6.06010E-09  6.04127E-09
   6.02280E-09  6.00465E-09  5.98687E-09  5.96943E-09  5.95236E-09  5.93566E-09  5.91934E-09  5.90341E-09  5.88786E-09  5.87270E-09
   5.85797E-09  5.84364E-09  5.82974E-09  5.81627E-09  5.80325E-09  5.79065E-09  5.77853E-09  5.76689E-09  5.75569E-09  5.74500E-09
   5.73480E-09  5.72508E-09  5.71589E-09  5.70720E-09  5.69911E-09  5.69148E-09  5.68438E-09  5.67785E-09  5.67183E-09  5.66628E-09
   5.66117E-09  5.65648E-09  5.65216E-09  5.64819E-09  5.64453E-09  5.64116E-09  5.63803E-09  5.63512E-09  5.63239E-09  5.62982E-09
   5.62736E-09  5.62501E-09  5.62270E-09  5.62043E-09  5.61815E-09  5.61585E-09  5.61349E-09  5.61103E-09  5.60846E-09  5.60575E-09
   5.60285E-09  5.59978E-09  5.59645E-09  5.59293E-09  5.58911E-09  5.58506E-09  5.58074E-09  5.57619E-09  5.57141E-09  5.56645E-09
   5.56138E-09  5.55624E-09  5.55120E-09  5.54644E-09  5.54228E-09  5.53922E-09  5.53822E-09  5.54113E-09  5.55232E-09  5.58560E-09
   5.66316E-09  5.74108E-09  5.81550E-09  5.91897E-09  6.02448E-09  6.10704E-09  6.15134E-09  6.14689E-09  6.08663E-09  5.97241E-09
   5.82309E-09  5.67939E-09  5.56758E-09  5.41746E-09  5.27609E-09  5.20680E-09  5.15876E-09  5.11824E-09  5.08068E-09  5.04407E-09
   5.00739E-09  4.97001E-09  4.93152E-09  4.89164E-09  4.85014E-09  4.80683E-09  4.76157E-09  4.71422E-09  4.66465E-09  4.61275E-09
   4.55839E-09  4.50148E-09  4.44191E-09  4.37957E-09  4.31439E-09  4.24624E-09  4.17504E-09  4.10069E-09  4.02311E-09  3.94218E-09
   3.85779E-09  3.76988E-09  3.67831E-09  3.58298E-09  3.48377E-09  3.38057E-09  3.27327E-09  3.16176E-09  3.04593E-09  2.92566E-09
   2.80086E-09  2.67140E-09  2.53719E-09  2.39811E-09  2.25407E-09  2.10496E-09  1.95068E-09  1.79114E-09  1.62626E-09  1.45595E-09
   1.28018E-09  1.09892E-09  9.12276E-10  7.20414E-10  5.24026E-10  3.25144E-10  1.32981E-10 -2.95123E-11 -1.85806E-10 -3.50055E-10
  -5.26726E-10 -7.18211E-10 -9.29043E-10 -1.16563E-09 -1.43489E-09 -1.74147E-09 -2.08300E-09 -2.44265E-09 -2.78116E-09 -3.05783E-09
  -3.31845E-09 -3.57235E-09 -3.82136E-09 -4.06568E-09 -4.30500E-09 -4.53888E-09 -4.76672E-09 -4.98791E-09 -5.20179E-09 -5.40770E-09
  -5.60498E-09 -5.79296E-09 -5.97095E-09 -6.13825E-09 -6.29419E-09 -6.43808E-09 -6.56944E-09 -6.68838E-09 -6.79516E-09 -6.89003E-09
  -6.97324E-09 -7.04504E-09 -7.10568E-09 -7.15541E-09 -7.19448E-09 -7.22313E-09 -7.24162E-09 -7.25020E-09 -7.24912E-09 -7.23862E-09
  -7.21896E-09 -7.19038E-09 -7.15314E-09 -7.10748E-09 -7.05365E-09 -6.99190E-09 -6.92249E-09 -6.84565E-09 -6.76165E-09 -6.67072E-09
  -6.57312E-09 -6.46910E-09 -6.35890E-09 -6.24278E-09 -6.12102E-09 -5.99401E-09 -5.86210E-09 -5.72568E-09 -5.58513E-09 -5.44084E-09
  -5.29317E-09 -5.14251E-09 -4.98924E-09 -4.83373E-09 -4.67636E-09 -4.51752E-09 -4.35758E-09 -4.19693E-09 -4.03591E-09 -3.87496E-09
  -3.71442E-09 -3.55467E-09 -3.39610E-09 -3.23909E-09 -3.08400E-09 -2.93122E-09 -2.78113E-09 -2.63411E-09 -2.49054E-09 -2.35081E-09
  -2.21525E-09 -2.08430E-09 -1.95810E-09 -1.83656E-09 -1.71960E-09 -1.60710E-09 -1.49896E-09 -1.39507E-09 -1.29534E-09 -1.19965E-09
  -1.10791E-09 -1.01999E-09 -9.35826E-10 -8.55281E-10 -7.78271E-10 -7.04684E-10 -6.34394E-10 -5.67344E-10 -5.03404E-10 -4.42462E-10
  -3.84417E-10 -3.29182E-10 -2.76629E-10 -2.26665E-10 -1.79203E-10 -1.34098E-10 -9.12911E-11 -5.06515E-11 -1.20876E-11  2.45203E-11
   5.92462E-11  9.21649E-11  1.23351E-10  1.52879E-10  1.80814E-10  2.07236E-10  2.32212E-10  2.55819E-10  2.78129E-10  2.99209E-10
   3.19137E-10  3.37984E-10  3.55822E-10  3.72725E-10  3.88762E-10  4.04009E-10  4.18536E-10  4.32417E-10  4.45720E-10  4.58528E-10
   4.70900E-10  4.82918E-10  4.94653E-10  5.06170E-10  5.17549E-10  5.28861E-10  5.40176E-10  5.51567E-10  5.63064E-10  5.74679E-10
   5.86425E-10  5.98313E-10  6.10355E-10  6.22562E-10  6.34946E-10  6.47519E-10  6.60293E-10  6.73278E-10  6.86487E-10  6.99931E-10
   7.13622E-10  7.27571E-10  7.41791E-10  7.56292E-10  7.71087E-10  7.86187E-10  8.01604E-10  8.17348E-10  8.33433E-10  8.49870E-10
   8.66669E-10  8.83843E-10  9.01403E-10  9.19361E-10  9.37729E-10  9.56515E-10  9.75707E-10  9.95289E-10  1.01524E-09  1.03554E-09
   1.05618E-09  1.07713E-09  1.09837E-09  1.11990E-09  1.14168E-09  1.16370E-09  1.18594E-09  1.20839E-09  1.23102E-09  1.25382E-09
   1.27676E-09  1.29983E-09  1.32301E-09  1.34629E-09  1.36963E-09  1.39303E-09  1.41647E-09  1.43992E-09  1.46338E-09  1.48681E-09
   1.51021E-09  1.53355E-09  1.55681E-09
 Asp      Conc. = 7.89E-10
   7.55675E-09  7.40936E-09  7.27040E-09  7.12018E-09  6.97929E-09  6.83001E-09  6.70641E-09  6.61470E-09  6.56211E-09  6.52403E-09
   6.49303E-09  6.46617E-09  6.44203E-09  6.41953E-09  6.39758E-09  6.37613E-09  6.35523E-09  6.33490E-09  6.31508E-09  6.29576E-09
   6.27696E-09  6.25868E-09  6.24097E-09  6.22386E-09  6.20739E-09  6.19170E-09  6.17683E-09  6.16291E-09  6.15012E-09  6.13868E-09
   6.12891E-09  6.12120E-09  6.11624E-09  6.11510E-09  6.11970E-09  6.13413E-09  6.16776E-09  6.20904E-09  6.26167E-09  6.30634E-09
   6.33680E-09  6.35615E-09  6.38002E-09  6.42800E-09  6.50526E-09  6.62618E-09  6.73483E-09  6.82461E-09  6.95095E-09  7.07630E-09
   7.17079E-09  7.18064E-09  7.08560E-09  6.88942E-09  6.64711E-09  6.44354E-09  6.31107E-09  6.25497E-09  6.15828E-09  6.03905E-09
   5.98031E-09  5.94542E-09  5.91739E-09  5.90686E-09  5.88860E-09  5.84278E-09  5.78428E-09  5.74955E-09  5.72637E-09  5.70938E-09
   5.69618E-09  5.68550E-09  5.67656E-09  5.66887E-09  5.66207E-09  5.65594E-09  5.65028E-09  5.64494E-09  5.63980E-09  5.63478E-09
   5.62976E-09  5.62471E-09  5.61950E-09  5.61416E-09  5.60854E-09  5.60267E-09  5.59648E-09  5.58995E-09  5.58305E-09  5.57575E-09
   5.56803E-09  5.55985E-09  5.55120E-09  5.54205E-09  5.53239E-09  5.52216E-09  5.51138E-09  5.50001E-09  5.48803E-09  5.47544E-09
   5.46217E-09  5.44825E-09  5.43363E-09  5.41831E-09  5.40225E-09  5.38543E-09  5.36787E-09  5.34949E-09  5.33032E-09  5.31031E-09
   5.28947E-09  5.26776E-09  5.24513E-09  5.22157E-09  5.19698E-09  5.17124E-09  5.14428E-09  5.11600E-09  5.08631E-09  5.05511E-09
   5.02232E-09  4.98783E-09  4.95156E-09  4.91342E-09  4.87331E-09  4.83115E-09  4.78683E-09  4.74027E-09  4.69138E-09  4.64007E-09
   4.58623E-09  4.52978E-09  4.47064E-09  4.40869E-09  4.34386E-09  4.27605E-09  4.20518E-09  4.13115E-09  4.05388E-09  3.97327E-09
   3.88919E-09  3.80160E-09  3.71037E-09  3.61539E-09  3.51656E-09  3.41375E-09  3.30688E-09  3.19583E-09  3.08050E-09  2.96079E-09
   2.83661E-09  2.70784E-09  2.57442E-09  2.43625E-09  2.29325E-09  2.14536E-09  1.99253E-09  1.83473E-09  1.67199E-09  1.50434E-09
   1.33198E-09  1.15522E-09  9.74764E-10  7.91910E-10  6.09794E-10  4.37064E-10  3.09116E-10  3.41293E-10  4.31242E-10  5.08629E-10
   5.48744E-10  5.38574E-10  4.55883E-10  2.69624E-10 -5.41266E-11 -5.40417E-10 -1.18428E-09 -1.91843E-09 -2.57426E-09 -2.94535E-09
  -3.23982E-09 -3.51039E-09 -3.76906E-09 -4.01954E-09 -4.26306E-09 -4.49992E-09 -4.72996E-09 -4.95282E-09 -5.16798E-09 -5.37491E-09
  -5.57300E-09 -5.76164E-09 -5.94017E-09 -6.10790E-09 -6.26421E-09 -6.40842E-09 -6.54003E-09 -6.65920E-09 -6.76616E-09 -6.86120E-09
  -6.94455E-09 -7.01646E-09 -7.07720E-09 -7.12702E-09 -7.16617E-09 -7.19489E-09 -7.21344E-09 -7.22207E-09 -7.22103E-09 -7.21057E-09
  -7.19094E-09 -7.16239E-09 -7.12517E-09 -7.07953E-09 -7.02572E-09 -6.96399E-09 -6.89459E-09 -6.81776E-09 -6.73377E-09 -6.64285E-09
  -6.54525E-09 -6.44123E-09 -6.33104E-09 -6.21492E-09 -6.09317E-09 -5.96615E-09 -5.83424E-09 -5.69782E-09 -5.55727E-09 -5.41298E-09
