 LCModel (Version 6.3-1R) Copyright: S.W. Provencher.          Ref.: Magn. Reson. Med. 30:672-679 (1993).                
 onepulse 26x28_ftSpec_smooth_lcm
 26 lines in following concentration table = NCONC+1
    Conc.  %SD /Cr+PCr  Metabolite                                         
 3.91E-10  87%   0.579 Ala                                                 
 2.44E-09  46%   3.612 Asp                                                 
 6.75E-10  70%   1.000 Cr                                                  
 1.33E-09  56%   1.976 GABA                                                
 1.88E-09  43%   2.787 Glc                                                 
 3.03E-10 290%   0.450 Gln                                                 
    0.000 999%   0.000 Glu                                                 
    0.000 999%   0.000 Glyc                                                
 1.20E-10 275%   0.177 GPC                                                 
 4.22E-11 999% 6.3E-02 GSH                                                 
 9.85E-10  63%   1.460 Ins                                                 
    0.000 999%   0.000 Lac                                                 
    0.000 999%   0.000 NAAG                                                
 8.17E-10  38%   1.211 NAA                                                 
    0.000 999%   0.000 PCh                                                 
    0.000 999%   0.000 PCr                                                 
 1.13E-09 174%   1.674 PE                                                  
    0.000 999%   0.000 Scyllo                                              
    0.000 999%   0.000 Ser                                                 
    0.000 999%   0.000 Tau                                                 
 1.20E-10 275%   0.177 GPC+PCh                                             
 8.17E-10  38%   1.211 NAA+NAAG                                            
 9.85E-10  63%   1.460 Ins+Glyc                                            
 6.75E-10  70%   1.000 Cr+PCr                                              
 3.03E-10 290%   0.450 Glu+Gln                                             
   6 lines in following misc. output table
  FWHM = 0.101 ppm    S/N =   3                                            
  Data shift = 0.402 ppm                                                   
  Ph: 111 deg      23.5 deg/ppm                                            
  alphaB,S = 1.4E+00,   4.6E+01                                            
    9 spline knots.   Ns = 5(1)                                            
  (12) 3 infls.   (11) 3 extrs.                                            
  363 points on ppm-axis = NY
      4.250000     4.238821     4.227641     4.216462     4.205282     4.194103     4.182923     4.171744     4.160564     4.149385
      4.138206     4.127026     4.115847     4.104667     4.093488     4.082308     4.071129     4.059949     4.048770     4.037591
      4.026411     4.015232     4.004052     3.992873     3.981693     3.970514     3.959334     3.948155     3.936975     3.925796
      3.914617     3.903437     3.892258     3.881078     3.869899     3.858719     3.847540     3.836360     3.825181     3.814002
      3.802822     3.791643     3.780463     3.769284     3.758104     3.746925     3.735745     3.724566     3.713387     3.702207
      3.691028     3.679848     3.668669     3.657489     3.646310     3.635130     3.623951     3.612772     3.601592     3.590413
      3.579233     3.568054     3.556874     3.545695     3.534515     3.523336     3.512156     3.500977     3.489798     3.478618
      3.467439     3.456259     3.445080     3.433900     3.422721     3.411541     3.400362     3.389183     3.378003     3.366824
      3.355644     3.344465     3.333285     3.322106     3.310926     3.299747     3.288568     3.277388     3.266209     3.255029
      3.243850     3.232670     3.221491     3.210311     3.199132     3.187953     3.176773     3.165594     3.154414     3.143235
      3.132055     3.120876     3.109696     3.098517     3.087337     3.076158     3.064979     3.053799     3.042620     3.031440
      3.020261     3.009081     2.997902     2.986722     2.975543     2.964364     2.953184     2.942005     2.930825     2.919646
      2.908466     2.897287     2.886107     2.874928     2.863749     2.852569     2.841390     2.830210     2.819031     2.807851
      2.796672     2.785492     2.774313     2.763134     2.751954     2.740775     2.729595     2.718416     2.707236     2.696057
      2.684877     2.673698     2.662519     2.651339     2.640160     2.628980     2.617801     2.606621     2.595442     2.584262
      2.573083     2.561903     2.550724     2.539545     2.528365     2.517186     2.506006     2.494827     2.483647     2.472468
      2.461288     2.450109     2.438930     2.427750     2.416571     2.405391     2.394212     2.383032     2.371853     2.360673
      2.349494     2.338315     2.327135     2.315956     2.304776     2.293597     2.282417     2.271238     2.260058     2.248879
      2.237700     2.226520     2.215341     2.204161     2.192982     2.181802     2.170623     2.159443     2.148264     2.137084
      2.125905     2.114726     2.103546     2.092367     2.081187     2.070008     2.058828     2.047649     2.036469     2.025290
      2.014111     2.002931     1.991752     1.980572     1.969393     1.958213     1.947034     1.935854     1.924675     1.913496
      1.902316     1.891137     1.879957     1.868778     1.857598     1.846419     1.835239     1.824060     1.812881     1.801701
      1.790522     1.779342     1.768163     1.756983     1.745804     1.734624     1.723445     1.712265     1.701086     1.689907
      1.678727     1.667548     1.656368     1.645189     1.634009     1.622830     1.611650     1.600471     1.589292     1.578112
      1.566933     1.555753     1.544574     1.533394     1.522215     1.511035     1.499856     1.488677     1.477497     1.466318
      1.455138     1.443959     1.432779     1.421600     1.410420     1.399241     1.388062     1.376882     1.365703     1.354523
      1.343344     1.332164     1.320985     1.309805     1.298626     1.287446     1.276267     1.265088     1.253908     1.242729
      1.231549     1.220370     1.209190     1.198011     1.186831     1.175652     1.164473     1.153293     1.142114     1.130934
      1.119755     1.108575     1.097396     1.086216     1.075037     1.063858     1.052678     1.041499     1.030319     1.019140
      1.007960     0.996781     0.985601     0.974422     0.963243     0.952063     0.940884     0.929704     0.918525     0.907345
      0.896166     0.884986     0.873807     0.862628     0.851448     0.840269     0.829089     0.817910     0.806730     0.795551
      0.784371     0.773192     0.762012     0.750833     0.739654     0.728474     0.717295     0.706115     0.694936     0.683756
      0.672577     0.661397     0.650218     0.639039     0.627859     0.616680     0.605500     0.594321     0.583141     0.571962
      0.560782     0.549603     0.538424     0.527244     0.516065     0.504885     0.493706     0.482526     0.471347     0.460167
      0.448988     0.437809     0.426629     0.415450     0.404270     0.393091     0.381911     0.370732     0.359552     0.348373
      0.337193     0.326014     0.314835     0.303655     0.292476     0.281296     0.270117     0.258937     0.247758     0.236578
      0.225399     0.214220     0.203040
 NY phased data points follow
   1.15585E-08  1.41062E-08  1.10521E-08  1.37124E-08  1.02053E-08  1.30317E-08  1.03817E-08  1.31126E-08  1.08086E-08  1.37869E-08
   1.14864E-08  1.42803E-08  1.09386E-08  1.38727E-08  1.08858E-08  1.35175E-08  1.05347E-08  1.25665E-08  9.70528E-09  1.21624E-08
   1.01275E-08  1.33301E-08  1.02912E-08  1.23747E-08  9.63136E-09  1.18172E-08  9.83678E-09  1.31754E-08  1.20480E-08  1.42043E-08
   1.14775E-08  1.29033E-08  1.03574E-08  1.18542E-08  9.34480E-09  1.10626E-08  9.19862E-09  1.07009E-08  8.33569E-09  1.02290E-08
   8.09227E-09  1.01625E-08  7.13829E-09  9.00330E-09  7.07232E-09  8.57654E-09  6.92572E-09  8.74311E-09  6.87259E-09  8.46384E-09
   6.36774E-09  7.48371E-09  5.92933E-09  7.51642E-09  6.06651E-09  7.80371E-09  6.17698E-09  7.89571E-09  7.40129E-09  1.09341E-08
   1.00537E-08  1.11171E-08  9.02832E-09  9.78920E-09  7.79308E-09  8.88138E-09  6.72011E-09  7.60486E-09  5.77682E-09  7.18413E-09
   5.61478E-09  6.56002E-09  4.74625E-09  5.53644E-09  6.62030E-09  1.05800E-08  1.16442E-08  1.43623E-08  1.22979E-08  1.28016E-08
   1.11726E-08  1.17510E-08  1.03215E-08  1.11607E-08  1.00783E-08  1.08464E-08  9.66973E-09  1.03005E-08  8.93294E-09  9.43356E-09
   8.38855E-09  9.06377E-09  7.48655E-09  8.66058E-09  7.49139E-09  7.69318E-09  7.05923E-09  8.25698E-09  7.48937E-09  8.39099E-09
   7.54877E-09  8.14646E-09  7.41091E-09  8.24150E-09  6.35893E-09  7.19277E-09  5.70654E-09  5.83621E-09  5.42205E-09  6.69758E-09
   5.89856E-09  6.44510E-09  5.67205E-09  6.26172E-09  5.41457E-09  6.39673E-09  5.41628E-09  6.04860E-09  5.28760E-09  5.18218E-09
   3.91855E-09  4.42828E-09  3.26592E-09  3.96031E-09  3.28001E-09  3.73914E-09  3.09007E-09  3.25826E-09  2.75729E-09  2.96195E-09
   3.17501E-09  3.44825E-09  2.10874E-09  2.51833E-09  2.20481E-09  3.35861E-09  3.53779E-09  4.85470E-09  4.46324E-09  4.57712E-09
   4.20632E-09  5.53224E-09  5.72123E-09  6.53103E-09  6.35285E-09  6.89592E-09  6.41916E-09  6.62061E-09  6.81669E-09  6.66905E-09
   6.65240E-09  7.09716E-09  7.39536E-09  7.05689E-09  7.38365E-09  7.73363E-09  7.74794E-09  8.35640E-09  8.34158E-09  8.90242E-09
   8.60374E-09  8.31104E-09  9.22265E-09  9.48495E-09  8.81369E-09  1.01158E-08  1.36189E-08  1.75628E-08  1.94703E-08  2.00969E-08
   1.93136E-08  1.93075E-08  1.84594E-08  1.85696E-08  1.79284E-08  1.73384E-08  1.68177E-08  1.65873E-08  1.59497E-08  1.56914E-08
   1.47670E-08  1.44545E-08  1.34242E-08  1.31212E-08  1.18912E-08  1.11646E-08  1.01807E-08  8.66708E-09  7.53089E-09  6.31884E-09
   4.38382E-09  3.08246E-09  1.39603E-09 -1.20590E-09 -3.09321E-09 -5.08964E-09 -6.91133E-09 -8.66365E-09 -1.01493E-08 -1.12078E-08
  -1.19710E-08 -1.19853E-08 -1.23349E-08 -1.15649E-08 -1.05475E-08 -9.84155E-09 -8.34914E-09 -7.28051E-09 -6.04113E-09 -4.76747E-09
  -4.11051E-09 -3.20283E-09 -2.65413E-09 -2.24802E-09 -1.34842E-09 -1.58908E-09 -9.88285E-10 -1.07000E-09 -1.03960E-09 -1.33455E-09
  -1.12249E-09 -1.42572E-09 -1.28095E-09 -1.83048E-09 -1.92252E-09 -1.99572E-09 -1.97248E-09 -1.50021E-09 -3.34624E-10 -5.85424E-10
  -9.39257E-11 -6.38872E-10 -1.22716E-09 -1.92237E-09 -1.48627E-09 -1.82729E-09 -1.16912E-09 -8.75473E-10 -4.06959E-10 -6.94607E-10
  -6.33555E-10 -1.62987E-09 -1.10301E-09 -1.78365E-09 -1.18112E-09 -1.39992E-09 -9.35450E-10 -1.04833E-09 -2.77427E-10 -4.75155E-10
  -8.32067E-11 -2.41712E-10 -6.37629E-11 -9.07947E-10 -1.98614E-10 -1.16733E-09 -5.65500E-10 -1.09758E-09 -4.00899E-10 -1.23738E-09
  -4.56921E-10 -8.13688E-10 -6.17145E-10 -6.31455E-10  1.30239E-10 -9.34726E-10  2.44040E-10 -4.88631E-10  1.51835E-10 -3.35714E-10
   1.44922E-10  1.76988E-10  4.38661E-10 -1.67599E-10  6.00920E-10 -2.51832E-10  3.61304E-10 -3.89793E-10  4.20576E-10 -8.81084E-10
  -4.12898E-10 -7.87734E-10 -3.03176E-10 -1.08558E-09 -4.58579E-10 -9.34388E-10 -7.04031E-10 -1.13511E-09 -9.27878E-10 -1.01191E-09
  -7.44034E-10 -1.12218E-09 -5.07561E-10 -1.23642E-09 -8.94740E-10 -1.36757E-09 -7.30040E-10 -1.43540E-09 -7.44797E-10 -8.38247E-10
  -5.54395E-10 -1.42133E-09 -2.27181E-10 -8.07434E-10 -7.84312E-10 -1.26061E-09 -2.75448E-10 -1.25112E-09 -6.28204E-10 -1.19312E-09
  -5.82010E-10 -1.62666E-09 -9.05656E-10 -1.24875E-09 -1.04775E-09 -1.46207E-09 -6.61100E-10 -1.39241E-09 -6.56419E-10 -1.95448E-09
  -5.55846E-10 -1.66922E-09 -8.08877E-10 -1.80980E-09 -8.87491E-10 -1.89979E-09 -8.94230E-10 -1.59155E-09 -1.19608E-09 -1.89455E-09
  -1.36251E-09 -1.94804E-09 -9.25931E-10 -1.73696E-09 -1.21438E-09 -2.08697E-09 -1.39025E-09 -2.21234E-09 -1.42080E-09 -1.91225E-09
  -1.52491E-09 -2.13835E-09 -1.77436E-09 -2.02188E-09 -1.26927E-09 -2.28599E-09 -1.44450E-09 -1.79948E-09 -1.43758E-09 -2.18646E-09
  -1.49992E-09 -2.28552E-09 -1.55773E-09 -2.23116E-09 -1.59002E-09 -2.86352E-09 -1.71521E-09 -2.75664E-09 -1.90162E-09 -2.41717E-09
  -1.69989E-09 -2.81067E-09 -1.90659E-09
 NY points of the fit to the data follow
   1.35054E-08  1.23182E-08  1.14484E-08  1.11206E-08  1.14738E-08  1.15997E-08  1.14990E-08  1.17747E-08  1.21604E-08  1.24808E-08
   1.25862E-08  1.27018E-08  1.29508E-08  1.32182E-08  1.32024E-08  1.28135E-08  1.22277E-08  1.13167E-08  1.04487E-08  1.02379E-08
   1.05502E-08  1.10137E-08  1.13033E-08  1.16754E-08  1.17063E-08  1.17042E-08  1.17699E-08  1.17752E-08  1.17968E-08  1.18396E-08
   1.17341E-08  1.20362E-08  1.21580E-08  1.14866E-08  1.04632E-08  1.00548E-08  9.75052E-09  9.52600E-09  9.14323E-09  8.51229E-09
   7.73582E-09  6.98079E-09  6.53476E-09  6.94725E-09  7.96340E-09  8.28646E-09  8.08134E-09  8.06997E-09  8.44049E-09  8.80795E-09
   9.02714E-09  8.97389E-09  8.56674E-09  7.94894E-09  7.62225E-09  7.57555E-09  8.02725E-09  8.31922E-09  8.29275E-09  8.17842E-09
   8.28862E-09  8.54572E-09  8.84151E-09  9.05270E-09  9.31902E-09  9.35335E-09  9.15147E-09  8.94534E-09  8.80156E-09  8.70393E-09
   8.57465E-09  8.37138E-09  8.19106E-09  8.18569E-09  8.24859E-09  8.41117E-09  9.21696E-09  1.07552E-08  1.16228E-08  1.18013E-08
   1.15349E-08  1.10692E-08  1.07963E-08  1.07232E-08  1.04510E-08  9.93181E-09  9.11768E-09  7.93228E-09  6.96563E-09  6.95883E-09
   7.00831E-09  7.05574E-09  7.02629E-09  6.86352E-09  6.78270E-09  6.77812E-09  6.65998E-09  6.60595E-09  6.69974E-09  6.87529E-09
   7.11986E-09  7.23593E-09  7.32835E-09  7.49789E-09  7.60571E-09  7.60671E-09  7.52126E-09  7.37414E-09  7.17057E-09  6.91006E-09
   6.63104E-09  6.43353E-09  6.30728E-09  6.06761E-09  5.87081E-09  5.82413E-09  5.80587E-09  5.79365E-09  5.78183E-09  5.76868E-09
   5.75341E-09  5.73598E-09  5.71628E-09  5.69440E-09  5.67040E-09  5.64437E-09  5.61640E-09  5.58657E-09  5.55500E-09  5.52174E-09
   5.48687E-09  5.45046E-09  5.41258E-09  5.37330E-09  5.33268E-09  5.29079E-09  5.24766E-09  5.20335E-09  5.15794E-09  5.11147E-09
   5.06402E-09  5.01564E-09  4.96637E-09  4.91633E-09  4.86552E-09  4.81406E-09  4.76204E-09  4.70958E-09  4.65675E-09  4.60374E-09
   4.55073E-09  4.49787E-09  4.44549E-09  4.39395E-09  4.34367E-09  4.29531E-09  4.24978E-09  4.20832E-09  4.17281E-09  4.14623E-09
   4.13324E-09  4.14209E-09  4.18803E-09  4.30299E-09  4.56515E-09  5.22363E-09  7.48999E-09  1.33991E-08  1.85885E-08  2.11912E-08
   2.16168E-08  2.10941E-08  2.05574E-08  2.03543E-08  2.01425E-08  1.90916E-08  1.61599E-08  1.10983E-08  6.02814E-09  4.49279E-09
   3.83620E-09  3.45390E-09  3.19094E-09  2.99057E-09  2.82707E-09  2.68714E-09  2.56315E-09  2.45045E-09  2.34604E-09  2.24793E-09
   2.15468E-09  2.06533E-09  1.97911E-09  1.89552E-09  1.81412E-09  1.73458E-09  1.65669E-09  1.58024E-09  1.50508E-09  1.43109E-09
   1.35817E-09  1.28625E-09  1.21526E-09  1.14516E-09  1.07591E-09  1.00747E-09  9.39830E-10  8.72977E-10  8.06874E-10  7.41519E-10
   6.76909E-10  6.13047E-10  5.49922E-10  4.87541E-10  4.25885E-10  3.64976E-10  3.04823E-10  2.45419E-10  1.86761E-10  1.28876E-10
   7.17673E-11  1.54378E-11 -4.01069E-11 -9.48627E-11 -1.48825E-10 -2.01954E-10 -2.54279E-10 -3.05779E-10 -3.56430E-10 -4.06238E-10
  -4.55193E-10 -5.03284E-10 -5.50500E-10 -5.96842E-10 -6.42293E-10 -6.86844E-10 -7.30493E-10 -7.73233E-10 -8.15053E-10 -8.55938E-10
  -8.95895E-10 -9.34908E-10 -9.72971E-10 -1.01009E-09 -1.04628E-09 -1.08154E-09 -1.11590E-09 -1.14935E-09 -1.18192E-09 -1.21361E-09
  -1.24444E-09 -1.27441E-09 -1.30353E-09 -1.33182E-09 -1.35928E-09 -1.38594E-09 -1.41179E-09 -1.43684E-09 -1.46112E-09 -1.48463E-09
  -1.50737E-09 -1.52936E-09 -1.55061E-09 -1.57113E-09 -1.59093E-09 -1.61001E-09 -1.62840E-09 -1.64609E-09 -1.66309E-09 -1.67942E-09
  -1.69508E-09 -1.71009E-09 -1.72445E-09 -1.73816E-09 -1.75125E-09 -1.76371E-09 -1.77556E-09 -1.78680E-09 -1.79744E-09 -1.80749E-09
  -1.81695E-09 -1.82583E-09 -1.83415E-09 -1.84189E-09 -1.84908E-09 -1.85573E-09 -1.86182E-09 -1.86737E-09 -1.87240E-09 -1.87689E-09
  -1.88086E-09 -1.88431E-09 -1.88725E-09 -1.88968E-09 -1.89160E-09 -1.89303E-09 -1.89396E-09 -1.89440E-09 -1.89434E-09 -1.89380E-09
  -1.89277E-09 -1.89127E-09 -1.88928E-09 -1.88682E-09 -1.88386E-09 -1.88041E-09 -1.87645E-09 -1.87199E-09 -1.86700E-09 -1.86148E-09
  -1.85544E-09 -1.84885E-09 -1.84171E-09 -1.83402E-09 -1.82576E-09 -1.81694E-09 -1.80754E-09 -1.79755E-09 -1.78698E-09 -1.77582E-09
  -1.76406E-09 -1.75169E-09 -1.73871E-09 -1.72511E-09 -1.71089E-09 -1.69605E-09 -1.68056E-09 -1.66445E-09 -1.64769E-09 -1.63028E-09
  -1.61222E-09 -1.59351E-09 -1.57414E-09 -1.55410E-09 -1.53340E-09 -1.51202E-09 -1.48997E-09 -1.46725E-09 -1.44384E-09 -1.41974E-09
  -1.39497E-09 -1.36950E-09 -1.34333E-09 -1.31648E-09 -1.28893E-09 -1.26068E-09 -1.23173E-09 -1.20207E-09 -1.17172E-09 -1.14066E-09
  -1.10889E-09 -1.07641E-09 -1.04323E-09 -1.00934E-09 -9.74746E-10 -9.39439E-10 -9.03424E-10 -8.66700E-10 -8.29269E-10 -7.91130E-10
  -7.52282E-10 -7.12729E-10 -6.72469E-10
 NY background values follow
     5.606E-09    5.677E-09    5.748E-09    5.817E-09    5.885E-09    5.951E-09    6.017E-09    6.081E-09    6.143E-09    6.205E-09
     6.265E-09    6.323E-09    6.381E-09    6.437E-09    6.492E-09    6.546E-09    6.598E-09    6.649E-09    6.699E-09    6.747E-09
     6.794E-09    6.840E-09    6.884E-09    6.928E-09    6.970E-09    7.011E-09    7.050E-09    7.088E-09    7.125E-09    7.161E-09
     7.195E-09    7.228E-09    7.260E-09    7.291E-09    7.320E-09    7.348E-09    7.375E-09    7.401E-09    7.425E-09    7.448E-09
     7.470E-09    7.491E-09    7.511E-09    7.529E-09    7.546E-09    7.562E-09    7.577E-09    7.590E-09    7.603E-09    7.614E-09
     7.624E-09    7.632E-09    7.640E-09    7.647E-09    7.652E-09    7.656E-09    7.659E-09    7.661E-09    7.662E-09    7.661E-09
     7.660E-09    7.657E-09    7.654E-09    7.649E-09    7.643E-09    7.636E-09    7.628E-09    7.619E-09    7.608E-09    7.597E-09
     7.585E-09    7.571E-09    7.557E-09    7.541E-09    7.525E-09    7.507E-09    7.488E-09    7.468E-09    7.448E-09    7.426E-09
     7.403E-09    7.379E-09    7.354E-09    7.328E-09    7.301E-09    7.273E-09    7.244E-09    7.214E-09    7.183E-09    7.152E-09
     7.119E-09    7.085E-09    7.050E-09    7.014E-09    6.977E-09    6.940E-09    6.901E-09    6.861E-09    6.821E-09    6.780E-09
     6.737E-09    6.694E-09    6.650E-09    6.604E-09    6.558E-09    6.511E-09    6.464E-09    6.415E-09    6.365E-09    6.315E-09
     6.263E-09    6.211E-09    6.158E-09    6.104E-09    6.049E-09    5.994E-09    5.937E-09    5.880E-09    5.822E-09    5.763E-09
     5.704E-09    5.643E-09    5.582E-09    5.520E-09    5.457E-09    5.393E-09    5.329E-09    5.264E-09    5.198E-09    5.132E-09
     5.065E-09    4.997E-09    4.929E-09    4.860E-09    4.790E-09    4.720E-09    4.649E-09    4.578E-09    4.506E-09    4.434E-09
     4.361E-09    4.287E-09    4.213E-09    4.139E-09    4.064E-09    3.989E-09    3.913E-09    3.837E-09    3.761E-09    3.684E-09
     3.607E-09    3.530E-09    3.452E-09    3.374E-09    3.296E-09    3.217E-09    3.138E-09    3.059E-09    2.980E-09    2.900E-09
     2.821E-09    2.741E-09    2.661E-09    2.581E-09    2.501E-09    2.421E-09    2.340E-09    2.260E-09    2.180E-09    2.099E-09
     2.019E-09    1.938E-09    1.858E-09    1.778E-09    1.698E-09    1.617E-09    1.537E-09    1.457E-09    1.378E-09    1.298E-09
     1.219E-09    1.139E-09    1.060E-09    9.813E-10    9.027E-10    8.243E-10    7.462E-10    6.684E-10    5.909E-10    5.138E-10
     4.370E-10    3.606E-10    2.845E-10    2.089E-10    1.337E-10    5.888E-11   -1.543E-11   -8.927E-11   -1.626E-10   -2.355E-10
    -3.078E-10   -3.795E-10   -4.507E-10   -5.214E-10   -5.914E-10   -6.608E-10   -7.297E-10   -7.978E-10   -8.653E-10   -9.322E-10
    -9.983E-10   -1.064E-09   -1.129E-09   -1.192E-09   -1.256E-09   -1.318E-09   -1.380E-09   -1.441E-09   -1.501E-09   -1.560E-09
    -1.619E-09   -1.677E-09   -1.733E-09   -1.789E-09   -1.844E-09   -1.898E-09   -1.952E-09   -2.004E-09   -2.056E-09   -2.106E-09
    -2.156E-09   -2.204E-09   -2.252E-09   -2.299E-09   -2.344E-09   -2.389E-09   -2.433E-09   -2.475E-09   -2.517E-09   -2.558E-09
    -2.597E-09   -2.636E-09   -2.673E-09   -2.710E-09   -2.745E-09   -2.779E-09   -2.813E-09   -2.845E-09   -2.877E-09   -2.907E-09
    -2.937E-09   -2.965E-09   -2.993E-09   -3.019E-09   -3.045E-09   -3.070E-09   -3.094E-09   -3.117E-09   -3.139E-09   -3.160E-09
    -3.181E-09   -3.200E-09   -3.219E-09   -3.237E-09   -3.254E-09   -3.270E-09   -3.286E-09   -3.300E-09   -3.314E-09   -3.327E-09
    -3.340E-09   -3.352E-09   -3.362E-09   -3.373E-09   -3.382E-09   -3.391E-09   -3.399E-09   -3.406E-09   -3.413E-09   -3.419E-09
    -3.424E-09   -3.429E-09   -3.433E-09   -3.436E-09   -3.439E-09   -3.441E-09   -3.443E-09   -3.443E-09   -3.444E-09   -3.443E-09
    -3.442E-09   -3.441E-09   -3.438E-09   -3.436E-09   -3.432E-09   -3.428E-09   -3.424E-09   -3.419E-09   -3.413E-09   -3.407E-09
    -3.400E-09   -3.393E-09   -3.385E-09   -3.377E-09   -3.368E-09   -3.358E-09   -3.348E-09   -3.338E-09   -3.326E-09   -3.315E-09
    -3.302E-09   -3.289E-09   -3.275E-09   -3.261E-09   -3.246E-09   -3.231E-09   -3.215E-09   -3.198E-09   -3.180E-09   -3.162E-09
    -3.143E-09   -3.124E-09   -3.104E-09   -3.083E-09   -3.062E-09   -3.039E-09   -3.017E-09   -2.993E-09   -2.969E-09   -2.944E-09
    -2.918E-09   -2.892E-09   -2.865E-09   -2.837E-09   -2.809E-09   -2.780E-09   -2.750E-09   -2.719E-09   -2.688E-09   -2.655E-09
    -2.623E-09   -2.589E-09   -2.555E-09   -2.520E-09   -2.484E-09   -2.447E-09   -2.410E-09   -2.372E-09   -2.333E-09   -2.294E-09
    -2.254E-09   -2.213E-09   -2.171E-09   -2.129E-09   -2.085E-09   -2.041E-09   -1.997E-09   -1.951E-09   -1.905E-09   -1.858E-09
    -1.811E-09   -1.762E-09   -1.713E-09
 Ala      Conc. = 3.91E-10
   5.90991E-09  5.94826E-09  5.98663E-09  6.02352E-09  6.05694E-09  6.08552E-09  6.10010E-09  6.12599E-09  6.18104E-09  6.20886E-09
   6.23155E-09  6.29774E-09  6.35630E-09  6.40279E-09  6.46179E-09  6.52320E-09  6.58345E-09  6.64185E-09  6.69831E-09  6.75286E-09
   6.80556E-09  6.85649E-09  6.90572E-09  6.95332E-09  6.99933E-09  7.04380E-09  7.08673E-09  7.12820E-09  7.16824E-09  7.20682E-09
   7.24403E-09  7.27983E-09  7.31426E-09  7.34737E-09  7.37913E-09  7.40955E-09  7.43868E-09  7.46651E-09  7.49304E-09  7.51832E-09
   7.54230E-09  7.56503E-09  7.58652E-09  7.60679E-09  7.62581E-09  7.64363E-09  7.66022E-09  7.67560E-09  7.68982E-09  7.70286E-09
   7.71471E-09  7.72537E-09  7.73491E-09  7.74330E-09  7.75054E-09  7.75664E-09  7.76163E-09  7.76553E-09  7.76832E-09  7.77006E-09
   7.77070E-09  7.77028E-09  7.76881E-09  7.76630E-09  7.76275E-09  7.75819E-09  7.75262E-09  7.74606E-09  7.73852E-09  7.73000E-09
   7.72054E-09  7.71015E-09  7.69884E-09  7.68663E-09  7.67356E-09  7.65965E-09  7.64490E-09  7.62940E-09  7.61313E-09  7.59617E-09
   7.57855E-09  7.56033E-09  7.54158E-09  7.52239E-09  7.50287E-09  7.48308E-09  7.46324E-09  7.44349E-09  7.42406E-09  7.40528E-09
   7.38753E-09  7.37138E-09  7.35758E-09  7.34722E-09  7.34199E-09  7.34459E-09  7.35972E-09  7.39649E-09  7.47590E-09  7.65787E-09
   7.90049E-09  7.98298E-09  8.02888E-09  8.14660E-09  8.20079E-09  8.14810E-09  8.00949E-09  7.81010E-09  7.55534E-09  7.24488E-09
   6.91740E-09  6.67295E-09  6.50119E-09  6.21732E-09  5.97756E-09  5.88907E-09  5.83020E-09  5.77855E-09  5.72842E-09  5.67802E-09
   5.62650E-09  5.57376E-09  5.51969E-09  5.46431E-09  5.40765E-09  5.34978E-09  5.29074E-09  5.23060E-09  5.16941E-09  5.10721E-09
   5.04406E-09  4.98000E-09  4.91506E-09  4.84929E-09  4.78271E-09  4.71537E-09  4.64729E-09  4.57850E-09  4.50904E-09  4.43893E-09
   4.36820E-09  4.29686E-09  4.22495E-09  4.15253E-09  4.07955E-09  4.00606E-09  3.93210E-09  3.85771E-09  3.78287E-09  3.70764E-09
   3.63206E-09  3.55609E-09  3.47981E-09  3.40328E-09  3.32646E-09  3.24943E-09  3.17227E-09  3.09501E-09  3.01773E-09  2.94061E-09
   2.86377E-09  2.78762E-09  2.71270E-09  2.64027E-09  2.57330E-09  2.52125E-09  2.53037E-09  2.68353E-09  2.80871E-09  2.83307E-09
   2.77261E-09  2.67529E-09  2.57753E-09  2.49300E-09  2.40852E-09  2.29187E-09  2.10222E-09  1.82904E-09  1.55402E-09  1.41864E-09
   1.31697E-09  1.22599E-09  1.13981E-09  1.05627E-09  9.74375E-10  8.93644E-10  8.13797E-10  7.34667E-10  6.56160E-10  5.78218E-10
   5.00792E-10  4.23878E-10  3.47448E-10  2.71517E-10  1.96074E-10  1.21115E-10  4.66671E-11 -2.72684E-11 -1.00687E-10 -1.73566E-10
  -2.45897E-10 -3.17677E-10 -3.88883E-10 -4.59495E-10 -5.29510E-10 -5.98911E-10 -6.67685E-10 -7.35798E-10 -8.03263E-10 -8.70058E-10
  -9.36165E-10 -1.00156E-09 -1.06624E-09 -1.13019E-09 -1.19341E-09 -1.25586E-09 -1.31753E-09 -1.37842E-09 -1.43852E-09 -1.49780E-09
  -1.55626E-09 -1.61387E-09 -1.67063E-09 -1.72654E-09 -1.78159E-09 -1.83572E-09 -1.88898E-09 -1.94133E-09 -1.99275E-09 -2.04324E-09
  -2.09279E-09 -2.14139E-09 -2.18902E-09 -2.23569E-09 -2.28138E-09 -2.32608E-09 -2.36978E-09 -2.41248E-09 -2.45416E-09 -2.49481E-09
  -2.53444E-09 -2.57303E-09 -2.61057E-09 -2.64708E-09 -2.68256E-09 -2.71702E-09 -2.75047E-09 -2.78292E-09 -2.81440E-09 -2.84489E-09
  -2.87443E-09 -2.90302E-09 -2.93066E-09 -2.95738E-09 -2.98317E-09 -3.00806E-09 -3.03206E-09 -3.05516E-09 -3.07739E-09 -3.09876E-09
  -3.11927E-09 -3.13894E-09 -3.15778E-09 -3.17579E-09 -3.19299E-09 -3.20939E-09 -3.22499E-09 -3.23982E-09 -3.25387E-09 -3.26715E-09
  -3.27968E-09 -3.29147E-09 -3.30252E-09 -3.31285E-09 -3.32245E-09 -3.33135E-09 -3.33955E-09 -3.34706E-09 -3.35388E-09 -3.36003E-09
  -3.36551E-09 -3.37034E-09 -3.37451E-09 -3.37803E-09 -3.38092E-09 -3.38317E-09 -3.38480E-09 -3.38582E-09 -3.38622E-09 -3.38602E-09
  -3.38522E-09 -3.38382E-09 -3.38184E-09 -3.37927E-09 -3.37613E-09 -3.37241E-09 -3.36812E-09 -3.36327E-09 -3.35785E-09 -3.35188E-09
  -3.34536E-09 -3.33828E-09 -3.33066E-09 -3.32249E-09 -3.31376E-09 -3.30446E-09 -3.29460E-09 -3.28416E-09 -3.27313E-09 -3.26152E-09
  -3.24930E-09 -3.23649E-09 -3.22306E-09 -3.20901E-09 -3.19434E-09 -3.17904E-09 -3.16311E-09 -3.14653E-09 -3.12931E-09 -3.11144E-09
  -3.09291E-09 -3.07372E-09 -3.05386E-09 -3.03333E-09 -3.01212E-09 -2.99023E-09 -2.96765E-09 -2.94439E-09 -2.92043E-09 -2.89577E-09
  -2.87041E-09 -2.84435E-09 -2.81758E-09 -2.79009E-09 -2.76189E-09 -2.73297E-09 -2.70333E-09 -2.67296E-09 -2.64187E-09 -2.61005E-09
  -2.57751E-09 -2.54422E-09 -2.51020E-09 -2.47545E-09 -2.43996E-09 -2.40373E-09 -2.36676E-09 -2.32905E-09 -2.29059E-09 -2.25139E-09
  -2.21145E-09 -2.17077E-09 -2.12935E-09 -2.08718E-09 -2.04426E-09 -2.00061E-09 -1.95621E-09 -1.91107E-09 -1.86520E-09 -1.81858E-09
  -1.77122E-09 -1.72313E-09 -1.67431E-09
 Asp      Conc. = 2.44E-09
   5.81765E-09  5.58733E-09  5.48630E-09  5.38749E-09  5.30503E-09  5.31151E-09  5.33826E-09  5.53230E-09  5.72484E-09  5.89878E-09
   6.05675E-09  6.20235E-09  6.33779E-09  6.46342E-09  6.58020E-09  6.69130E-09  6.79790E-09  6.90081E-09  7.00076E-09  7.09833E-09
   7.19409E-09  7.28857E-09  7.38229E-09  7.47580E-09  7.56967E-09  7.66454E-09  7.76112E-09  7.86033E-09  7.96325E-09  8.07124E-09
   8.18618E-09  8.31058E-09  8.44819E-09  8.60483E-09  8.79014E-09  9.01977E-09  9.25042E-09  9.42889E-09  9.50031E-09  9.49544E-09
   9.52794E-09  9.70586E-09  1.01368E-08  1.05495E-08  1.10682E-08  1.11317E-08  1.07618E-08  1.04234E-08  1.03872E-08  1.03695E-08
   1.02077E-08  9.84804E-09  9.20166E-09  8.40729E-09  7.88028E-09  7.58205E-09  7.71770E-09  7.70080E-09  7.45748E-09  7.23869E-09
   7.21047E-09  7.18096E-09  7.18355E-09  7.24537E-09  7.21142E-09  7.09059E-09  7.04433E-09  7.04464E-09  7.05742E-09  7.07338E-09
   7.08922E-09  7.10362E-09  7.11600E-09  7.12612E-09  7.13391E-09  7.13941E-09  7.14262E-09  7.14367E-09  7.14257E-09  7.13946E-09
   7.13436E-09  7.12736E-09  7.11853E-09  7.10795E-09  7.09566E-09  7.08169E-09  7.06613E-09  7.04900E-09  7.03035E-09  7.01022E-09
   6.98864E-09  6.96567E-09  6.94131E-09  6.91559E-09  6.88856E-09  6.86022E-09  6.83062E-09  6.79976E-09  6.76767E-09  6.73439E-09
   6.69990E-09  6.66426E-09  6.62746E-09  6.58952E-09  6.55047E-09  6.51032E-09  6.46906E-09  6.42675E-09  6.38340E-09  6.33898E-09
   6.29355E-09  6.24706E-09  6.19960E-09  6.15111E-09  6.10166E-09  6.05123E-09  5.99985E-09  5.94753E-09  5.89426E-09  5.84013E-09
   5.78499E-09  5.72897E-09  5.67207E-09  5.61430E-09  5.55567E-09  5.49621E-09  5.43592E-09  5.37483E-09  5.31297E-09  5.25034E-09
   5.18696E-09  5.12287E-09  5.05806E-09  4.99258E-09  4.92641E-09  4.85961E-09  4.79217E-09  4.72413E-09  4.65550E-09  4.58631E-09
   4.51658E-09  4.44632E-09  4.37557E-09  4.30439E-09  4.23273E-09  4.16065E-09  4.08820E-09  4.01542E-09  3.94232E-09  3.86898E-09
   3.79545E-09  3.72176E-09  3.64803E-09  3.57438E-09  3.50088E-09  3.42774E-09  3.35522E-09  3.28365E-09  3.21353E-09  3.14568E-09
   3.08133E-09  3.02277E-09  2.97416E-09  2.94449E-09  2.95630E-09  3.08518E-09  3.72097E-09  5.04971E-09  6.11185E-09  6.56909E-09
   6.56126E-09  6.37032E-09  6.19473E-09  6.08904E-09  5.95333E-09  5.57960E-09  4.74063E-09  3.45258E-09  2.33054E-09  1.95305E-09
   1.74703E-09  1.59867E-09  1.47652E-09  1.36853E-09  1.26910E-09  1.17528E-09  1.08538E-09  9.98344E-10  9.13502E-10  8.30409E-10
   7.48741E-10  6.68297E-10  5.88905E-10  5.10469E-10  4.32892E-10  3.56106E-10  2.80084E-10  2.04788E-10  1.30187E-10  5.62784E-11
  -1.69522E-11 -8.95231E-11 -1.61425E-10 -2.32652E-10 -3.03213E-10 -3.73098E-10 -4.42305E-10 -5.10806E-10 -5.78619E-10 -6.45729E-10
  -7.12122E-10 -7.77779E-10 -8.42699E-10 -9.06865E-10 -9.70285E-10 -1.03293E-09 -1.09478E-09 -1.15584E-09 -1.21611E-09 -1.27555E-09
  -1.33416E-09 -1.39192E-09 -1.44884E-09 -1.50490E-09 -1.56009E-09 -1.61438E-09 -1.66779E-09 -1.72029E-09 -1.77187E-09 -1.82252E-09
