 LCModel (Version 6.3-1R) Copyright: S.W. Provencher.          Ref.: Magn. Reson. Med. 30:672-679 (1993).                
 onepulse 26x29_ftSpec_smooth_lcm
 26 lines in following concentration table = NCONC+1
    Conc.  %SD /Cr+PCr  Metabolite                                         
 2.99E-10  90%   2.341 Ala                                                 
 3.53E-10 186%   2.765 Asp                                                 
    0.000 999%   0.000 Cr                                                  
 2.86E-10 173%   2.242 GABA                                                
    0.000 999%   0.000 Glc                                                 
 8.15E-10  70%   6.390 Gln                                                 
    0.000 999%   0.000 Glu                                                 
 9.18E-10 117%   7.197 Glyc                                                
    0.000 999%   0.000 GPC                                                 
    0.000 999%   0.000 GSH                                                 
 2.50E-10 367%   1.959 Ins                                                 
 1.41E-10 183%   1.103 Lac                                                 
 3.53E-10  83%   2.764 NAAG                                                
 7.58E-11 525%   0.594 NAA                                                 
    0.000 999%   0.000 PCh                                                 
 1.28E-10 203%   1.000 PCr                                                 
 1.18E-09  43%   9.221 PE                                                  
 1.43E-10  90%   1.120 Scyllo                                              
 2.78E-09  34%  21.822 Ser                                                 
    0.000 999%   0.000 Tau                                                 
    0.000 999%   0.000 GPC+PCh                                             
 4.28E-10  56%   3.358 NAA+NAAG                                            
 1.17E-09  26%   9.156 Ins+Glyc                                            
 1.28E-10 203%   1.000 Cr+PCr                                              
 8.15E-10  70%   6.390 Glu+Gln                                             
   6 lines in following misc. output table
  FWHM = 0.123 ppm    S/N =   3                                            
  Data shift = 0.414 ppm                                                   
  Ph:  -4 deg     -32.0 deg/ppm                                            
  alphaB,S = 1.4E+00,   3.8E+01                                            
    9 spline knots.   Ns = 5(1)                                            
  (10) 4 infls.   ( 9) 3 extrs.                                            
  363 points on ppm-axis = NY
      4.250000     4.238821     4.227641     4.216462     4.205282     4.194103     4.182923     4.171744     4.160564     4.149385
      4.138206     4.127026     4.115847     4.104667     4.093488     4.082308     4.071129     4.059949     4.048770     4.037591
      4.026411     4.015232     4.004052     3.992873     3.981693     3.970514     3.959334     3.948155     3.936975     3.925796
      3.914617     3.903437     3.892258     3.881078     3.869899     3.858719     3.847540     3.836360     3.825181     3.814002
      3.802822     3.791643     3.780463     3.769284     3.758104     3.746925     3.735745     3.724566     3.713387     3.702207
      3.691028     3.679848     3.668669     3.657489     3.646310     3.635130     3.623951     3.612772     3.601592     3.590413
      3.579233     3.568054     3.556874     3.545695     3.534515     3.523336     3.512156     3.500977     3.489798     3.478618
      3.467439     3.456259     3.445080     3.433900     3.422721     3.411541     3.400362     3.389183     3.378003     3.366824
      3.355644     3.344465     3.333285     3.322106     3.310926     3.299747     3.288568     3.277388     3.266209     3.255029
      3.243850     3.232670     3.221491     3.210311     3.199132     3.187953     3.176773     3.165594     3.154414     3.143235
      3.132055     3.120876     3.109696     3.098517     3.087337     3.076158     3.064979     3.053799     3.042620     3.031440
      3.020261     3.009081     2.997902     2.986722     2.975543     2.964364     2.953184     2.942005     2.930825     2.919646
      2.908466     2.897287     2.886107     2.874928     2.863749     2.852569     2.841390     2.830210     2.819031     2.807851
      2.796672     2.785492     2.774313     2.763134     2.751954     2.740775     2.729595     2.718416     2.707236     2.696057
      2.684877     2.673698     2.662519     2.651339     2.640160     2.628980     2.617801     2.606621     2.595442     2.584262
      2.573083     2.561903     2.550724     2.539545     2.528365     2.517186     2.506006     2.494827     2.483647     2.472468
      2.461288     2.450109     2.438930     2.427750     2.416571     2.405391     2.394212     2.383032     2.371853     2.360673
      2.349494     2.338315     2.327135     2.315956     2.304776     2.293597     2.282417     2.271238     2.260058     2.248879
      2.237700     2.226520     2.215341     2.204161     2.192982     2.181802     2.170623     2.159443     2.148264     2.137084
      2.125905     2.114726     2.103546     2.092367     2.081187     2.070008     2.058828     2.047649     2.036469     2.025290
      2.014111     2.002931     1.991752     1.980572     1.969393     1.958213     1.947034     1.935854     1.924675     1.913496
      1.902316     1.891137     1.879957     1.868778     1.857598     1.846419     1.835239     1.824060     1.812881     1.801701
      1.790522     1.779342     1.768163     1.756983     1.745804     1.734624     1.723445     1.712265     1.701086     1.689907
      1.678727     1.667548     1.656368     1.645189     1.634009     1.622830     1.611650     1.600471     1.589292     1.578112
      1.566933     1.555753     1.544574     1.533394     1.522215     1.511035     1.499856     1.488677     1.477497     1.466318
      1.455138     1.443959     1.432779     1.421600     1.410420     1.399241     1.388062     1.376882     1.365703     1.354523
      1.343344     1.332164     1.320985     1.309805     1.298626     1.287446     1.276267     1.265088     1.253908     1.242729
      1.231549     1.220370     1.209190     1.198011     1.186831     1.175652     1.164473     1.153293     1.142114     1.130934
      1.119755     1.108575     1.097396     1.086216     1.075037     1.063858     1.052678     1.041499     1.030319     1.019140
      1.007960     0.996781     0.985601     0.974422     0.963243     0.952063     0.940884     0.929704     0.918525     0.907345
      0.896166     0.884986     0.873807     0.862628     0.851448     0.840269     0.829089     0.817910     0.806730     0.795551
      0.784371     0.773192     0.762012     0.750833     0.739654     0.728474     0.717295     0.706115     0.694936     0.683756
      0.672577     0.661397     0.650218     0.639039     0.627859     0.616680     0.605500     0.594321     0.583141     0.571962
      0.560782     0.549603     0.538424     0.527244     0.516065     0.504885     0.493706     0.482526     0.471347     0.460167
      0.448988     0.437809     0.426629     0.415450     0.404270     0.393091     0.381911     0.370732     0.359552     0.348373
      0.337193     0.326014     0.314835     0.303655     0.292476     0.281296     0.270117     0.258937     0.247758     0.236578
      0.225399     0.214220     0.203040
 NY phased data points follow
  -7.11120E-09 -5.25044E-09 -6.56578E-09 -4.63331E-09 -6.56232E-09 -4.88498E-09 -6.55792E-09 -5.19532E-09 -6.54059E-09 -5.02471E-09
  -5.86381E-09 -3.93133E-09 -5.37840E-09 -3.48313E-09 -4.89524E-09 -2.93482E-09 -4.35195E-09 -2.74831E-09 -4.32361E-09 -3.19383E-09
  -4.29930E-09 -2.18098E-09 -3.68533E-09 -2.21597E-09 -3.87293E-09 -2.71452E-09 -4.36542E-09 -2.47240E-09 -2.90121E-09 -8.05580E-10
  -1.75006E-09 -2.64522E-10 -1.18875E-09  8.74878E-12 -1.14104E-09  2.88754E-10 -6.27520E-10  3.78815E-10 -5.94771E-10  4.85634E-10
  -2.26890E-10  1.06065E-09 -4.38724E-10  8.48188E-10 -4.95809E-10  4.99595E-10 -4.11691E-10  7.93196E-10 -2.67179E-10  9.83641E-10
  -3.56098E-10  3.18760E-10 -8.72560E-10 -1.36276E-10 -1.15932E-09 -3.28731E-10 -1.64860E-09 -1.25657E-09 -1.83026E-09  4.55839E-10
   1.77813E-10  1.55038E-09  8.48335E-10  1.75328E-09  1.11410E-09  1.87467E-09  7.67740E-10  1.42292E-09  2.34195E-10  9.44905E-10
  -3.52276E-10  5.28830E-11 -2.32810E-09 -2.28284E-09 -2.50567E-09 -6.29688E-10  4.32160E-10  2.56202E-09  2.06032E-09  3.35512E-09
   2.66493E-09  3.57920E-09  2.91776E-09  4.05030E-09  3.43174E-09  4.30756E-09  3.88110E-09  4.51685E-09  3.74923E-09  4.47917E-09
   3.96394E-09  4.37257E-09  3.49519E-09  4.51317E-09  3.30543E-09  3.80828E-09  3.35345E-09  4.09996E-09  3.72189E-09  4.47952E-09
   3.96819E-09  4.59299E-09  4.61163E-09  4.76081E-09  4.13885E-09  4.57460E-09  3.44452E-09  3.87975E-09  3.59315E-09  4.27609E-09
   3.70332E-09  4.36510E-09  3.69902E-09  4.13687E-09  3.81643E-09  4.35289E-09  3.95533E-09  4.62913E-09  3.86868E-09  3.80595E-09
   3.27846E-09  3.42311E-09  2.66351E-09  3.15423E-09  2.37288E-09  2.85942E-09  1.86391E-09  2.22511E-09  1.38185E-09  1.91353E-09
   1.79937E-09  1.43557E-09  6.95241E-10  7.94264E-10  5.62355E-10  1.17426E-09  1.37505E-09  2.00594E-09  1.38901E-09  1.60288E-09
   1.56888E-09  2.55413E-09  2.61822E-09  3.31134E-09  3.24673E-09  3.75025E-09  3.11511E-09  4.03729E-09  3.49199E-09  4.00648E-09
   3.69291E-09  4.61285E-09  4.03818E-09  4.55300E-09  4.54036E-09  4.84208E-09  4.94003E-09  5.42556E-09  5.43467E-09  5.87268E-09
   4.98459E-09  5.85159E-09  5.85155E-09  5.67596E-09  5.88098E-09  8.24428E-09  1.09684E-08  1.30202E-08  1.37760E-08  1.40424E-08
   1.42352E-08  1.42679E-08  1.43736E-08  1.43527E-08  1.38584E-08  1.37689E-08  1.34120E-08  1.32203E-08  1.27607E-08  1.22868E-08
   1.17613E-08  1.10636E-08  1.05307E-08  9.59219E-09  8.57240E-09  7.76525E-09  6.05410E-09  5.00349E-09  3.72834E-09  1.89439E-09
   5.39196E-10 -9.44246E-10 -3.24558E-09 -4.68347E-09 -6.16667E-09 -7.47170E-09 -8.45312E-09 -9.49472E-09 -9.73097E-09 -9.88922E-09
  -9.27626E-09 -9.12069E-09 -7.86358E-09 -6.63475E-09 -5.66354E-09 -4.31979E-09 -3.31355E-09 -2.61944E-09 -1.74937E-09 -1.52862E-09
  -9.95850E-10 -9.77075E-10 -7.30561E-10 -4.55937E-10 -6.46589E-10 -5.23743E-10 -4.42248E-10 -7.74477E-10 -6.47639E-10 -6.97778E-10
  -9.28850E-10 -8.50316E-10 -1.52706E-09 -1.94513E-09 -1.72400E-09 -1.84272E-09 -8.92072E-10 -3.57390E-10 -2.67940E-10 -4.24685E-10
  -7.96240E-10 -1.66740E-09 -1.68026E-09 -1.42471E-09 -1.33164E-09 -8.24092E-10 -3.45624E-10 -5.26711E-10 -5.12645E-10 -1.05406E-09
  -1.34830E-09 -1.26000E-09 -1.18502E-09 -7.46371E-10 -4.54014E-10 -4.28004E-10 -1.37110E-10 -1.43584E-10 -1.31573E-10 -5.16757E-10
  -3.25241E-10 -1.00961E-09 -9.97533E-10 -1.04013E-09 -1.17140E-09 -1.10082E-09 -8.53392E-10 -9.30052E-10 -8.74471E-10 -7.07150E-10
  -6.33925E-10 -6.96473E-10 -2.21382E-10 -4.97669E-10 -5.17752E-10 -2.83976E-10 -5.96176E-10 -5.63809E-10 -5.29096E-10 -6.45056E-10
  -2.48276E-10 -8.05141E-10 -5.35084E-10 -7.36281E-10 -8.35826E-10 -1.09804E-09 -9.17695E-10 -1.14679E-09 -1.49185E-09 -1.40008E-09
  -1.10206E-09 -1.34146E-09 -1.25235E-09 -1.31846E-09 -1.27170E-09 -1.54073E-09 -1.31805E-09 -1.48223E-09 -1.02900E-09 -1.37738E-09
  -1.05627E-09 -1.29842E-09 -1.09250E-09 -1.49369E-09 -8.76719E-10 -1.16837E-09 -9.11982E-10 -9.28670E-10 -5.47162E-10 -1.20222E-09
  -5.85112E-10 -7.50197E-10 -8.68636E-10 -1.22651E-09 -6.05984E-10 -1.05443E-09 -8.55999E-10 -1.24358E-09 -8.10564E-10 -1.31504E-09
  -1.17556E-09 -1.07700E-09 -7.77484E-10 -1.44162E-09 -5.83325E-10 -1.33391E-09 -7.94571E-10 -1.60348E-09 -9.20295E-10 -1.24937E-09
  -1.22395E-09 -1.33974E-09 -1.20007E-09 -1.25938E-09 -1.11296E-09 -1.14752E-09 -1.24247E-09 -1.42812E-09 -1.13791E-09 -1.35569E-09
  -8.77980E-10 -1.23683E-09 -1.09629E-09 -1.40666E-09 -1.19928E-09 -1.31886E-09 -1.08745E-09 -1.18280E-09 -9.73894E-10 -1.33730E-09
  -9.93827E-10 -1.22087E-09 -6.51550E-10 -1.37637E-09 -8.38299E-10 -9.59486E-10 -8.28275E-10 -1.39889E-09 -8.97787E-10 -1.46537E-09
  -9.16179E-10 -1.38039E-09 -1.07634E-09 -1.73320E-09 -1.01104E-09 -1.20116E-09 -9.15963E-10 -1.03576E-09 -9.19671E-10 -1.46499E-09
  -1.04517E-09 -1.14813E-09 -1.23469E-09
 NY points of the fit to the data follow
  -1.02506E-08 -7.91379E-09 -6.77265E-09 -6.09435E-09 -5.26726E-09 -4.36837E-09 -3.94112E-09 -4.23941E-09 -5.39465E-09 -6.02733E-09
  -5.82005E-09 -5.37151E-09 -4.91236E-09 -4.63538E-09 -4.48387E-09 -4.37585E-09 -4.20987E-09 -3.86577E-09 -3.06781E-09 -2.38026E-09
  -2.71141E-09 -3.22240E-09 -3.56527E-09 -3.81597E-09 -3.85838E-09 -3.75968E-09 -3.31752E-09 -2.60931E-09 -1.94292E-09 -1.66219E-09
  -1.37665E-09 -1.10177E-09 -7.99036E-10 -4.41546E-10 -3.93359E-11  1.63410E-10  2.64161E-10  1.92153E-10  1.60961E-10  1.95143E-10
   2.76324E-10  4.01405E-10  4.61263E-10  3.09462E-10  1.00547E-10  2.66028E-11  1.82310E-12 -7.22384E-11 -2.10416E-10 -2.98343E-10
  -3.49794E-10 -3.59636E-10 -3.62102E-10 -4.13472E-10 -5.49828E-10 -5.50431E-10 -5.98852E-10 -5.75095E-10 -3.56197E-10 -8.19436E-11
   3.95503E-11  1.61979E-10  3.55217E-10  5.95247E-10  7.73331E-10  9.19989E-10  1.02779E-09  1.11062E-09  1.01040E-09  8.49813E-10
   7.26323E-10  6.90072E-10  7.20962E-10  6.88835E-10  6.12067E-10  4.69397E-10  7.55980E-10  1.48751E-09  2.36112E-09  3.09381E-09
   3.68533E-09  4.11315E-09  4.34193E-09  4.69578E-09  5.26566E-09  5.68206E-09  5.72668E-09  5.29638E-09  4.90760E-09  4.60900E-09
   4.39376E-09  4.22109E-09  4.10763E-09  3.99330E-09  3.84298E-09  3.72523E-09  3.61674E-09  3.46594E-09  3.31504E-09  3.17746E-09
   3.23673E-09  3.34631E-09  3.33099E-09  3.41866E-09  3.59233E-09  3.76223E-09  3.90492E-09  4.12263E-09  4.32157E-09  4.41436E-09
   4.45884E-09  4.44995E-09  4.56053E-09  4.58191E-09  4.40788E-09  4.29801E-09  4.21354E-09  4.10445E-09  3.97766E-09  3.91667E-09
   3.81214E-09  3.64948E-09  3.53968E-09  3.45660E-09  3.38818E-09  3.32902E-09  3.27622E-09  3.22803E-09  3.18328E-09  3.14119E-09
   3.10117E-09  3.06277E-09  3.02565E-09  2.98954E-09  2.95424E-09  2.91956E-09  2.88535E-09  2.85149E-09  2.81789E-09  2.78446E-09
   2.75114E-09  2.71786E-09  2.68459E-09  2.65128E-09  2.61791E-09  2.58445E-09  2.55091E-09  2.51731E-09  2.48364E-09  2.44995E-09
   2.41630E-09  2.38276E-09  2.34944E-09  2.31654E-09  2.28424E-09  2.25291E-09  2.22302E-09  2.19529E-09  2.17083E-09  2.15141E-09
   2.14000E-09  2.14191E-09  2.16748E-09  2.23938E-09  2.41667E-09  2.90366E-09  4.80643E-09  9.82936E-09  1.38943E-08  1.56293E-08
   1.57110E-08  1.52256E-08  1.48976E-08  1.49644E-08  1.51827E-08  1.47180E-08  1.24124E-08  7.97490E-09  3.72526E-09  2.58031E-09
   2.11518E-09  1.85271E-09  1.67562E-09  1.54230E-09  1.43435E-09  1.34240E-09  1.26120E-09  1.18756E-09  1.11946E-09  1.05556E-09
   9.94912E-10  9.36867E-10  8.80939E-10  8.26786E-10  7.74137E-10  7.22787E-10  6.72593E-10  6.23434E-10  5.75215E-10  5.27871E-10
   4.81347E-10  4.35596E-10  3.90593E-10  3.46315E-10  3.02741E-10  2.59860E-10  2.17664E-10  1.76158E-10  1.35328E-10  9.51775E-11
   5.57114E-11  1.69356E-11 -2.11479E-11 -5.85305E-11 -9.52138E-11 -1.31184E-10 -1.66432E-10 -2.00955E-10 -2.34749E-10 -2.67799E-10
  -3.00099E-10 -3.31645E-10 -3.62431E-10 -3.92454E-10 -4.21707E-10 -4.50176E-10 -4.77870E-10 -5.04779E-10 -5.30895E-10 -5.56221E-10
  -5.80755E-10 -6.04494E-10 -6.27438E-10 -6.49589E-10 -6.70946E-10 -6.91511E-10 -7.11288E-10 -7.30281E-10 -7.48493E-10 -7.65927E-10
  -7.82595E-10 -7.98499E-10 -8.13648E-10 -8.28058E-10 -8.41744E-10 -8.54727E-10 -8.67022E-10 -8.78647E-10 -8.89620E-10 -8.99959E-10
  -9.09683E-10 -9.18808E-10 -9.27353E-10 -9.35335E-10 -9.42772E-10 -9.49680E-10 -9.56079E-10 -9.61984E-10 -9.67414E-10 -9.72385E-10
  -9.76914E-10 -9.81019E-10 -9.84715E-10 -9.88018E-10 -9.90946E-10 -9.93515E-10 -9.95738E-10 -9.97634E-10 -9.99215E-10 -1.00050E-09
  -1.00150E-09 -1.00223E-09 -1.00270E-09 -1.00294E-09 -1.00294E-09 -1.00274E-09 -1.00233E-09 -1.00173E-09 -1.00095E-09 -1.00001E-09
  -9.98916E-10 -9.97678E-10 -9.96308E-10 -9.94816E-10 -9.93212E-10 -9.91505E-10 -9.89705E-10 -9.87819E-10 -9.85857E-10 -9.83826E-10
  -9.81733E-10 -9.79586E-10 -9.77390E-10 -9.75153E-10 -9.72879E-10 -9.70573E-10 -9.68241E-10 -9.65888E-10 -9.63516E-10 -9.61130E-10
  -9.58730E-10 -9.56321E-10 -9.53907E-10 -9.51487E-10 -9.49066E-10 -9.46646E-10 -9.44230E-10 -9.41821E-10 -9.39422E-10 -9.37035E-10
  -9.34663E-10 -9.32308E-10 -9.29971E-10 -9.27656E-10 -9.25363E-10 -9.23095E-10 -9.20852E-10 -9.18637E-10 -9.16451E-10 -9.14295E-10
  -9.12171E-10 -9.10078E-10 -9.08018E-10 -9.05991E-10 -9.03998E-10 -9.02040E-10 -9.00117E-10 -8.98228E-10 -8.96374E-10 -8.94554E-10
  -8.92769E-10 -8.91017E-10 -8.89300E-10 -8.87615E-10 -8.85962E-10 -8.84340E-10 -8.82749E-10 -8.81188E-10 -8.79654E-10 -8.78148E-10
  -8.76666E-10 -8.75208E-10 -8.73772E-10 -8.72358E-10 -8.70961E-10 -8.69581E-10 -8.68216E-10 -8.66863E-10 -8.65521E-10 -8.64187E-10
  -8.62858E-10 -8.61533E-10 -8.60209E-10 -8.58883E-10 -8.57553E-10 -8.56216E-10 -8.54868E-10 -8.53508E-10 -8.52131E-10 -8.50736E-10
  -8.49320E-10 -8.47878E-10 -8.46408E-10
 NY background values follow
    -2.981E-09   -2.947E-09   -2.912E-09   -2.877E-09   -2.841E-09   -2.805E-09   -2.768E-09   -2.731E-09   -2.693E-09   -2.655E-09
    -2.616E-09   -2.577E-09   -2.537E-09   -2.497E-09   -2.456E-09   -2.415E-09   -2.374E-09   -2.332E-09   -2.289E-09   -2.246E-09
    -2.203E-09   -2.160E-09   -2.116E-09   -2.072E-09   -2.027E-09   -1.982E-09   -1.937E-09   -1.891E-09   -1.845E-09   -1.799E-09
    -1.753E-09   -1.706E-09   -1.659E-09   -1.612E-09   -1.565E-09   -1.517E-09   -1.469E-09   -1.421E-09   -1.373E-09   -1.325E-09
    -1.277E-09   -1.228E-09   -1.179E-09   -1.130E-09   -1.081E-09   -1.032E-09   -9.833E-10   -9.341E-10   -8.849E-10   -8.356E-10
    -7.864E-10   -7.370E-10   -6.877E-10   -6.384E-10   -5.891E-10   -5.399E-10   -4.907E-10   -4.415E-10   -3.924E-10   -3.434E-10
    -2.945E-10   -2.458E-10   -1.971E-10   -1.485E-10   -1.001E-10   -5.190E-11   -3.829E-12    4.406E-11    9.176E-11    1.393E-10
     1.865E-10    2.336E-10    2.804E-10    3.269E-10    3.731E-10    4.191E-10    4.648E-10    5.102E-10    5.552E-10    5.999E-10
     6.442E-10    6.882E-10    7.317E-10    7.749E-10    8.177E-10    8.600E-10    9.019E-10    9.434E-10    9.843E-10    1.025E-09
     1.065E-09    1.104E-09    1.143E-09    1.182E-09    1.219E-09    1.257E-09    1.293E-09    1.330E-09    1.365E-09    1.400E-09
     1.434E-09    1.468E-09    1.501E-09    1.533E-09    1.564E-09    1.595E-09    1.625E-09    1.654E-09    1.683E-09    1.711E-09
     1.738E-09    1.764E-09    1.790E-09    1.814E-09    1.838E-09    1.861E-09    1.883E-09    1.904E-09    1.925E-09    1.944E-09
     1.963E-09    1.981E-09    1.998E-09    2.014E-09    2.029E-09    2.043E-09    2.056E-09    2.068E-09    2.079E-09    2.090E-09
     2.099E-09    2.108E-09    2.115E-09    2.122E-09    2.128E-09    2.132E-09    2.136E-09    2.139E-09    2.141E-09    2.142E-09
     2.143E-09    2.142E-09    2.140E-09    2.138E-09    2.135E-09    2.130E-09    2.125E-09    2.119E-09    2.113E-09    2.105E-09
     2.096E-09    2.087E-09    2.077E-09    2.066E-09    2.054E-09    2.042E-09    2.028E-09    2.014E-09    2.000E-09    1.984E-09
     1.968E-09    1.951E-09    1.933E-09    1.915E-09    1.896E-09    1.876E-09    1.856E-09    1.835E-09    1.814E-09    1.792E-09
     1.770E-09    1.746E-09    1.723E-09    1.699E-09    1.674E-09    1.649E-09    1.623E-09    1.598E-09    1.571E-09    1.544E-09
     1.517E-09    1.490E-09    1.462E-09    1.434E-09    1.405E-09    1.377E-09    1.348E-09    1.319E-09    1.289E-09    1.260E-09
     1.231E-09    1.201E-09    1.171E-09    1.141E-09    1.112E-09    1.082E-09    1.052E-09    1.023E-09    9.931E-10    9.636E-10
     9.343E-10    9.052E-10    8.762E-10    8.475E-10    8.189E-10    7.907E-10    7.627E-10    7.350E-10    7.076E-10    6.805E-10
     6.538E-10    6.275E-10    6.016E-10    5.761E-10    5.510E-10    5.263E-10    5.021E-10    4.784E-10    4.552E-10    4.325E-10
     4.103E-10    3.887E-10    3.675E-10    3.470E-10    3.270E-10    3.075E-10    2.887E-10    2.704E-10    2.527E-10    2.356E-10
     2.192E-10    2.033E-10    1.880E-10    1.734E-10    1.594E-10    1.459E-10    1.331E-10    1.209E-10    1.093E-10    9.836E-11
     8.798E-11    7.819E-11    6.900E-11    6.038E-11    5.231E-11    4.480E-11    3.780E-11    3.132E-11    2.534E-11    1.983E-11
     1.478E-11    1.018E-11    6.004E-12    2.239E-12   -1.131E-12   -4.123E-12   -6.754E-12   -9.039E-12   -1.100E-11   -1.264E-11
    -1.399E-11   -1.505E-11   -1.585E-11   -1.640E-11   -1.672E-11   -1.682E-11   -1.671E-11   -1.641E-11   -1.594E-11   -1.530E-11
    -1.452E-11   -1.360E-11   -1.257E-11   -1.142E-11   -1.018E-11   -8.861E-12   -7.468E-12   -6.016E-12   -4.517E-12   -2.980E-12
    -1.418E-12    1.606E-13    1.745E-12    3.326E-12    4.895E-12    6.443E-12    7.961E-12    9.442E-12    1.088E-11    1.227E-11
     1.359E-11    1.486E-11    1.605E-11    1.717E-11    1.821E-11    1.916E-11    2.003E-11    2.081E-11    2.149E-11    2.207E-11
     2.256E-11    2.294E-11    2.322E-11    2.340E-11    2.347E-11    2.343E-11    2.329E-11    2.303E-11    2.266E-11    2.217E-11
     2.156E-11    2.084E-11    2.000E-11    1.904E-11    1.795E-11    1.675E-11    1.542E-11    1.396E-11    1.239E-11    1.068E-11
     8.860E-12    6.910E-12    4.837E-12    2.640E-12    3.190E-13   -2.124E-12   -4.690E-12   -7.377E-12   -1.018E-11   -1.311E-11
    -1.615E-11   -1.931E-11   -2.259E-11   -2.598E-11   -2.948E-11   -3.309E-11   -3.681E-11   -4.064E-11   -4.457E-11   -4.860E-11
    -5.273E-11   -5.695E-11   -6.127E-11   -6.569E-11   -7.019E-11   -7.477E-11   -7.944E-11   -8.419E-11   -8.901E-11   -9.390E-11
    -9.887E-11   -1.039E-10   -1.090E-10   -1.141E-10   -1.194E-10   -1.246E-10   -1.299E-10   -1.353E-10   -1.406E-10   -1.461E-10
    -1.515E-10   -1.570E-10   -1.625E-10
 Ala      Conc. = 2.99E-10
  -3.25474E-09 -3.21472E-09 -3.16735E-09 -3.11757E-09 -3.06338E-09 -3.00399E-09 -2.92995E-09 -2.85233E-09 -2.80057E-09 -2.73749E-09
  -2.65488E-09 -2.60462E-09 -2.56066E-09 -2.50462E-09 -2.45774E-09 -2.41651E-09 -2.37669E-09 -2.33711E-09 -2.29735E-09 -2.25725E-09
  -2.21674E-09 -2.17579E-09 -2.13441E-09 -2.09261E-09 -2.05040E-09 -2.00779E-09 -1.96479E-09 -1.92144E-09 -1.87775E-09 -1.83373E-09
  -1.78941E-09 -1.74479E-09 -1.69989E-09 -1.65474E-09 -1.60935E-09 -1.56373E-09 -1.51790E-09 -1.47187E-09 -1.42566E-09 -1.37929E-09
  -1.33277E-09 -1.28611E-09 -1.23934E-09 -1.19246E-09 -1.14549E-09 -1.09845E-09 -1.05135E-09 -1.00420E-09 -9.57031E-10 -9.09844E-10
  -8.62658E-10 -8.15488E-10 -7.68352E-10 -7.21263E-10 -6.74238E-10 -6.27292E-10 -5.80442E-10 -5.33706E-10 -4.87097E-10 -4.40636E-10
  -3.94336E-10 -3.48217E-10 -3.02296E-10 -2.56591E-10 -2.11122E-10 -1.65908E-10 -1.20970E-10 -7.63289E-11 -3.20080E-11  1.19691E-11
   5.55776E-11  9.87907E-11  1.41580E-10  1.83916E-10  2.25766E-10  2.67096E-10  3.07867E-10  3.48039E-10  3.87564E-10  4.26397E-10
   4.64478E-10  5.01746E-10  5.38130E-10  5.73550E-10  6.07913E-10  6.41106E-10  6.73007E-10  7.03457E-10  7.32271E-10  7.59221E-10
   7.84020E-10  8.06309E-10  8.25612E-10  8.41307E-10  8.52554E-10  8.58189E-10  8.56598E-10  8.45678E-10  8.24123E-10  8.09030E-10
   9.97034E-10  1.22236E-09  1.31527E-09  1.51277E-09  1.79404E-09  2.06929E-09  2.30358E-09  2.50784E-09  2.68662E-09  2.80216E-09
   2.80287E-09  2.72207E-09  2.77418E-09  2.75871E-09  2.55918E-09  2.43271E-09  2.35953E-09  2.31344E-09  2.28299E-09  2.26243E-09
   2.24844E-09  2.23902E-09  2.23281E-09  2.22889E-09  2.22661E-09  2.22547E-09  2.22510E-09  2.22522E-09  2.22561E-09  2.22608E-09
   2.22650E-09  2.22675E-09  2.22672E-09  2.22635E-09  2.22556E-09  2.22430E-09  2.22252E-09  2.22019E-09  2.21727E-09  2.21373E-09
   2.20956E-09  2.20473E-09  2.19922E-09  2.19304E-09  2.18615E-09  2.17857E-09  2.17027E-09  2.16128E-09  2.15156E-09  2.14115E-09
   2.13003E-09  2.11821E-09  2.10570E-09  2.09251E-09  2.07866E-09  2.06415E-09  2.04902E-09  2.03331E-09  2.01704E-09  2.00032E-09
   1.98324E-09  1.96601E-09  1.94900E-09  1.93299E-09  1.91998E-09  1.91657E-09  1.95687E-09  2.13442E-09  2.28159E-09  2.33494E-09
   2.31850E-09  2.27615E-09  2.23833E-09  2.21610E-09  2.20223E-09  2.16600E-09  2.06032E-09  1.86478E-09  1.65748E-09  1.58288E-09
   1.53755E-09  1.50034E-09  1.46630E-09  1.43374E-09  1.40192E-09  1.37051E-09  1.33931E-09  1.30823E-09  1.27721E-09  1.24622E-09
   1.21525E-09  1.18431E-09  1.15339E-09  1.12252E-09  1.09170E-09  1.06094E-09  1.03028E-09  9.99723E-10  9.69294E-10  9.39018E-10
   9.08913E-10  8.78996E-10  8.49292E-10  8.19825E-10  7.90611E-10  7.61672E-10  7.33028E-10  7.04707E-10  6.76718E-10  6.49082E-10
   6.21820E-10  5.94954E-10  5.68498E-10  5.42472E-10  5.16884E-10  4.91759E-10  4.67113E-10  4.42956E-10  4.19301E-10  3.96166E-10
   3.73564E-10  3.51505E-10  3.29999E-10  3.09056E-10  2.88682E-10  2.68899E-10  2.49700E-10  2.31098E-10  2.13103E-10  1.95717E-10
   1.78944E-10  1.62789E-10  1.47254E-10  1.32339E-10  1.18049E-10  1.04383E-10  9.13373E-11  7.89114E-11  6.71031E-11  5.59111E-11
   4.53259E-11  3.53457E-11  2.59628E-11  1.71644E-11  8.93382E-12  1.25455E-12 -5.88962E-12 -1.25146E-11 -1.86378E-11 -2.42757E-11
  -2.94451E-11 -3.41631E-11 -3.84459E-11 -4.23102E-11 -4.57730E-11 -4.88500E-11 -5.15592E-11 -5.39160E-11 -5.59369E-11 -5.76381E-11
  -5.90355E-11 -6.01458E-11 -6.09841E-11 -6.15657E-11 -6.19068E-11 -6.20219E-11 -6.19258E-11 -6.16339E-11 -6.11604E-11 -6.05191E-11
  -5.97246E-11 -5.87899E-11 -5.77290E-11 -5.65542E-11 -5.52789E-11 -5.39151E-11 -5.24752E-11 -5.09707E-11 -4.94130E-11 -4.78131E-11
  -4.61817E-11 -4.45292E-11 -4.28653E-11 -4.11995E-11 -3.95410E-11 -3.78983E-11 -3.62800E-11 -3.46938E-11 -3.31468E-11 -3.16465E-11
  -3.01993E-11 -2.88120E-11 -2.74890E-11 -2.62368E-11 -2.50595E-11 -2.39611E-11 -2.29468E-11 -2.20200E-11 -2.11836E-11 -2.04401E-11
  -1.97904E-11 -1.92367E-11 -1.87835E-11 -1.84289E-11 -1.81762E-11 -1.80275E-11 -1.79851E-11 -1.80507E-11 -1.82264E-11 -1.85136E-11
  -1.89139E-11 -1.94288E-11 -2.00595E-11 -2.08071E-11 -2.16727E-11 -2.26571E-11 -2.37610E-11 -2.49849E-11 -2.63294E-11 -2.77946E-11
  -2.93809E-11 -3.10882E-11 -3.29164E-11 -3.48652E-11 -3.69343E-11 -3.91233E-11 -4.14314E-11 -4.38579E-11 -4.64016E-11 -4.90620E-11
  -5.18374E-11 -5.47267E-11 -5.77288E-11 -6.08417E-11 -6.40637E-11 -6.73935E-11 -7.08290E-11 -7.43677E-11 -7.80080E-11 -8.17476E-11
  -8.55837E-11 -8.95145E-11 -9.35368E-11 -9.76482E-11 -1.01846E-10 -1.06127E-10 -1.10488E-10 -1.14927E-10 -1.19440E-10 -1.24023E-10
  -1.28675E-10 -1.33390E-10 -1.38166E-10 -1.42998E-10 -1.47884E-10 -1.52820E-10 -1.57801E-10 -1.62824E-10 -1.67885E-10 -1.72979E-10
  -1.78104E-10 -1.83254E-10 -1.88427E-10
 Asp      Conc. = 3.53E-10
  -3.23156E-09 -3.12781E-09 -3.05179E-09 -2.96767E-09 -2.89542E-09 -2.81938E-09 -2.74563E-09 -2.70044E-09 -2.66720E-09 -2.63575E-09
  -2.60423E-09 -2.57231E-09 -2.53997E-09 -2.50695E-09 -2.47283E-09 -2.43805E-09 -2.40274E-09 -2.36699E-09 -2.33084E-09 -2.29438E-09
  -2.25766E-09 -2.22075E-09 -2.18371E-09 -2.14662E-09 -2.10956E-09 -2.07263E-09 -2.03594E-09 -1.99960E-09 -1.96380E-09 -1.92871E-09
  -1.89459E-09 -1.86180E-09 -1.83080E-09 -1.80233E-09 -1.77749E-09 -1.75791E-09 -1.73942E-09 -1.70582E-09 -1.65892E-09 -1.60124E-09
  -1.55278E-09 -1.52790E-09 -1.53594E-09 -1.52960E-09 -1.52577E-09 -1.43722E-09 -1.28565E-09 -1.16020E-09 -1.09945E-09 -1.03017E-09
  -9.34128E-10 -8.08412E-10 -6.41220E-10 -4.66213E-10 -3.50655E-10 -2.77521E-10 -2.71705E-10 -2.22580E-10 -1.35809E-10 -6.59826E-11
  -3.23853E-11  6.89737E-12  4.13471E-11  7.05346E-11  1.21623E-10  1.82280E-10  2.22761E-10  2.57304E-10  2.92275E-10  3.28271E-10
   3.65219E-10  4.02953E-10  4.41313E-10  4.80162E-10  5.19381E-10  5.58872E-10  5.98549E-10  6.38340E-10  6.78180E-10  7.18014E-10
   7.57791E-10  7.97467E-10  8.37000E-10  8.76354E-10  9.15495E-10  9.54387E-10  9.93005E-10  1.03132E-09  1.06930E-09  1.10693E-09
   1.14417E-09  1.18101E-09  1.21743E-09  1.25340E-09  1.28890E-09  1.32391E-09  1.35841E-09  1.39238E-09  1.42581E-09  1.45868E-09
   1.49096E-09  1.52265E-09  1.55372E-09  1.58415E-09  1.61394E-09  1.64306E-09  1.67150E-09  1.69925E-09  1.72629E-09  1.75260E-09
   1.77817E-09  1.80298E-09  1.82703E-09  1.85030E-09  1.87277E-09  1.89443E-09  1.91528E-09  1.93529E-09  1.95446E-09  1.97279E-09
   1.99023E-09  2.00680E-09  2.02248E-09  2.03728E-09  2.05117E-09  2.06417E-09  2.07625E-09  2.08743E-09  2.09770E-09  2.10706E-09
   2.11550E-09  2.12303E-09  2.12965E-09  2.13535E-09  2.14014E-09  2.14401E-09  2.14698E-09  2.14904E-09  2.15020E-09  2.15046E-09
   2.14982E-09  2.14830E-09  2.14589E-09  2.14262E-09  2.13846E-09  2.13344E-09  2.12757E-09  2.12086E-09  2.11331E-09  2.10494E-09
   2.09577E-09  2.08579E-09  2.07503E-09  2.06352E-09  2.05126E-09  2.03828E-09  2.02463E-09  2.01033E-09  1.99546E-09  1.98010E-09
   1.96438E-09  1.94854E-09  1.93303E-09  1.91876E-09  1.90806E-09  1.90862E-09  1.95992E-09  2.17450E-09  2.35420E-09  2.42302E-09
   2.40899E-09  2.36405E-09  2.32438E-09  2.30322E-09  2.29225E-09  2.25535E-09  2.13675E-09  1.91155E-09  1.67076E-09  1.58766E-09
   1.53966E-09  1.50136E-09  1.46686E-09  1.43415E-09  1.40234E-09  1.37104E-09  1.34001E-09  1.30913E-09  1.27834E-09  1.24760E-09
   1.21688E-09  1.18619E-09  1.15553E-09  1.12492E-09  1.09435E-09  1.06384E-09  1.03342E-09  1.00311E-09  9.72917E-10  9.42870E-10
   9.12989E-10  8.83288E-10  8.53795E-10  8.24532E-10  7.95516E-10  7.66769E-10  7.38310E-10  7.10169E-10  6.82353E-10  6.54886E-10
   6.27787E-10  6.01078E-10  5.74773E-10  5.48894E-10  5.23447E-10  4.98458E-10  4.73943E-10  4.49912E-10  4.26377E-10  4.03359E-10
   3.80868E-10  3.58916E-10  3.37512E-10  3.16666E-10  2.96387E-10  2.76693E-10  2.57580E-10  2.39059E-10  2.21143E-10  2.03831E-10
