 LCModel (Version 6.3-1R) Copyright: S.W. Provencher.          Ref.: Magn. Reson. Med. 30:672-679 (1993).                
 onepulse 26x26_ftSpec_smooth_lcm
 26 lines in following concentration table = NCONC+1
    Conc.  %SD /Cr+PCr  Metabolite                                         
    0.000 999%   0.000 Ala                                                 
    0.000 999%   0.000 Asp                                                 
 2.53E-10 231%   1.000 Cr                                                  
 8.50E-10 158%   3.355 GABA                                                
 1.13E-09 130%   4.447 Glc                                                 
 3.94E-10 298%   1.557 Gln                                                 
 5.80E-10 251%   2.292 Glu                                                 
    0.000 999%   0.000 Glyc                                                
    0.000 999%   0.000 GPC                                                 
    0.000 999%   0.000 GSH                                                 
 1.58E-09  41%   6.234 Ins                                                 
    0.000 999%   0.000 Lac                                                 
    0.000 999%   0.000 NAAG                                                
 1.14E-09  37%   4.487 NAA                                                 
 1.97E-10 102%   0.778 PCh                                                 
    0.000 999%   0.000 PCr                                                 
    0.000 999%   0.000 PE                                                  
 1.71E-10 231%   0.675 Scyllo                                              
 4.82E-09  20%  19.043 Ser                                                 
 3.47E-11 999%   0.137 Tau                                                 
 1.97E-10 102%   0.778 GPC+PCh                                             
 1.14E-09  37%   4.487 NAA+NAAG                                            
 1.58E-09  41%   6.234 Ins+Glyc                                            
 2.53E-10 231%   1.000 Cr+PCr                                              
 9.74E-10 110%   3.848 Glu+Gln                                             
   6 lines in following misc. output table
  FWHM = 0.089 ppm    S/N =   3                                            
  Data shift = 0.335 ppm                                                   
  Ph: -28 deg     -14.2 deg/ppm                                            
  alphaB,S = 1.6E-01,   1.6E+01                                            
   16 spline knots.   Ns = 5(1)                                            
  (12) 2 infls.   (11) 1 extrs.                                            
  363 points on ppm-axis = NY
      4.250000     4.238821     4.227641     4.216462     4.205282     4.194103     4.182923     4.171744     4.160564     4.149385
      4.138206     4.127026     4.115847     4.104667     4.093488     4.082308     4.071129     4.059949     4.048770     4.037591
      4.026411     4.015232     4.004052     3.992873     3.981693     3.970514     3.959334     3.948155     3.936975     3.925796
      3.914617     3.903437     3.892258     3.881078     3.869899     3.858719     3.847540     3.836360     3.825181     3.814002
      3.802822     3.791643     3.780463     3.769284     3.758104     3.746925     3.735745     3.724566     3.713387     3.702207
      3.691028     3.679848     3.668669     3.657489     3.646310     3.635130     3.623951     3.612772     3.601592     3.590413
      3.579233     3.568054     3.556874     3.545695     3.534515     3.523336     3.512156     3.500977     3.489798     3.478618
      3.467439     3.456259     3.445080     3.433900     3.422721     3.411541     3.400362     3.389183     3.378003     3.366824
      3.355644     3.344465     3.333285     3.322106     3.310926     3.299747     3.288568     3.277388     3.266209     3.255029
      3.243850     3.232670     3.221491     3.210311     3.199132     3.187953     3.176773     3.165594     3.154414     3.143235
      3.132055     3.120876     3.109696     3.098517     3.087337     3.076158     3.064979     3.053799     3.042620     3.031440
      3.020261     3.009081     2.997902     2.986722     2.975543     2.964364     2.953184     2.942005     2.930825     2.919646
      2.908466     2.897287     2.886107     2.874928     2.863749     2.852569     2.841390     2.830210     2.819031     2.807851
      2.796672     2.785492     2.774313     2.763134     2.751954     2.740775     2.729595     2.718416     2.707236     2.696057
      2.684877     2.673698     2.662519     2.651339     2.640160     2.628980     2.617801     2.606621     2.595442     2.584262
      2.573083     2.561903     2.550724     2.539545     2.528365     2.517186     2.506006     2.494827     2.483647     2.472468
      2.461288     2.450109     2.438930     2.427750     2.416571     2.405391     2.394212     2.383032     2.371853     2.360673
      2.349494     2.338315     2.327135     2.315956     2.304776     2.293597     2.282417     2.271238     2.260058     2.248879
      2.237700     2.226520     2.215341     2.204161     2.192982     2.181802     2.170623     2.159443     2.148264     2.137084
      2.125905     2.114726     2.103546     2.092367     2.081187     2.070008     2.058828     2.047649     2.036469     2.025290
      2.014111     2.002931     1.991752     1.980572     1.969393     1.958213     1.947034     1.935854     1.924675     1.913496
      1.902316     1.891137     1.879957     1.868778     1.857598     1.846419     1.835239     1.824060     1.812881     1.801701
      1.790522     1.779342     1.768163     1.756983     1.745804     1.734624     1.723445     1.712265     1.701086     1.689907
      1.678727     1.667548     1.656368     1.645189     1.634009     1.622830     1.611650     1.600471     1.589292     1.578112
      1.566933     1.555753     1.544574     1.533394     1.522215     1.511035     1.499856     1.488677     1.477497     1.466318
      1.455138     1.443959     1.432779     1.421600     1.410420     1.399241     1.388062     1.376882     1.365703     1.354523
      1.343344     1.332164     1.320985     1.309805     1.298626     1.287446     1.276267     1.265088     1.253908     1.242729
      1.231549     1.220370     1.209190     1.198011     1.186831     1.175652     1.164473     1.153293     1.142114     1.130934
      1.119755     1.108575     1.097396     1.086216     1.075037     1.063858     1.052678     1.041499     1.030319     1.019140
      1.007960     0.996781     0.985601     0.974422     0.963243     0.952063     0.940884     0.929704     0.918525     0.907345
      0.896166     0.884986     0.873807     0.862628     0.851448     0.840269     0.829089     0.817910     0.806730     0.795551
      0.784371     0.773192     0.762012     0.750833     0.739654     0.728474     0.717295     0.706115     0.694936     0.683756
      0.672577     0.661397     0.650218     0.639039     0.627859     0.616680     0.605500     0.594321     0.583141     0.571962
      0.560782     0.549603     0.538424     0.527244     0.516065     0.504885     0.493706     0.482526     0.471347     0.460167
      0.448988     0.437809     0.426629     0.415450     0.404270     0.393091     0.381911     0.370732     0.359552     0.348373
      0.337193     0.326014     0.314835     0.303655     0.292476     0.281296     0.270117     0.258937     0.247758     0.236578
      0.225399     0.214220     0.203040
 NY phased data points follow
   9.70932E-09  1.52944E-08  1.53059E-08  1.96001E-08  1.68187E-08  1.82292E-08  1.50153E-08  1.65125E-08  1.36792E-08  1.56061E-08
   1.28489E-08  1.48720E-08  1.31712E-08  1.51862E-08  1.33969E-08  1.59562E-08  1.46601E-08  1.66754E-08  1.42490E-08  1.67933E-08
   1.46373E-08  1.65653E-08  1.42519E-08  1.52034E-08  1.28269E-08  1.49608E-08  1.34075E-08  1.66290E-08  1.42532E-08  1.55386E-08
   1.33550E-08  1.44925E-08  1.28795E-08  1.64199E-08  1.62246E-08  1.83232E-08  1.60240E-08  1.70308E-08  1.46068E-08  1.54454E-08
   1.28173E-08  1.38740E-08  1.22718E-08  1.39379E-08  1.14055E-08  1.28450E-08  1.07702E-08  1.26495E-08  9.48074E-09  1.10038E-08
   9.41771E-09  1.06445E-08  8.89739E-09  1.08420E-08  9.37197E-09  1.05709E-08  8.48820E-09  9.40884E-09  8.17397E-09  9.41803E-09
   8.04521E-09  9.92162E-09  8.55011E-09  1.05745E-08  1.08253E-08  1.50408E-08  1.43968E-08  1.54274E-08  1.28913E-08  1.30045E-08
   1.06062E-08  1.14576E-08  9.56634E-09  9.55273E-09  8.15496E-09  9.52428E-09  7.75185E-09  8.78051E-09  7.00884E-09  8.23243E-09
   1.05987E-08  1.57733E-08  1.72961E-08  2.00657E-08  1.71688E-08  1.72086E-08  1.49659E-08  1.54325E-08  1.35734E-08  1.40797E-08
   1.28871E-08  1.39265E-08  1.18576E-08  1.26840E-08  1.11391E-08  1.13124E-08  1.00189E-08  1.06057E-08  8.87168E-09  1.05003E-08
   8.34082E-09  9.16728E-09  7.95007E-09  9.77393E-09  8.36377E-09  9.61139E-09  8.35311E-09  8.89669E-09  8.01804E-09  8.75396E-09
   6.37020E-09  7.55620E-09  5.44901E-09  5.53282E-09  5.46033E-09  7.14416E-09  6.07297E-09  6.57285E-09  5.84465E-09  6.78940E-09
   5.39546E-09  7.08176E-09  5.29386E-09  6.10059E-09  4.87816E-09  5.21710E-09  3.31840E-09  4.17331E-09  2.87932E-09  4.47897E-09
   3.65810E-09  4.86654E-09  3.67508E-09  4.64567E-09  3.53746E-09  4.86551E-09  4.32656E-09  4.46464E-09  3.30599E-09  4.34847E-09
   4.21215E-09  6.20598E-09  6.27629E-09  8.01209E-09  6.44203E-09  7.02734E-09  6.63615E-09  8.74080E-09  7.77720E-09  9.00915E-09
   7.99071E-09  8.65663E-09  7.76840E-09  8.96154E-09  7.63023E-09  8.43133E-09  8.00586E-09  9.24353E-09  8.06940E-09  8.80097E-09
   8.61202E-09  9.33822E-09  9.00563E-09  9.89632E-09  9.43461E-09  1.02992E-08  9.51558E-09  1.06922E-08  1.11831E-08  1.18553E-08
   1.14934E-08  1.59926E-08  1.97069E-08  2.26440E-08  2.12620E-08  1.91264E-08  1.53486E-08  1.43669E-08  1.13539E-08  1.14342E-08
   8.83492E-09  8.35865E-09  6.73118E-09  6.07880E-09  4.36668E-09  3.88471E-09  1.58355E-09  1.18180E-09 -1.01752E-09 -1.26760E-09
  -3.72950E-09 -4.13428E-09 -7.11333E-09 -7.99382E-09 -1.05582E-08 -1.14273E-08 -1.42592E-08 -1.51908E-08 -1.83310E-08 -1.94509E-08
  -2.19388E-08 -2.27937E-08 -2.44665E-08 -2.41094E-08 -2.49298E-08 -2.39283E-08 -2.33721E-08 -2.13750E-08 -2.05339E-08 -1.72034E-08
  -1.63447E-08 -1.28621E-08 -1.12035E-08 -8.25035E-09 -6.67198E-09 -4.32277E-09 -3.63849E-09 -1.57320E-09 -1.73744E-09  2.42763E-10
  -4.67891E-10  4.87259E-10 -5.43739E-10 -2.33309E-10 -1.05518E-09 -1.02907E-09 -1.58555E-09 -1.28161E-09 -1.75883E-09 -5.75311E-10
  -1.25363E-09 -4.60046E-10 -1.08491E-09  4.95243E-10 -7.38616E-10 -5.25574E-10 -1.36859E-09 -9.66123E-10 -1.72223E-09 -8.91409E-10
  -1.18497E-09  3.53957E-11 -6.36396E-10  7.79819E-10 -6.04566E-10  8.87922E-11 -1.02818E-09 -1.97429E-10 -7.23708E-10 -2.26172E-10
  -8.94051E-10  1.06600E-10 -1.70287E-10  9.81240E-10  4.35699E-10  1.10435E-09  8.00246E-10  1.30212E-09  2.57289E-12  9.72326E-10
   2.76237E-11  4.65757E-10 -2.70085E-10  4.33223E-10 -5.59975E-10 -1.90697E-10  5.89150E-11  2.93985E-10 -1.52688E-10  1.24899E-09
  -9.75579E-12  1.26049E-09  7.40661E-10  1.28944E-09  1.19648E-09  1.33658E-09  1.10487E-09  1.28422E-09  2.97041E-10  1.17233E-09
   3.17349E-10  1.01840E-09  9.28349E-11  4.23308E-10 -2.84048E-10  1.03729E-10  2.68904E-10  1.39981E-10 -1.48891E-10  1.24573E-10
   2.65806E-10  4.59967E-10 -5.05894E-12  4.83482E-10 -1.24471E-11  6.04663E-10 -8.20035E-11  8.27045E-10 -4.45067E-10  8.36087E-10
  -2.24704E-11  5.07340E-10 -1.37085E-10  7.28313E-10  3.68577E-10  8.06561E-10 -3.46587E-10  8.19465E-10  5.61934E-10  1.63352E-10
  -1.96408E-10  9.10927E-10  1.82988E-11  7.92958E-10  4.87013E-10  7.40445E-10  2.22740E-10  1.05748E-09  4.35926E-10  8.52563E-10
   7.98763E-10  1.42500E-09  7.48877E-10  1.17597E-09  3.13843E-10  1.20473E-09  9.13473E-10  1.19272E-09  5.83813E-10  1.38412E-09
   7.06733E-10  1.66693E-09  1.20653E-09  1.26864E-09  1.00322E-09  1.49707E-09  1.26492E-09  1.67191E-09  9.55838E-10  1.18549E-09
   1.09246E-09  1.75395E-09  1.29358E-09  1.68302E-09  1.66001E-09  1.50259E-09  1.47527E-09  1.86720E-09  1.50773E-09  2.19320E-09
   1.60111E-09  1.81633E-09  1.71134E-09  2.09056E-09  1.28439E-09  2.20150E-09  1.74920E-09  2.20666E-09  1.86267E-09  2.56351E-09
   1.73333E-09  2.76712E-09  1.61376E-09
 NY points of the fit to the data follow
   1.10618E-08  1.49360E-08  1.73371E-08  1.79091E-08  1.63406E-08  1.66438E-08  1.69328E-08  1.62010E-08  1.56665E-08  1.51440E-08
   1.44082E-08  1.34288E-08  1.29761E-08  1.37119E-08  1.51591E-08  1.56353E-08  1.48856E-08  1.52792E-08  1.66225E-08  1.61859E-08
   1.49938E-08  1.44409E-08  1.42190E-08  1.42071E-08  1.47776E-08  1.45271E-08  1.40327E-08  1.42176E-08  1.48430E-08  1.50670E-08
   1.53406E-08  1.51689E-08  1.54945E-08  1.60906E-08  1.61130E-08  1.48939E-08  1.45416E-08  1.45908E-08  1.45964E-08  1.42996E-08
   1.37969E-08  1.39184E-08  1.39388E-08  1.27362E-08  1.20592E-08  1.17914E-08  1.12853E-08  1.08798E-08  1.06205E-08  1.04497E-08
   1.02553E-08  1.00659E-08  9.98368E-09  9.86197E-09  9.67535E-09  9.58496E-09  9.54950E-09  9.62060E-09  9.78753E-09  9.83755E-09
   9.74549E-09  9.87510E-09  1.03455E-08  1.04072E-08  1.05918E-08  1.10621E-08  1.14045E-08  1.16444E-08  1.18354E-08  1.16608E-08
   1.15110E-08  1.15032E-08  1.11248E-08  1.03692E-08  1.01658E-08  9.63030E-09  8.98642E-09  1.02899E-08  1.12927E-08  1.14828E-08
   1.21383E-08  1.35849E-08  1.54291E-08  1.68021E-08  1.69252E-08  1.66057E-08  1.70371E-08  1.73306E-08  1.48823E-08  1.32105E-08
   1.23199E-08  1.17728E-08  1.15779E-08  1.12039E-08  1.07153E-08  1.05712E-08  1.03371E-08  9.94076E-09  9.69983E-09  9.48555E-09
   9.25112E-09  9.04761E-09  8.86909E-09  8.70969E-09  8.56530E-09  8.43283E-09  8.31035E-09  8.19628E-09  8.08944E-09  7.98910E-09
   7.89450E-09  7.80493E-09  7.71996E-09  7.63912E-09  7.56186E-09  7.48790E-09  7.41678E-09  7.34806E-09  7.28142E-09  7.21652E-09
   7.15304E-09  7.09074E-09  7.02934E-09  6.96856E-09  6.90814E-09  6.84787E-09  6.78748E-09  6.72674E-09  6.66546E-09  6.60339E-09
   6.54031E-09  6.47603E-09  6.41035E-09  6.34304E-09  6.27393E-09  6.20280E-09  6.12947E-09  6.05376E-09  5.97549E-09  5.89445E-09
   5.81043E-09  5.72332E-09  5.63289E-09  5.53895E-09  5.44131E-09  5.33979E-09  5.23424E-09  5.12450E-09  5.01043E-09  4.89191E-09
   4.76887E-09  4.64122E-09  4.50897E-09  4.37215E-09  4.23090E-09  4.08547E-09  3.93629E-09  3.78403E-09  3.62982E-09  3.47541E-09
   3.32375E-09  3.17996E-09  3.05363E-09  2.96468E-09  2.96248E-09  3.20888E-09  4.54597E-09  8.03264E-09  1.06781E-08  1.23159E-08
   1.42914E-08  1.77184E-08  2.12989E-08  2.27713E-08  2.16283E-08  1.95985E-08  1.80296E-08  1.48928E-08  8.39428E-09  3.16941E-09
   8.60423E-12 -1.14362E-09 -1.82209E-09 -2.32621E-09 -2.74520E-09 -3.11432E-09 -3.44998E-09 -3.76064E-09 -4.05087E-09 -4.32322E-09
  -4.57908E-09 -4.81912E-09 -5.04357E-09 -5.25232E-09 -5.44516E-09 -5.62170E-09 -5.78167E-09 -5.92553E-09 -6.05385E-09 -6.16714E-09
  -6.26589E-09 -6.35055E-09 -6.42158E-09 -6.47941E-09 -6.52448E-09 -6.55720E-09 -6.57798E-09 -6.58722E-09 -6.58534E-09 -6.57272E-09
  -6.54978E-09 -6.51689E-09 -6.47445E-09 -6.42285E-09 -6.36249E-09 -6.29375E-09 -6.21700E-09 -6.13264E-09 -6.04105E-09 -5.94261E-09
  -5.83770E-09 -5.72669E-09 -5.60997E-09 -5.48790E-09 -5.36087E-09 -5.22927E-09 -5.09351E-09 -4.95397E-09 -4.81106E-09 -4.66516E-09
  -4.51666E-09 -4.36595E-09 -4.21340E-09 -4.05940E-09 -3.90430E-09 -3.74850E-09 -3.59235E-09 -3.43622E-09 -3.28043E-09 -3.12539E-09
  -2.97143E-09 -2.81886E-09 -2.66806E-09 -2.51936E-09 -2.37306E-09 -2.22950E-09 -2.08900E-09 -1.95187E-09 -1.81842E-09 -1.68896E-09
  -1.56374E-09 -1.44311E-09 -1.32713E-09 -1.21570E-09 -1.10869E-09 -1.00598E-09 -9.07432E-10 -8.12922E-10 -7.22313E-10 -6.35486E-10
  -5.52317E-10 -4.72669E-10 -3.96433E-10 -3.23473E-10 -2.53678E-10 -1.86921E-10 -1.23068E-10 -6.20344E-11 -3.68405E-12  5.21052E-11
   1.05446E-10  1.56437E-10  2.05209E-10  2.51863E-10  2.96496E-10  3.39242E-10  3.80176E-10  4.19419E-10  4.57063E-10  4.93219E-10
   5.27957E-10  5.61341E-10  5.93432E-10  6.24293E-10  6.53978E-10  6.82548E-10  7.10057E-10  7.36562E-10  7.62117E-10  7.86773E-10
   8.10581E-10  8.33592E-10  8.55855E-10  8.77417E-10  8.98322E-10  9.18617E-10  9.38343E-10  9.57541E-10  9.76251E-10  9.94513E-10
   1.01236E-09  1.02983E-09  1.04696E-09  1.06378E-09  1.08031E-09  1.09659E-09  1.11264E-09  1.12850E-09  1.14414E-09  1.15954E-09
   1.17468E-09  1.18953E-09  1.20407E-09  1.21827E-09  1.23211E-09  1.24556E-09  1.25859E-09  1.27119E-09  1.28333E-09  1.29499E-09
   1.30613E-09  1.31675E-09  1.32680E-09  1.33628E-09  1.34516E-09  1.35342E-09  1.36103E-09  1.36797E-09  1.37422E-09  1.37976E-09
   1.38457E-09  1.38862E-09  1.39190E-09  1.39439E-09  1.39606E-09  1.39690E-09  1.39687E-09  1.39596E-09  1.39415E-09  1.39140E-09
   1.38769E-09  1.38301E-09  1.37732E-09  1.37061E-09  1.36287E-09  1.35406E-09  1.34417E-09  1.33318E-09  1.32108E-09  1.30785E-09
   1.29347E-09  1.27793E-09  1.26121E-09  1.24330E-09  1.22419E-09  1.20387E-09  1.18232E-09  1.15954E-09  1.13551E-09  1.11024E-09
   1.08370E-09  1.05589E-09  1.02682E-09
 NY background values follow
     4.306E-09    4.371E-09    4.436E-09    4.499E-09    4.561E-09    4.623E-09    4.683E-09    4.742E-09    4.800E-09    4.858E-09
     4.914E-09    4.969E-09    5.022E-09    5.075E-09    5.127E-09    5.178E-09    5.227E-09    5.276E-09    5.323E-09    5.369E-09
     5.415E-09    5.459E-09    5.502E-09    5.543E-09    5.584E-09    5.623E-09    5.662E-09    5.699E-09    5.735E-09    5.770E-09
     5.804E-09    5.836E-09    5.868E-09    5.898E-09    5.927E-09    5.955E-09    5.982E-09    6.008E-09    6.032E-09    6.056E-09
     6.078E-09    6.099E-09    6.120E-09    6.139E-09    6.157E-09    6.174E-09    6.190E-09    6.205E-09    6.218E-09    6.231E-09
     6.243E-09    6.254E-09    6.264E-09    6.273E-09    6.280E-09    6.287E-09    6.293E-09    6.298E-09    6.302E-09    6.306E-09
     6.308E-09    6.309E-09    6.310E-09    6.310E-09    6.308E-09    6.306E-09    6.303E-09    6.300E-09    6.295E-09    6.290E-09
     6.283E-09    6.276E-09    6.269E-09    6.260E-09    6.251E-09    6.241E-09    6.230E-09    6.219E-09    6.206E-09    6.194E-09
     6.180E-09    6.166E-09    6.151E-09    6.135E-09    6.119E-09    6.102E-09    6.085E-09    6.067E-09    6.049E-09    6.030E-09
     6.011E-09    5.991E-09    5.971E-09    5.951E-09    5.930E-09    5.910E-09    5.889E-09    5.868E-09    5.847E-09    5.826E-09
     5.805E-09    5.784E-09    5.763E-09    5.742E-09    5.722E-09    5.701E-09    5.682E-09    5.662E-09    5.643E-09    5.624E-09
     5.606E-09    5.588E-09    5.571E-09    5.554E-09    5.538E-09    5.522E-09    5.506E-09    5.490E-09    5.474E-09    5.458E-09
     5.441E-09    5.424E-09    5.405E-09    5.386E-09    5.366E-09    5.345E-09    5.322E-09    5.297E-09    5.271E-09    5.243E-09
     5.214E-09    5.181E-09    5.147E-09    5.110E-09    5.070E-09    5.028E-09    4.982E-09    4.933E-09    4.881E-09    4.826E-09
     4.766E-09    4.703E-09    4.636E-09    4.565E-09    4.489E-09    4.408E-09    4.323E-09    4.232E-09    4.136E-09    4.035E-09
     3.928E-09    3.816E-09    3.697E-09    3.572E-09    3.441E-09    3.303E-09    3.158E-09    3.006E-09    2.847E-09    2.681E-09
     2.507E-09    2.326E-09    2.136E-09    1.939E-09    1.733E-09    1.519E-09    1.296E-09    1.064E-09    8.235E-10    5.748E-10
     3.188E-10    5.643E-11   -2.115E-10   -4.842E-10   -7.606E-10   -1.040E-09   -1.321E-09   -1.604E-09   -1.887E-09   -2.169E-09
    -2.450E-09   -2.728E-09   -3.003E-09   -3.274E-09   -3.540E-09   -3.800E-09   -4.053E-09   -4.299E-09   -4.536E-09   -4.764E-09
    -4.981E-09   -5.188E-09   -5.383E-09   -5.565E-09   -5.733E-09   -5.887E-09   -6.026E-09   -6.151E-09   -6.261E-09   -6.357E-09
    -6.439E-09   -6.508E-09   -6.564E-09   -6.607E-09   -6.638E-09   -6.658E-09   -6.665E-09   -6.662E-09   -6.648E-09   -6.623E-09
    -6.589E-09   -6.544E-09   -6.491E-09   -6.428E-09   -6.357E-09   -6.278E-09   -6.191E-09   -6.097E-09   -5.995E-09   -5.887E-09
    -5.772E-09   -5.652E-09   -5.526E-09   -5.395E-09   -5.259E-09   -5.118E-09   -4.974E-09   -4.826E-09   -4.674E-09   -4.520E-09
    -4.363E-09   -4.204E-09   -4.044E-09   -3.882E-09   -3.719E-09   -3.555E-09   -3.392E-09   -3.228E-09   -3.065E-09   -2.902E-09
    -2.741E-09   -2.581E-09   -2.423E-09   -2.268E-09   -2.114E-09   -1.964E-09   -1.817E-09   -1.673E-09   -1.532E-09   -1.396E-09
    -1.265E-09   -1.138E-09   -1.015E-09   -8.974E-10   -7.841E-10   -6.752E-10   -5.705E-10   -4.699E-10   -3.733E-10   -2.805E-10
    -1.915E-10   -1.060E-10   -2.394E-11    5.475E-11    1.302E-10    2.026E-10    2.720E-10    3.385E-10    4.023E-10    4.635E-10
     5.222E-10    5.785E-10    6.325E-10    6.844E-10    7.342E-10    7.820E-10    8.280E-10    8.722E-10    9.148E-10    9.559E-10
     9.955E-10    1.034E-09    1.071E-09    1.106E-09    1.140E-09    1.174E-09    1.206E-09    1.237E-09    1.267E-09    1.296E-09
     1.324E-09    1.352E-09    1.378E-09    1.404E-09    1.429E-09    1.454E-09    1.478E-09    1.501E-09    1.524E-09    1.546E-09
     1.568E-09    1.589E-09    1.611E-09    1.631E-09    1.652E-09    1.672E-09    1.692E-09    1.711E-09    1.731E-09    1.750E-09
     1.768E-09    1.787E-09    1.805E-09    1.823E-09    1.840E-09    1.857E-09    1.874E-09    1.890E-09    1.905E-09    1.920E-09
     1.934E-09    1.948E-09    1.962E-09    1.974E-09    1.986E-09    1.998E-09    2.009E-09    2.019E-09    2.028E-09    2.036E-09
     2.044E-09    2.051E-09    2.057E-09    2.063E-09    2.067E-09    2.071E-09    2.074E-09    2.076E-09    2.077E-09    2.076E-09
     2.075E-09    2.073E-09    2.070E-09    2.066E-09    2.061E-09    2.055E-09    2.047E-09    2.039E-09    2.029E-09    2.018E-09
     2.006E-09    1.993E-09    1.979E-09    1.963E-09    1.946E-09    1.928E-09    1.909E-09    1.889E-09    1.867E-09    1.844E-09
     1.819E-09    1.793E-09    1.766E-09
 Cr       Conc. = 2.53E-10
   4.82298E-09  5.03333E-09  5.30183E-09  5.19218E-09  5.02962E-09  4.96672E-09  4.94661E-09  4.94801E-09  4.96159E-09  4.98255E-09
   5.00819E-09  5.03675E-09  5.06712E-09  5.09844E-09  5.13014E-09  5.16172E-09  5.19279E-09  5.22300E-09  5.25203E-09  5.27953E-09
   5.30517E-09  5.32856E-09  5.34925E-09  5.36664E-09  5.37999E-09  5.38830E-09  5.39007E-09  5.38308E-09  5.36376E-09  5.32621E-09
   5.26305E-09  5.24170E-09  5.59263E-09  5.77682E-09  5.80858E-09  5.97933E-09  6.37860E-09  6.86266E-09  7.18818E-09  7.28793E-09
   7.37036E-09  7.62644E-09  7.74562E-09  7.21612E-09  6.96734E-09  6.83603E-09  6.75523E-09  6.70089E-09  6.66215E-09  6.63340E-09
   6.61136E-09  6.59393E-09  6.57980E-09  6.56801E-09  6.55796E-09  6.54901E-09  6.54086E-09  6.53329E-09  6.52602E-09  6.51889E-09
   6.51177E-09  6.50454E-09  6.49711E-09  6.48941E-09  6.48137E-09  6.47296E-09  6.46413E-09  6.45483E-09  6.44506E-09  6.43479E-09
   6.42398E-09  6.41266E-09  6.40078E-09  6.38835E-09  6.37535E-09  6.36181E-09  6.34770E-09  6.33301E-09  6.31775E-09  6.30196E-09
   6.28557E-09  6.26866E-09  6.25115E-09  6.23315E-09  6.21455E-09  6.19547E-09  6.17590E-09  6.15588E-09  6.13544E-09  6.11461E-09
   6.09345E-09  6.07197E-09  6.05023E-09  6.02825E-09  6.00609E-09  5.98375E-09  5.96133E-09  5.93884E-09  5.91631E-09  5.89383E-09
   5.87138E-09  5.84905E-09  5.82687E-09  5.80488E-09  5.78313E-09  5.76166E-09  5.74053E-09  5.71977E-09  5.69943E-09  5.67957E-09
   5.66024E-09  5.64146E-09  5.62326E-09  5.60563E-09  5.58843E-09  5.57147E-09  5.55468E-09  5.53787E-09  5.52090E-09  5.50363E-09
   5.48591E-09  5.46759E-09  5.44853E-09  5.42856E-09  5.40753E-09  5.38530E-09  5.36168E-09  5.33654E-09  5.30972E-09  5.28105E-09
   5.25036E-09  5.21750E-09  5.18231E-09  5.14459E-09  5.10423E-09  5.06102E-09  5.01481E-09  4.96545E-09  4.91275E-09  4.85655E-09
   4.79664E-09  4.73290E-09  4.66511E-09  4.59307E-09  4.51658E-09  4.43544E-09  4.34947E-09  4.25845E-09  4.16221E-09  4.06053E-09
   3.95325E-09  3.84015E-09  3.72105E-09  3.59575E-09  3.46409E-09  3.32587E-09  3.18093E-09  3.02907E-09  2.87018E-09  2.70408E-09
   2.53068E-09  2.34994E-09  2.16197E-09  1.96711E-09  1.76666E-09  1.56530E-09  1.38872E-09  1.29553E-09  1.09540E-09  8.56349E-10
   6.73438E-10  5.29204E-10  3.49663E-10  7.69583E-11 -2.62656E-10 -5.85882E-10 -8.71714E-10 -1.23989E-09 -1.75937E-09 -2.10195E-09
  -2.40341E-09 -2.69189E-09 -2.97298E-09 -3.24792E-09 -3.51670E-09 -3.77892E-09 -4.03393E-09 -4.28102E-09 -4.51938E-09 -4.74824E-09
  -4.96679E-09 -5.17421E-09 -5.36968E-09 -5.55234E-09 -5.72142E-09 -5.87609E-09 -6.01579E-09 -6.14071E-09 -6.25121E-09 -6.34764E-09
  -6.43037E-09 -6.49975E-09 -6.55614E-09 -6.59991E-09 -6.63142E-09 -6.65104E-09 -6.65914E-09 -6.65608E-09 -6.64223E-09 -6.61798E-09
  -6.58368E-09 -6.53971E-09 -6.48644E-09 -6.42426E-09 -6.35352E-09 -6.27461E-09 -6.18790E-09 -6.09375E-09 -5.99256E-09 -5.88467E-09
  -5.77048E-09 -5.65033E-09 -5.52462E-09 -5.39370E-09 -5.25795E-09 -5.11777E-09 -4.97354E-09 -4.82566E-09 -4.67452E-09 -4.52050E-09
  -4.36400E-09 -4.20537E-09 -4.04503E-09 -3.88332E-09 -3.72061E-09 -3.55729E-09 -3.39371E-09 -3.23025E-09 -3.06721E-09 -2.90501E-09
  -2.74396E-09 -2.58440E-09 -2.42667E-09 -2.27113E-09 -2.11806E-09 -1.96781E-09 -1.82069E-09 -1.67700E-09 -1.53707E-09 -1.40120E-09
  -1.26964E-09 -1.14273E-09 -1.02054E-09 -9.02966E-10 -7.89877E-10 -6.81150E-10 -5.76641E-10 -4.76231E-10 -3.79784E-10 -2.87177E-10
  -1.98285E-10 -1.12972E-10 -3.11270E-11  4.73868E-11  1.22680E-10  1.94882E-10  2.64127E-10  3.30500E-10  3.94137E-10  4.55163E-10
   5.13689E-10  5.69816E-10  6.23674E-10  6.75365E-10  7.24986E-10  7.72673E-10  8.18500E-10  8.62589E-10  9.05034E-10  9.45945E-10
   9.85392E-10  1.02344E-09  1.06015E-09  1.09559E-09  1.12981E-09  1.16287E-09  1.19483E-09  1.22574E-09  1.25566E-09  1.28464E-09
   1.31273E-09  1.33998E-09  1.36645E-09  1.39217E-09  1.41720E-09  1.44157E-09  1.46534E-09  1.48855E-09  1.51123E-09  1.53342E-09
   1.55516E-09  1.57648E-09  1.59743E-09  1.61803E-09  1.63831E-09  1.65830E-09  1.67803E-09  1.69752E-09  1.71676E-09  1.73573E-09
   1.75440E-09  1.77275E-09  1.79076E-09  1.80839E-09  1.82562E-09  1.84244E-09  1.85881E-09  1.87470E-09  1.89011E-09  1.90499E-09
   1.91934E-09  1.93312E-09  1.94631E-09  1.95890E-09  1.97085E-09  1.98214E-09  1.99276E-09  2.00268E-09  2.01188E-09  2.02034E-09
   2.02804E-09  2.03495E-09  2.04105E-09  2.04634E-09  2.05078E-09  2.05435E-09  2.05704E-09  2.05881E-09  2.05964E-09  2.05952E-09
   2.05840E-09  2.05628E-09  2.05313E-09  2.04893E-09  2.04367E-09  2.03731E-09  2.02984E-09  2.02125E-09  2.01152E-09  2.00063E-09
   1.98856E-09  1.97530E-09  1.96084E-09  1.94517E-09  1.92826E-09  1.91012E-09  1.89072E-09  1.87006E-09  1.84813E-09  1.82493E-09
   1.80044E-09  1.77465E-09  1.74757E-09
 GABA     Conc. = 8.50E-10
   3.92408E-09  3.98308E-09  4.04075E-09  4.09705E-09  4.15195E-09  4.20543E-09  4.25742E-09  4.30791E-09  4.35683E-09  4.40415E-09
   4.44977E-09  4.49363E-09  4.53572E-09  4.57581E-09  4.61396E-09  4.65000E-09  4.68359E-09  4.71480E-09  4.74349E-09  4.76910E-09
   4.79147E-09  4.81028E-09  4.82504E-09  4.83521E-09  4.84024E-09  4.83915E-09  4.83198E-09  4.82152E-09  4.82944E-09  4.99376E-09
   5.01607E-09  4.95260E-09  5.31446E-09  5.67296E-09  5.78613E-09  6.05145E-09  6.42109E-09  6.81933E-09  7.18275E-09  7.33719E-09
   7.22144E-09  7.49803E-09  7.74017E-09  7.30308E-09  7.11909E-09  7.18480E-09  6.96024E-09  6.77655E-09  6.64943E-09  6.55496E-09
   6.48099E-09  6.41974E-09  6.36680E-09  6.31977E-09  6.27683E-09  6.23612E-09  6.19686E-09  6.15844E-09  6.12116E-09  6.08879E-09
   6.07452E-09  6.15585E-09  6.28711E-09  6.25720E-09  6.42732E-09  6.81747E-09  7.01881E-09  7.17054E-09  7.41707E-09  7.68723E-09
   7.92406E-09  8.00565E-09  7.81374E-09  7.66041E-09  7.78393E-09  7.49219E-09  7.06991E-09  6.98331E-09  6.84233E-09  6.68991E-09
   6.62842E-09  6.47950E-09  6.42634E-09  6.56815E-09  6.57413E-09  6.56866E-09  6.71902E-09  6.84240E-09  6.97648E-09  7.12918E-09
   7.14665E-09  7.17726E-09  7.38568E-09  7.33666E-09  7.10603E-09  7.17031E-09  7.12051E-09  6.88426E-09  6.78383E-09  6.69475E-09
   6.57329E-09  6.47263E-09  6.38847E-09  6.31604E-09  6.25235E-09  6.19515E-09  6.14321E-09  6.09548E-09  6.05126E-09  6.01021E-09
   5.97189E-09  5.93588E-09  5.90200E-09  5.86998E-09  5.83948E-09  5.81038E-09  5.78235E-09  5.75509E-09  5.72840E-09  5.70202E-09
   5.67575E-09  5.64942E-09  5.62281E-09  5.59573E-09  5.56797E-09  5.53938E-09  5.50973E-09  5.47885E-09  5.44658E-09  5.41271E-09
   5.37706E-09  5.33947E-09  5.29975E-09  5.25772E-09  5.21322E-09  5.16604E-09  5.11603E-09  5.06301E-09  5.00682E-09  4.94725E-09
   4.88410E-09  4.81726E-09  4.74648E-09  4.67157E-09  4.59232E-09  4.50853E-09  4.42001E-09  4.32656E-09  4.22799E-09  4.12409E-09
   4.01470E-09  3.89961E-09  3.77864E-09  3.65162E-09  3.51840E-09  3.37879E-09  3.23270E-09  3.07998E-09  2.92059E-09  2.75453E-09
   2.58195E-09  2.40323E-09  2.21937E-09  2.03267E-09  1.84985E-09  1.69641E-09  1.72588E-09  1.85881E-09  1.70527E-09  1.54279E-09
   1.57425E-09  1.67747E-09  1.61405E-09  1.27080E-09  7.98399E-10  4.24732E-10  7.46746E-11 -6.72553E-10 -1.55351E-09 -1.98184E-09
  -2.31955E-09 -2.62774E-09 -2.92123E-09 -3.20477E-09 -3.47993E-09 -3.74712E-09 -4.00616E-09 -4.25660E-09 -4.49784E-09 -4.72921E-09
  -4.94999E-09 -5.15941E-09 -5.35670E-09 -5.54104E-09 -5.71167E-09 -5.86779E-09 -6.00884E-09 -6.13505E-09 -6.24676E-09 -6.34435E-09
  -6.42818E-09 -6.49862E-09 -6.55603E-09 -6.60077E-09 -6.63323E-09 -6.65376E-09 -6.66274E-09 -6.66053E-09 -6.64752E-09 -6.62407E-09
  -6.59055E-09 -6.54735E-09 -6.49482E-09 -6.43336E-09 -6.36333E-09 -6.28512E-09 -6.19908E-09 -6.10560E-09 -6.00505E-09 -5.89779E-09
  -5.78422E-09 -5.66468E-09 -5.53956E-09 -5.40922E-09 -5.27405E-09 -5.13443E-09 -4.99075E-09 -4.84341E-09 -4.69279E-09 -4.53930E-09
