 LCModel (Version 6.3-1R) Copyright: S.W. Provencher.          Ref.: Magn. Reson. Med. 30:672-679 (1993).                
 onepulse 26x21_ftSpec_smooth_lcm
 26 lines in following concentration table = NCONC+1
    Conc.  %SD /Cr+PCr  Metabolite                                         
    0.000 999%   0.000 Ala                                                 
 3.80E-10 308%   1.138 Asp                                                 
 3.34E-10 200%   1.000 Cr                                                  
 6.62E-10 274%   1.986 GABA                                                
 1.11E-09 122%   3.333 Glc                                                 
 1.49E-09  94%   4.479 Gln                                                 
 9.38E-10 179%   2.813 Glu                                                 
 1.08E-09  75%   3.239 Glyc                                                
    0.000 999%   0.000 GPC                                                 
    0.000 999%   0.000 GSH                                                 
    0.000 999%   0.000 Ins                                                 
    0.000 999%   0.000 Lac                                                 
    0.000 999%   0.000 NAAG                                                
 6.69E-10  79%   2.007 NAA                                                 
 2.76E-10  49%   0.826 PCh                                                 
    0.000 999%   0.000 PCr                                                 
    0.000 999%   0.000 PE                                                  
 1.78E-10 168%   0.535 Scyllo                                              
 2.28E-09  61%   6.832 Ser                                                 
    0.000 999%   0.000 Tau                                                 
 2.76E-10  49%   0.826 GPC+PCh                                             
 6.69E-10  79%   2.007 NAA+NAAG                                            
 1.08E-09  75%   3.239 Ins+Glyc                                            
 3.34E-10 200%   1.000 Cr+PCr                                              
 2.43E-09  57%   7.293 Glu+Gln                                             
   6 lines in following misc. output table
  FWHM = 0.101 ppm    S/N =   2                                            
  Data shift = 0.335 ppm                                                   
  Ph: -42 deg     -18.7 deg/ppm                                            
  alphaB,S = 1.8E-01,   2.4E+01                                            
   16 spline knots.   Ns = 5(1)                                            
  (11) 3 infls.   (11) 1 extrs.                                            
  363 points on ppm-axis = NY
      4.250000     4.238821     4.227641     4.216462     4.205282     4.194103     4.182923     4.171744     4.160564     4.149385
      4.138206     4.127026     4.115847     4.104667     4.093488     4.082308     4.071129     4.059949     4.048770     4.037591
      4.026411     4.015232     4.004052     3.992873     3.981693     3.970514     3.959334     3.948155     3.936975     3.925796
      3.914617     3.903437     3.892258     3.881078     3.869899     3.858719     3.847540     3.836360     3.825181     3.814002
      3.802822     3.791643     3.780463     3.769284     3.758104     3.746925     3.735745     3.724566     3.713387     3.702207
      3.691028     3.679848     3.668669     3.657489     3.646310     3.635130     3.623951     3.612772     3.601592     3.590413
      3.579233     3.568054     3.556874     3.545695     3.534515     3.523336     3.512156     3.500977     3.489798     3.478618
      3.467439     3.456259     3.445080     3.433900     3.422721     3.411541     3.400362     3.389183     3.378003     3.366824
      3.355644     3.344465     3.333285     3.322106     3.310926     3.299747     3.288568     3.277388     3.266209     3.255029
      3.243850     3.232670     3.221491     3.210311     3.199132     3.187953     3.176773     3.165594     3.154414     3.143235
      3.132055     3.120876     3.109696     3.098517     3.087337     3.076158     3.064979     3.053799     3.042620     3.031440
      3.020261     3.009081     2.997902     2.986722     2.975543     2.964364     2.953184     2.942005     2.930825     2.919646
      2.908466     2.897287     2.886107     2.874928     2.863749     2.852569     2.841390     2.830210     2.819031     2.807851
      2.796672     2.785492     2.774313     2.763134     2.751954     2.740775     2.729595     2.718416     2.707236     2.696057
      2.684877     2.673698     2.662519     2.651339     2.640160     2.628980     2.617801     2.606621     2.595442     2.584262
      2.573083     2.561903     2.550724     2.539545     2.528365     2.517186     2.506006     2.494827     2.483647     2.472468
      2.461288     2.450109     2.438930     2.427750     2.416571     2.405391     2.394212     2.383032     2.371853     2.360673
      2.349494     2.338315     2.327135     2.315956     2.304776     2.293597     2.282417     2.271238     2.260058     2.248879
      2.237700     2.226520     2.215341     2.204161     2.192982     2.181802     2.170623     2.159443     2.148264     2.137084
      2.125905     2.114726     2.103546     2.092367     2.081187     2.070008     2.058828     2.047649     2.036469     2.025290
      2.014111     2.002931     1.991752     1.980572     1.969393     1.958213     1.947034     1.935854     1.924675     1.913496
      1.902316     1.891137     1.879957     1.868778     1.857598     1.846419     1.835239     1.824060     1.812881     1.801701
      1.790522     1.779342     1.768163     1.756983     1.745804     1.734624     1.723445     1.712265     1.701086     1.689907
      1.678727     1.667548     1.656368     1.645189     1.634009     1.622830     1.611650     1.600471     1.589292     1.578112
      1.566933     1.555753     1.544574     1.533394     1.522215     1.511035     1.499856     1.488677     1.477497     1.466318
      1.455138     1.443959     1.432779     1.421600     1.410420     1.399241     1.388062     1.376882     1.365703     1.354523
      1.343344     1.332164     1.320985     1.309805     1.298626     1.287446     1.276267     1.265088     1.253908     1.242729
      1.231549     1.220370     1.209190     1.198011     1.186831     1.175652     1.164473     1.153293     1.142114     1.130934
      1.119755     1.108575     1.097396     1.086216     1.075037     1.063858     1.052678     1.041499     1.030319     1.019140
      1.007960     0.996781     0.985601     0.974422     0.963243     0.952063     0.940884     0.929704     0.918525     0.907345
      0.896166     0.884986     0.873807     0.862628     0.851448     0.840269     0.829089     0.817910     0.806730     0.795551
      0.784371     0.773192     0.762012     0.750833     0.739654     0.728474     0.717295     0.706115     0.694936     0.683756
      0.672577     0.661397     0.650218     0.639039     0.627859     0.616680     0.605500     0.594321     0.583141     0.571962
      0.560782     0.549603     0.538424     0.527244     0.516065     0.504885     0.493706     0.482526     0.471347     0.460167
      0.448988     0.437809     0.426629     0.415450     0.404270     0.393091     0.381911     0.370732     0.359552     0.348373
      0.337193     0.326014     0.314835     0.303655     0.292476     0.281296     0.270117     0.258937     0.247758     0.236578
      0.225399     0.214220     0.203040
 NY phased data points follow
   1.39020E-08  1.69917E-08  1.44041E-08  1.54959E-08  1.11030E-08  1.22017E-08  9.02253E-09  1.06174E-08  7.46559E-09  1.00249E-08
   6.66725E-09  9.98773E-09  8.24444E-09  9.84516E-09  8.08811E-09  1.11584E-08  8.40744E-09  1.02079E-08  7.87249E-09  9.39593E-09
   6.83919E-09  9.20984E-09  6.52521E-09  8.55958E-09  7.16606E-09  8.60759E-09  7.34691E-09  9.96296E-09  6.85490E-09  8.61736E-09
   6.72102E-09  9.65637E-09  7.76049E-09  1.00649E-08  8.39744E-09  9.28916E-09  6.79100E-09  6.46146E-09  4.40617E-09  4.96331E-09
   3.55834E-09  4.86414E-09  3.15611E-09  4.95684E-09  3.00997E-09  4.64123E-09  2.73411E-09  3.93274E-09  2.79939E-09  4.06532E-09
   2.96611E-09  5.10728E-09  4.09672E-09  5.40792E-09  3.92846E-09  4.99891E-09  3.95011E-09  5.39116E-09  3.83046E-09  6.32762E-09
   5.39052E-09  7.66619E-09  7.05112E-09  1.02762E-08  9.75180E-09  1.22568E-08  1.04093E-08  1.03287E-08  7.07758E-09  6.90202E-09
   5.04650E-09  5.86482E-09  3.53628E-09  5.37477E-09  3.92470E-09  4.73478E-09  4.12786E-09  6.79910E-09  5.89722E-09  9.44236E-09
   1.06543E-08  1.35196E-08  1.19734E-08  1.21899E-08  1.03144E-08  9.66534E-09  7.68597E-09  7.41467E-09  6.81837E-09  6.65186E-09
   5.70198E-09  5.88051E-09  4.62701E-09  4.94012E-09  4.06581E-09  4.30141E-09  3.02009E-09  3.88648E-09  2.81755E-09  3.23006E-09
   3.02529E-09  3.53440E-09  2.93557E-09  3.71760E-09  3.22412E-09  3.99598E-09  2.70709E-09  3.46857E-09  2.38693E-09  2.98424E-09
   1.84177E-09  2.48440E-09  9.93828E-10  1.77358E-09  2.13294E-09  2.91163E-09  2.61861E-09  2.56411E-09  2.70754E-09  2.64392E-09
   2.96180E-09  3.30366E-09  2.72178E-09  2.65826E-09  2.28840E-09  1.86278E-09  1.68614E-09  1.10503E-09  1.08469E-09  2.29985E-09
   2.30655E-09  2.36689E-09  2.42779E-09  2.75600E-09  2.43558E-09  2.88571E-09  2.16472E-09  2.85210E-09  2.49028E-09  2.73075E-09
   3.00080E-09  4.05477E-09  4.40913E-09  4.71259E-09  4.10305E-09  4.83601E-09  4.44577E-09  6.05581E-09  5.62173E-09  5.86718E-09
   5.77436E-09  5.65921E-09  5.95005E-09  6.29497E-09  5.62473E-09  6.21419E-09  6.11151E-09  6.09708E-09  6.40490E-09  6.89080E-09
   6.81394E-09  7.03901E-09  6.88343E-09  7.69861E-09  6.97870E-09  7.23783E-09  7.38111E-09  8.32857E-09  9.13044E-09  1.08226E-08
   1.20954E-08  1.48735E-08  1.68163E-08  1.80292E-08  1.75287E-08  1.62113E-08  1.37276E-08  1.21644E-08  1.04789E-08  9.53290E-09
   8.16255E-09  7.48716E-09  6.54529E-09  5.96233E-09  5.23379E-09  4.21502E-09  3.36247E-09  2.60025E-09  2.31237E-09  1.35943E-09
  -2.38422E-10 -7.08427E-10 -2.36376E-09 -3.73371E-09 -4.43244E-09 -5.98814E-09 -8.21961E-09 -9.79646E-09 -1.20191E-08 -1.41483E-08
  -1.64589E-08 -1.83248E-08 -2.00347E-08 -2.16713E-08 -2.34799E-08 -2.42155E-08 -2.57185E-08 -2.56228E-08 -2.54147E-08 -2.45660E-08
  -2.36047E-08 -2.13333E-08 -1.85801E-08 -1.70454E-08 -1.46874E-08 -1.16719E-08 -9.01160E-09 -6.91464E-09 -4.10653E-09 -2.58920E-09
  -1.12835E-09 -7.27556E-11  2.45150E-10 -4.22211E-11  5.69547E-10 -5.08971E-10 -8.86029E-10 -1.31273E-09 -1.41808E-09 -1.27514E-09
  -4.72862E-10 -8.01210E-10 -8.58724E-10  1.02185E-11  2.03573E-10 -4.94768E-10 -5.89233E-10 -6.83657E-10 -7.17399E-10 -8.16613E-10
  -4.14054E-10 -1.02426E-09  1.06891E-11 -2.29511E-10  1.20038E-10 -1.39605E-10  5.82241E-10 -2.58360E-10  1.40796E-12 -3.03276E-10
  -3.25959E-10 -8.53480E-10 -6.75476E-11 -4.93752E-10 -1.27626E-10 -1.28440E-10  6.75619E-10 -6.44247E-11  1.30510E-09  5.74772E-10
   1.32154E-09  2.28297E-10  6.99639E-10 -3.43803E-10 -1.79737E-10 -5.76150E-10 -2.04070E-10 -6.96732E-10 -3.94628E-10 -5.59136E-10
   2.77858E-10 -1.41908E-10  6.58847E-10 -1.35930E-11  7.92133E-10  6.17844E-10  1.49412E-09  6.64427E-10  7.10859E-10  8.55859E-10
   1.29098E-09  3.78044E-10  1.03726E-09  5.32179E-10  9.35127E-10  8.61906E-11  9.85107E-10  3.25012E-10  1.08679E-09 -5.65431E-10
   8.41498E-10  3.63391E-10  9.24333E-10 -1.73122E-10  9.30771E-10 -2.50076E-10  1.09101E-09  5.02897E-10  8.95213E-10 -3.98881E-11
   5.64693E-10 -3.15973E-10 -1.66472E-10  6.86681E-11  8.68658E-11  1.30271E-10  2.82518E-10 -2.39137E-10  5.38413E-10 -2.87901E-10
  -1.92004E-10 -4.25815E-10  2.40757E-10 -2.74328E-10  3.51711E-10 -8.37273E-10  2.65141E-10 -4.46231E-10 -6.56925E-12 -7.19172E-10
   3.60098E-10 -2.56228E-10  1.82915E-10 -9.90866E-10  2.31392E-10 -5.69336E-10  7.37321E-11 -4.89370E-10  1.41367E-10 -9.22761E-10
  -3.31819E-10  1.66189E-12 -1.83086E-10 -6.52818E-10 -2.24328E-10 -3.46273E-10  2.12278E-10 -2.53647E-10 -3.10778E-10 -3.92194E-10
  -2.22002E-10 -1.16456E-09  3.11267E-10 -3.48447E-10  1.45989E-10 -7.91233E-10  3.75884E-10 -1.15682E-09 -1.89873E-10 -1.11001E-09
  -1.42784E-10 -9.04896E-10  4.07273E-10 -5.53728E-10  9.10566E-11 -1.06843E-09  8.43071E-11 -4.71852E-10 -2.18848E-10 -5.00973E-10
   2.44176E-10 -6.63507E-10  1.26483E-10
 NY points of the fit to the data follow
   1.64380E-08  1.52768E-08  1.38665E-08  1.29823E-08  1.27553E-08  1.20846E-08  1.08077E-08  9.68307E-09  9.08315E-09  8.83119E-09
   8.47460E-09  8.41110E-09  8.61640E-09  8.79809E-09  9.21470E-09  9.46583E-09  9.56075E-09  9.63863E-09  9.27752E-09  8.12381E-09
   7.56534E-09  7.51271E-09  7.51755E-09  7.76807E-09  8.15719E-09  8.13314E-09  8.26434E-09  8.41939E-09  8.34735E-09  8.33728E-09
   8.44903E-09  8.62643E-09  8.90752E-09  8.56576E-09  7.24262E-09  5.99437E-09  5.94156E-09  5.96488E-09  5.93081E-09  5.74978E-09
   5.46137E-09  5.12353E-09  4.30618E-09  3.52794E-09  3.44224E-09  3.45606E-09  3.31842E-09  3.29249E-09  3.40282E-09  3.53548E-09
   3.70661E-09  3.87534E-09  4.03913E-09  4.14480E-09  4.31071E-09  4.57418E-09  4.86857E-09  5.42880E-09  6.09146E-09  6.56915E-09
   6.96836E-09  7.48302E-09  8.07032E-09  8.41094E-09  8.70044E-09  8.76206E-09  8.63352E-09  8.46334E-09  7.87000E-09  7.21227E-09
   6.88633E-09  6.65187E-09  6.11319E-09  5.74128E-09  5.90632E-09  6.00773E-09  6.39273E-09  7.66376E-09  8.71762E-09  9.52423E-09
   1.02780E-08  1.08336E-08  1.10500E-08  1.10752E-08  1.07853E-08  1.00607E-08  9.24487E-09  7.94676E-09  5.92774E-09  5.13742E-09
   4.74444E-09  4.54740E-09  4.45358E-09  4.23842E-09  4.04373E-09  3.99674E-09  3.85245E-09  3.67430E-09  3.60052E-09  3.52967E-09
   3.45543E-09  3.40801E-09  3.37765E-09  3.35852E-09  3.34717E-09  3.34142E-09  3.33993E-09  3.34183E-09  3.34648E-09  3.35339E-09
   3.36210E-09  3.37223E-09  3.38357E-09  3.39587E-09  3.40888E-09  3.42241E-09  3.43617E-09  3.44991E-09  3.46344E-09  3.47656E-09
   3.48910E-09  3.50091E-09  3.51180E-09  3.52163E-09  3.53022E-09  3.53744E-09  3.54313E-09  3.54714E-09  3.54935E-09  3.54961E-09
   3.54778E-09  3.54373E-09  3.53734E-09  3.52846E-09  3.51699E-09  3.50278E-09  3.48572E-09  3.46568E-09  3.44256E-09  3.41623E-09
   3.38658E-09  3.35353E-09  3.31695E-09  3.27676E-09  3.23286E-09  3.18519E-09  3.13366E-09  3.07823E-09  3.01885E-09  2.95549E-09
   2.88817E-09  2.81692E-09  2.74183E-09  2.66304E-09  2.58080E-09  2.49545E-09  2.40753E-09  2.31784E-09  2.22759E-09  2.13865E-09
   2.05402E-09  1.97874E-09  1.92188E-09  1.90146E-09  1.95909E-09  2.21715E-09  3.21965E-09  6.58005E-09  9.47668E-09  1.15766E-08
   1.36616E-08  1.58393E-08  1.76010E-08  1.85146E-08  1.84481E-08  1.75544E-08  1.54591E-08  1.04626E-08  3.03715E-09  2.27231E-10
  -8.08847E-10 -1.40312E-09 -1.83102E-09 -2.17887E-09 -2.48155E-09 -2.75555E-09 -3.00946E-09 -3.24801E-09 -3.47390E-09 -3.68870E-09
  -3.89325E-09 -4.08798E-09 -4.27301E-09 -4.44825E-09 -4.61353E-09 -4.76856E-09 -4.91309E-09 -5.04733E-09 -5.17152E-09 -5.28587E-09
  -5.39056E-09 -5.48576E-09 -5.57164E-09 -5.64834E-09 -5.71600E-09 -5.77476E-09 -5.82473E-09 -5.86605E-09 -5.89883E-09 -5.92319E-09
  -5.93923E-09 -5.94706E-09 -5.94680E-09 -5.93856E-09 -5.92242E-09 -5.89852E-09 -5.86694E-09 -5.82778E-09 -5.78115E-09 -5.72715E-09
  -5.66588E-09 -5.59743E-09 -5.52192E-09 -5.43943E-09 -5.35016E-09 -5.25448E-09 -5.15279E-09 -5.04548E-09 -4.93297E-09 -4.81563E-09
  -4.69388E-09 -4.56810E-09 -4.43870E-09 -4.30607E-09 -4.17059E-09 -4.03269E-09 -3.89274E-09 -3.75116E-09 -3.60830E-09 -3.46462E-09
  -3.32047E-09 -3.17626E-09 -3.03239E-09 -2.88926E-09 -2.74724E-09 -2.60675E-09 -2.46818E-09 -2.33192E-09 -2.19837E-09 -2.06795E-09
  -1.94099E-09 -1.81796E-09 -1.69902E-09 -1.58412E-09 -1.47321E-09 -1.36623E-09 -1.26309E-09 -1.16376E-09 -1.06815E-09 -9.76208E-10
  -8.87867E-10 -8.03051E-10 -7.21713E-10 -6.43773E-10 -5.69180E-10 -4.97862E-10 -4.29732E-10 -3.64775E-10 -3.02898E-10 -2.44029E-10
  -1.88104E-10 -1.35080E-10 -8.48635E-11 -3.74037E-11  7.34784E-12  4.94972E-11  8.90636E-11  1.26139E-10  1.60776E-10  1.93054E-10
   2.23024E-10  2.50742E-10  2.76272E-10  2.99673E-10  3.20995E-10  3.40304E-10  3.57653E-10  3.73105E-10  3.86716E-10  3.98541E-10
   4.08643E-10  4.17077E-10  4.23903E-10  4.29179E-10  4.32961E-10  4.35311E-10  4.36283E-10  4.35939E-10  4.34331E-10  4.31529E-10
   4.27576E-10  4.22542E-10  4.16483E-10  4.09449E-10  4.01507E-10  3.92713E-10  3.83122E-10  3.72798E-10  3.61777E-10  3.50094E-10
   3.37782E-10  3.24876E-10  3.11408E-10  2.97412E-10  2.82922E-10  2.67969E-10  2.52590E-10  2.36815E-10  2.20679E-10  2.04216E-10
   1.87458E-10  1.70440E-10  1.53194E-10  1.35754E-10  1.18153E-10  1.00426E-10  8.26039E-11  6.47221E-11  4.68131E-11  2.89099E-11
   1.10471E-11 -6.74261E-12 -2.44255E-11 -4.19687E-11 -5.93388E-11 -7.65056E-11 -9.34680E-11 -1.10235E-10 -1.26814E-10 -1.43215E-10
  -1.59446E-10 -1.75517E-10 -1.91435E-10 -2.07210E-10 -2.22850E-10 -2.38364E-10 -2.53762E-10 -2.69051E-10 -2.84241E-10 -2.99339E-10
  -3.14356E-10 -3.29298E-10 -3.44176E-10 -3.58998E-10 -3.73773E-10 -3.88509E-10 -4.03215E-10 -4.17900E-10 -4.32573E-10 -4.47243E-10
  -4.61917E-10 -4.76606E-10 -4.91317E-10
 NY background values follow
    -1.900E-10   -1.660E-10   -1.419E-10   -1.179E-10   -9.380E-11   -6.973E-11   -4.567E-11   -2.162E-11    2.423E-12    2.645E-11
     5.044E-11    7.441E-11    9.834E-11    1.222E-10    1.461E-10    1.699E-10    1.936E-10    2.173E-10    2.410E-10    2.645E-10
     2.880E-10    3.114E-10    3.347E-10    3.580E-10    3.811E-10    4.041E-10    4.271E-10    4.499E-10    4.726E-10    4.952E-10
     5.177E-10    5.401E-10    5.624E-10    5.846E-10    6.067E-10    6.288E-10    6.508E-10    6.728E-10    6.948E-10    7.167E-10
     7.386E-10    7.605E-10    7.824E-10    8.044E-10    8.263E-10    8.483E-10    8.703E-10    8.923E-10    9.145E-10    9.366E-10
     9.589E-10    9.812E-10    1.004E-09    1.026E-09    1.049E-09    1.072E-09    1.094E-09    1.118E-09    1.141E-09    1.164E-09
     1.187E-09    1.211E-09    1.235E-09    1.258E-09    1.282E-09    1.306E-09    1.330E-09    1.354E-09    1.379E-09    1.403E-09
     1.427E-09    1.452E-09    1.476E-09    1.501E-09    1.526E-09    1.550E-09    1.575E-09    1.600E-09    1.625E-09    1.650E-09
     1.675E-09    1.700E-09    1.725E-09    1.750E-09    1.775E-09    1.800E-09    1.825E-09    1.850E-09    1.875E-09    1.900E-09
     1.925E-09    1.950E-09    1.975E-09    2.000E-09    2.025E-09    2.050E-09    2.075E-09    2.099E-09    2.124E-09    2.149E-09
     2.173E-09    2.198E-09    2.222E-09    2.247E-09    2.271E-09    2.295E-09    2.319E-09    2.343E-09    2.367E-09    2.391E-09
     2.415E-09    2.438E-09    2.462E-09    2.485E-09    2.508E-09    2.530E-09    2.552E-09    2.573E-09    2.593E-09    2.613E-09
     2.631E-09    2.648E-09    2.664E-09    2.678E-09    2.690E-09    2.701E-09    2.710E-09    2.718E-09    2.723E-09    2.726E-09
     2.726E-09    2.724E-09    2.720E-09    2.712E-09    2.702E-09    2.689E-09    2.673E-09    2.654E-09    2.631E-09    2.605E-09
     2.575E-09    2.542E-09    2.505E-09    2.463E-09    2.418E-09    2.369E-09    2.315E-09    2.256E-09    2.194E-09    2.126E-09
     2.054E-09    1.976E-09    1.894E-09    1.807E-09    1.714E-09    1.616E-09    1.512E-09    1.402E-09    1.287E-09    1.166E-09
     1.038E-09    9.049E-10    7.652E-10    6.191E-10    4.664E-10    3.070E-10    1.409E-10   -3.218E-11   -2.122E-10   -3.987E-10
    -5.910E-10   -7.887E-10   -9.911E-10   -1.198E-09   -1.408E-09   -1.621E-09   -1.836E-09   -2.053E-09   -2.271E-09   -2.490E-09
    -2.708E-09   -2.926E-09   -3.143E-09   -3.358E-09   -3.571E-09   -3.780E-09   -3.986E-09   -4.188E-09   -4.385E-09   -4.576E-09
    -4.762E-09   -4.941E-09   -5.112E-09   -5.276E-09   -5.432E-09   -5.578E-09   -5.716E-09   -5.843E-09   -5.962E-09   -6.071E-09
    -6.171E-09   -6.262E-09   -6.345E-09   -6.418E-09   -6.482E-09   -6.538E-09   -6.586E-09   -6.625E-09   -6.655E-09   -6.678E-09
    -6.692E-09   -6.698E-09   -6.696E-09   -6.686E-09   -6.668E-09   -6.643E-09   -6.610E-09   -6.570E-09   -6.522E-09   -6.467E-09
    -6.404E-09   -6.335E-09   -6.258E-09   -6.175E-09   -6.085E-09   -5.988E-09   -5.886E-09   -5.778E-09   -5.664E-09   -5.546E-09
    -5.424E-09   -5.297E-09   -5.167E-09   -5.034E-09   -4.898E-09   -4.759E-09   -4.619E-09   -4.477E-09   -4.333E-09   -4.189E-09
    -4.044E-09   -3.900E-09   -3.755E-09   -3.612E-09   -3.469E-09   -3.328E-09   -3.189E-09   -3.052E-09   -2.918E-09   -2.788E-09
    -2.660E-09   -2.537E-09   -2.417E-09   -2.302E-09   -2.191E-09   -2.083E-09   -1.980E-09   -1.880E-09   -1.784E-09   -1.692E-09
    -1.603E-09   -1.518E-09   -1.436E-09   -1.358E-09   -1.283E-09   -1.211E-09   -1.143E-09   -1.078E-09   -1.015E-09   -9.561E-10
    -8.998E-10   -8.465E-10   -7.959E-10   -7.481E-10   -7.030E-10   -6.606E-10   -6.207E-10   -5.833E-10   -5.483E-10   -5.157E-10
    -4.854E-10   -4.574E-10   -4.316E-10   -4.079E-10   -3.862E-10   -3.666E-10   -3.489E-10   -3.332E-10   -3.193E-10   -3.071E-10
    -2.967E-10   -2.880E-10   -2.809E-10   -2.753E-10   -2.712E-10   -2.686E-10   -2.673E-10   -2.673E-10   -2.686E-10   -2.712E-10
    -2.748E-10   -2.795E-10   -2.853E-10   -2.920E-10   -2.997E-10   -3.082E-10   -3.175E-10   -3.275E-10   -3.382E-10   -3.496E-10
    -3.616E-10   -3.742E-10   -3.874E-10   -4.011E-10   -4.153E-10   -4.300E-10   -4.450E-10   -4.605E-10   -4.763E-10   -4.925E-10
    -5.090E-10   -5.257E-10   -5.426E-10   -5.598E-10   -5.771E-10   -5.945E-10   -6.120E-10   -6.296E-10   -6.472E-10   -6.648E-10
    -6.823E-10   -6.998E-10   -7.172E-10   -7.344E-10   -7.515E-10   -7.683E-10   -7.850E-10   -8.014E-10   -8.177E-10   -8.338E-10
    -8.497E-10   -8.655E-10   -8.810E-10   -8.965E-10   -9.118E-10   -9.270E-10   -9.421E-10   -9.570E-10   -9.719E-10   -9.867E-10
    -1.001E-09   -1.016E-09   -1.031E-09   -1.045E-09   -1.059E-09   -1.074E-09   -1.088E-09   -1.103E-09   -1.117E-09   -1.131E-09
    -1.146E-09   -1.160E-09   -1.174E-09
 Asp      Conc. = 3.80E-10
   2.63830E-10  2.28827E-10  2.09141E-10  1.72692E-10  1.56041E-10  1.21533E-10  8.80758E-11  6.39454E-11  6.60697E-11  7.79345E-11
   9.43684E-11  1.13345E-10  1.34104E-10  1.56303E-10  1.78838E-10  2.01596E-10  2.24605E-10  2.47820E-10  2.71202E-10  2.94720E-10
   3.18349E-10  3.42078E-10  3.65897E-10  3.89810E-10  4.13828E-10  4.37961E-10  4.62241E-10  4.86710E-10  5.11424E-10  5.36474E-10
   5.61998E-10  5.88203E-10  6.15413E-10  6.44174E-10  6.75544E-10  7.12004E-10  7.59442E-10  8.03764E-10  8.54564E-10  8.97001E-10
   9.34976E-10  9.74112E-10  1.02436E-09  1.08915E-09  1.16833E-09  1.26210E-09  1.31681E-09  1.35354E-09  1.44188E-09  1.51999E-09
   1.60006E-09  1.66376E-09  1.69148E-09  1.66145E-09  1.58793E-09  1.49835E-09  1.42857E-09  1.45181E-09  1.45112E-09  1.39293E-09
   1.38369E-09  1.38829E-09  1.38333E-09  1.40165E-09  1.43252E-09  1.44626E-09  1.43659E-09  1.44141E-09  1.45322E-09  1.46874E-09
   1.48653E-09  1.50584E-09  1.52622E-09  1.54741E-09  1.56923E-09  1.59153E-09  1.61424E-09  1.63727E-09  1.66057E-09  1.68411E-09
   1.70783E-09  1.73172E-09  1.75575E-09  1.77991E-09  1.80416E-09  1.82850E-09  1.85291E-09  1.87738E-09  1.90190E-09  1.92646E-09
   1.95104E-09  1.97564E-09  2.00025E-09  2.02486E-09  2.04946E-09  2.07404E-09  2.09859E-09  2.12312E-09  2.14761E-09  2.17206E-09
   2.19645E-09  2.22078E-09  2.24505E-09  2.26925E-09  2.29337E-09  2.31741E-09  2.34136E-09  2.36522E-09  2.38897E-09  2.41262E-09
   2.43616E-09  2.45958E-09  2.48286E-09  2.50595E-09  2.52870E-09  2.55101E-09  2.57273E-09  2.59375E-09  2.61394E-09  2.63318E-09
   2.65133E-09  2.66828E-09  2.68390E-09  2.69807E-09  2.71065E-09  2.72153E-09  2.73057E-09  2.73766E-09  2.74268E-09  2.74548E-09
   2.74596E-09  2.74398E-09  2.73942E-09  2.73215E-09  2.72205E-09  2.70900E-09  2.69287E-09  2.67353E-09  2.65087E-09  2.62475E-09
   2.59505E-09  2.56165E-09  2.52443E-09  2.48327E-09  2.43804E-09  2.38863E-09  2.33490E-09  2.27675E-09  2.21405E-09  2.14667E-09
   2.07452E-09  1.99745E-09  1.91537E-09  1.82816E-09  1.73571E-09  1.63791E-09  1.53467E-09  1.42590E-09  1.31153E-09  1.19152E-09
   1.06587E-09  9.34671E-10  7.98200E-10  6.57090E-10  5.13075E-10  3.71654E-10  2.59160E-10  2.40993E-10  1.82054E-10  8.61027E-11
  -1.20934E-11 -1.11914E-10 -2.35953E-10 -4.00335E-10 -6.08214E-10 -8.52011E-10 -1.15122E-09 -1.57996E-09 -2.09762E-09 -2.39665E-09
  -2.64366E-09 -2.87556E-09 -3.10043E-09 -3.32060E-09 -3.53673E-09 -3.74887E-09 -3.95674E-09 -4.15997E-09 -4.35807E-09 -4.55054E-09
  -4.73685E-09 -4.91645E-09 -5.08876E-09 -5.25320E-09 -5.40920E-09 -5.55619E-09 -5.69371E-09 -5.82179E-09 -5.94052E-09 -6.05000E-09
  -6.15033E-09 -6.24161E-09 -6.32394E-09 -6.39742E-09 -6.46214E-09 -6.51820E-09 -6.56570E-09 -6.60473E-09 -6.63539E-09 -6.65778E-09
  -6.67199E-09 -6.67812E-09 -6.67626E-09 -6.66652E-09 -6.64897E-09 -6.62374E-09 -6.59090E-09 -6.55055E-09 -6.50279E-09 -6.44771E-09
  -6.38542E-09 -6.31600E-09 -6.23955E-09 -6.15617E-09 -6.06604E-09 -5.96955E-09 -5.86707E-09 -5.75901E-09 -5.64576E-09 -5.52772E-09
  -5.40529E-09 -5.27885E-09 -5.14882E-09 -5.01557E-09 -4.87949E-09 -4.74101E-09 -4.60049E-09 -4.45836E-09 -4.31497E-09 -4.17076E-09
  -4.02611E-09 -3.88140E-09 -3.73704E-09 -3.59344E-09 -3.45095E-09 -3.31001E-09 -3.17099E-09 -3.03429E-09 -2.90031E-09 -2.76946E-09
  -2.64209E-09 -2.51866E-09 -2.39931E-09 -2.28402E-09 -2.17272E-09 -2.06535E-09 -1.96185E-09 -1.86214E-09 -1.76616E-09 -1.67385E-09
  -1.58516E-09 -1.49998E-09 -1.41830E-09 -1.34001E-09 -1.26507E-09 -1.19341E-09 -1.12495E-09 -1.05966E-09 -9.97451E-10 -9.38254E-10
  -8.82005E-10 -8.28659E-10 -7.78124E-10 -7.30347E-10 -6.85280E-10 -6.42818E-10 -6.02941E-10 -5.65556E-10 -5.30612E-10 -4.98028E-10
  -4.67755E-10 -4.39734E-10 -4.13903E-10 -3.90202E-10 -3.68582E-10 -3.48975E-10 -3.31330E-10 -3.15583E-10 -3.01678E-10 -2.89559E-10
  -2.79165E-10 -2.70439E-10 -2.63322E-10 -2.57755E-10 -2.53683E-10 -2.51044E-10 -2.49783E-10 -2.49838E-10 -2.51159E-10 -2.53673E-10
  -2.57338E-10 -2.62085E-10 -2.67857E-10 -2.74604E-10 -2.82259E-10 -2.90766E-10 -3.00070E-10 -3.10107E-10 -3.20842E-10 -3.32238E-10
  -3.44262E-10 -3.56881E-10 -3.70061E-10 -3.83769E-10 -3.97971E-10 -4.12635E-10 -4.27726E-10 -4.43211E-10 -4.59056E-10 -4.75229E-10
  -4.91696E-10 -5.08422E-10 -5.25376E-10 -5.42523E-10 -5.59830E-10 -5.77264E-10 -5.94791E-10 -6.12377E-10 -6.29990E-10 -6.47595E-10
  -6.65160E-10 -6.82651E-10 -7.00034E-10 -7.17276E-10 -7.34344E-10 -7.51207E-10 -7.67866E-10 -7.84327E-10 -8.00601E-10 -8.16694E-10
  -8.32617E-10 -8.48378E-10 -8.63985E-10 -8.79448E-10 -8.94775E-10 -9.09974E-10 -9.25055E-10 -9.40026E-10 -9.54896E-10 -9.69674E-10
  -9.84368E-10 -9.98987E-10 -1.01354E-09 -1.02803E-09 -1.04248E-09 -1.05689E-09 -1.07126E-09 -1.08561E-09 -1.09995E-09 -1.11428E-09
  -1.12862E-09 -1.14297E-09 -1.15734E-09
 Cr       Conc. = 3.34E-10
   1.16281E-09  1.03903E-09  6.90781E-10  1.90440E-10  7.42826E-11  4.89150E-11  4.88913E-11  5.90602E-11  7.42740E-11  9.23331E-11
   1.12141E-10  1.33102E-10  1.54862E-10  1.77206E-10  1.99993E-10  2.23135E-10  2.46576E-10  2.70287E-10  2.94260E-10  3.18509E-10
   3.43069E-10  3.68005E-10  3.93419E-10  4.19480E-10  4.46449E-10  4.74753E-10  5.05144E-10  5.39032E-10  5.79404E-10  6.33930E-10
   7.29540E-10  1.01308E-09  1.39705E-09  1.68678E-09  1.93904E-09  2.20456E-09  2.45362E-09  2.63268E-09  2.71315E-09  2.70144E-09
   2.59459E-09  2.26863E-09  1.61400E-09  1.12429E-09  1.01308E-09  9.80757E-10  9.74282E-10  9.79152E-10  9.89943E-10  1.00420E-09
   1.02065E-09  1.03860E-09  1.05762E-09  1.07744E-09  1.09788E-09  1.11884E-09  1.14022E-09  1.16198E-09  1.18405E-09  1.20641E-09
   1.22900E-09  1.25182E-09  1.27484E-09  1.29804E-09  1.32140E-09  1.34492E-09  1.36857E-09  1.39236E-09  1.41627E-09  1.44029E-09
   1.46441E-09  1.48863E-09  1.51294E-09  1.53734E-09  1.56181E-09  1.58635E-09  1.61096E-09  1.63563E-09  1.66036E-09  1.68513E-09
   1.70994E-09  1.73480E-09  1.75969E-09  1.78461E-09  1.80955E-09  1.83451E-09  1.85949E-09  1.88447E-09  1.90946E-09  1.93443E-09
   1.95941E-09  1.98436E-09  2.00930E-09  2.03421E-09  2.05909E-09  2.08393E-09  2.10872E-09  2.13347E-09  2.15817E-09  2.18281E-09
   2.20738E-09  2.23188E-09  2.25631E-09  2.28066E-09  2.30492E-09  2.32909E-09  2.35316E-09  2.37713E-09  2.40100E-09  2.42475E-09
   2.44838E-09  2.47189E-09  2.49526E-09  2.51843E-09  2.54126E-09  2.56363E-09  2.58543E-09  2.60651E-09  2.62677E-09  2.64606E-09
   2.66427E-09  2.68127E-09  2.69694E-09  2.71115E-09  2.72377E-09  2.73469E-09  2.74378E-09  2.75091E-09  2.75595E-09  2.75879E-09
   2.75930E-09  2.75734E-09  2.75281E-09  2.74556E-09  2.73549E-09  2.72245E-09  2.70634E-09  2.68702E-09  2.66437E-09  2.63827E-09
   2.60857E-09  2.57519E-09  2.53797E-09  2.49681E-09  2.45158E-09  2.40216E-09  2.34843E-09  2.29027E-09  2.22755E-09  2.16016E-09
   2.08798E-09  2.01088E-09  1.92876E-09  1.84150E-09  1.74900E-09  1.65113E-09  1.54780E-09  1.43893E-09  1.32443E-09  1.20426E-09
   1.07840E-09  9.46920E-10  8.10075E-10  6.68437E-10  5.23650E-10  3.81085E-10  2.67656E-10  2.28908E-10  1.52193E-10  4.45275E-11
  -6.52366E-11 -1.78214E-10 -3.13954E-10 -4.85727E-10 -6.95382E-10 -9.37136E-10 -1.23162E-09 -1.64031E-09 -2.10841E-09 -2.39185E-09
  -2.63432E-09 -2.86427E-09 -3.08810E-09 -3.30765E-09 -3.52338E-09 -3.73524E-09 -3.94291E-09 -4.14599E-09 -4.34398E-09 -4.53637E-09
  -4.72261E-09 -4.90215E-09 -5.07441E-09 -5.23881E-09 -5.39479E-09 -5.54175E-09 -5.67925E-09 -5.80731E-09 -5.92602E-09 -6.03549E-09
  -6.13580E-09 -6.22708E-09 -6.30940E-09 -6.38287E-09 -6.44758E-09 -6.50363E-09 -6.55113E-09 -6.59015E-09 -6.62081E-09 -6.64319E-09
  -6.65740E-09 -6.66353E-09 -6.66166E-09 -6.65192E-09 -6.63437E-09 -6.60913E-09 -6.57629E-09 -6.53594E-09 -6.48818E-09 -6.43311E-09
  -6.37081E-09 -6.30139E-09 -6.22494E-09 -6.14156E-09 -6.05143E-09 -5.95494E-09 -5.85246E-09 -5.74440E-09 -5.63115E-09 -5.51311E-09
