 LCModel (Version 6.3-1R) Copyright: S.W. Provencher.          Ref.: Magn. Reson. Med. 30:672-679 (1993).                
 onepulse 26x24_ftSpec_smooth_lcm
 26 lines in following concentration table = NCONC+1
    Conc.  %SD /Cr+PCr  Metabolite                                         
    0.000 999%   0.000 Ala                                                 
    0.000 999%   0.000 Asp                                                 
 2.25E-10 254%   1.000 Cr                                                  
 8.13E-10 152%   3.616 GABA                                                
 7.05E-10 147%   3.136 Glc                                                 
 1.98E-09  61%   8.814 Gln                                                 
 3.12E-10 442%   1.389 Glu                                                 
 1.29E-09  48%   5.755 Glyc                                                
    0.000 999%   0.000 GPC                                                 
    0.000 999%   0.000 GSH                                                 
    0.000 999%   0.000 Ins                                                 
    0.000 999%   0.000 Lac                                                 
    0.000 999%   0.000 NAAG                                                
 8.78E-10  44%   3.907 NAA                                                 
 2.29E-10  49%   1.019 PCh                                                 
    0.000 999%   0.000 PCr                                                 
    0.000 999%   0.000 PE                                                  
 2.36E-10  96%   1.049 Scyllo                                              
 3.07E-09  31%  13.679 Ser                                                 
    0.000 999%   0.000 Tau                                                 
 2.29E-10  49%   1.019 GPC+PCh                                             
 8.78E-10  44%   3.907 NAA+NAAG                                            
 1.29E-09  48%   5.755 Ins+Glyc                                            
 2.25E-10 254%   1.000 Cr+PCr                                              
 2.29E-09  42%  10.203 Glu+Gln                                             
   6 lines in following misc. output table
  FWHM = 0.089 ppm    S/N =   3                                            
  Data shift = 0.335 ppm                                                   
  Ph: -48 deg     -19.9 deg/ppm                                            
  alphaB,S = 1.6E-01,   7.7E+01                                            
   16 spline knots.   Ns = 5(1)                                            
  (10) 2 infls.   ( 5) 1 extrs.                                            
  363 points on ppm-axis = NY
      4.250000     4.238821     4.227641     4.216462     4.205282     4.194103     4.182923     4.171744     4.160564     4.149385
      4.138206     4.127026     4.115847     4.104667     4.093488     4.082308     4.071129     4.059949     4.048770     4.037591
      4.026411     4.015232     4.004052     3.992873     3.981693     3.970514     3.959334     3.948155     3.936975     3.925796
      3.914617     3.903437     3.892258     3.881078     3.869899     3.858719     3.847540     3.836360     3.825181     3.814002
      3.802822     3.791643     3.780463     3.769284     3.758104     3.746925     3.735745     3.724566     3.713387     3.702207
      3.691028     3.679848     3.668669     3.657489     3.646310     3.635130     3.623951     3.612772     3.601592     3.590413
      3.579233     3.568054     3.556874     3.545695     3.534515     3.523336     3.512156     3.500977     3.489798     3.478618
      3.467439     3.456259     3.445080     3.433900     3.422721     3.411541     3.400362     3.389183     3.378003     3.366824
      3.355644     3.344465     3.333285     3.322106     3.310926     3.299747     3.288568     3.277388     3.266209     3.255029
      3.243850     3.232670     3.221491     3.210311     3.199132     3.187953     3.176773     3.165594     3.154414     3.143235
      3.132055     3.120876     3.109696     3.098517     3.087337     3.076158     3.064979     3.053799     3.042620     3.031440
      3.020261     3.009081     2.997902     2.986722     2.975543     2.964364     2.953184     2.942005     2.930825     2.919646
      2.908466     2.897287     2.886107     2.874928     2.863749     2.852569     2.841390     2.830210     2.819031     2.807851
      2.796672     2.785492     2.774313     2.763134     2.751954     2.740775     2.729595     2.718416     2.707236     2.696057
      2.684877     2.673698     2.662519     2.651339     2.640160     2.628980     2.617801     2.606621     2.595442     2.584262
      2.573083     2.561903     2.550724     2.539545     2.528365     2.517186     2.506006     2.494827     2.483647     2.472468
      2.461288     2.450109     2.438930     2.427750     2.416571     2.405391     2.394212     2.383032     2.371853     2.360673
      2.349494     2.338315     2.327135     2.315956     2.304776     2.293597     2.282417     2.271238     2.260058     2.248879
      2.237700     2.226520     2.215341     2.204161     2.192982     2.181802     2.170623     2.159443     2.148264     2.137084
      2.125905     2.114726     2.103546     2.092367     2.081187     2.070008     2.058828     2.047649     2.036469     2.025290
      2.014111     2.002931     1.991752     1.980572     1.969393     1.958213     1.947034     1.935854     1.924675     1.913496
      1.902316     1.891137     1.879957     1.868778     1.857598     1.846419     1.835239     1.824060     1.812881     1.801701
      1.790522     1.779342     1.768163     1.756983     1.745804     1.734624     1.723445     1.712265     1.701086     1.689907
      1.678727     1.667548     1.656368     1.645189     1.634009     1.622830     1.611650     1.600471     1.589292     1.578112
      1.566933     1.555753     1.544574     1.533394     1.522215     1.511035     1.499856     1.488677     1.477497     1.466318
      1.455138     1.443959     1.432779     1.421600     1.410420     1.399241     1.388062     1.376882     1.365703     1.354523
      1.343344     1.332164     1.320985     1.309805     1.298626     1.287446     1.276267     1.265088     1.253908     1.242729
      1.231549     1.220370     1.209190     1.198011     1.186831     1.175652     1.164473     1.153293     1.142114     1.130934
      1.119755     1.108575     1.097396     1.086216     1.075037     1.063858     1.052678     1.041499     1.030319     1.019140
      1.007960     0.996781     0.985601     0.974422     0.963243     0.952063     0.940884     0.929704     0.918525     0.907345
      0.896166     0.884986     0.873807     0.862628     0.851448     0.840269     0.829089     0.817910     0.806730     0.795551
      0.784371     0.773192     0.762012     0.750833     0.739654     0.728474     0.717295     0.706115     0.694936     0.683756
      0.672577     0.661397     0.650218     0.639039     0.627859     0.616680     0.605500     0.594321     0.583141     0.571962
      0.560782     0.549603     0.538424     0.527244     0.516065     0.504885     0.493706     0.482526     0.471347     0.460167
      0.448988     0.437809     0.426629     0.415450     0.404270     0.393091     0.381911     0.370732     0.359552     0.348373
      0.337193     0.326014     0.314835     0.303655     0.292476     0.281296     0.270117     0.258937     0.247758     0.236578
      0.225399     0.214220     0.203040
 NY phased data points follow
   1.68753E-08  1.76241E-08  1.74159E-08  1.53125E-08  1.26235E-08  1.09799E-08  9.86181E-09  9.35956E-09  8.89740E-09  9.08723E-09
   9.12582E-09  9.58304E-09  9.79772E-09  9.53922E-09  1.00314E-08  1.05743E-08  1.04268E-08  9.31023E-09  9.39657E-09  8.80442E-09
   8.51856E-09  7.90654E-09  7.67854E-09  7.19741E-09  8.14121E-09  7.90682E-09  8.70036E-09  8.63046E-09  7.54044E-09  7.16645E-09
   7.59795E-09  7.36083E-09  8.86161E-09  9.26506E-09  9.54985E-09  8.07744E-09  7.18399E-09  5.40384E-09  5.09864E-09  3.49638E-09
   3.94134E-09  3.72660E-09  4.18580E-09  4.00904E-09  3.48446E-09  3.19126E-09  3.53729E-09  3.11196E-09  3.19285E-09  3.15365E-09
   3.61243E-09  3.80448E-09  4.45161E-09  4.93136E-09  4.54110E-09  4.48666E-09  4.28469E-09  4.58895E-09  5.08977E-09  5.35156E-09
   6.30572E-09  7.04988E-09  7.75487E-09  9.18527E-09  1.05696E-08  1.14765E-08  1.02963E-08  9.01972E-09  6.74419E-09  5.49932E-09
   5.15989E-09  4.86578E-09  4.37587E-09  4.02445E-09  5.01985E-09  4.29378E-09  5.11217E-09  6.04669E-09  6.70374E-09  8.77326E-09
   1.24824E-08  1.43900E-08  1.45676E-08  1.34728E-08  1.11672E-08  9.37325E-09  8.13514E-09  7.05336E-09  6.69025E-09  5.90381E-09
   6.30809E-09  5.55064E-09  4.70801E-09  4.71678E-09  4.14294E-09  3.50586E-09  3.47272E-09  2.91298E-09  3.16113E-09  3.02886E-09
   2.45831E-09  3.00979E-09  2.81229E-09  3.69356E-09  3.33073E-09  3.73260E-09  2.90007E-09  2.74686E-09  2.94007E-09  2.32756E-09
   1.78661E-09  1.94496E-09  1.04548E-09  9.69833E-10  2.14055E-09  2.64516E-09  2.71749E-09  2.58096E-09  2.83165E-09  2.32323E-09
   2.50401E-09  2.97676E-09  2.18899E-09  2.12376E-09  2.02734E-09  1.57276E-09  1.08720E-09  1.14912E-09  9.58296E-10  2.22604E-09
   2.35824E-09  2.38363E-09  2.34826E-09  2.49410E-09  2.54368E-09  3.15523E-09  2.99150E-09  2.59361E-09  2.93326E-09  2.84200E-09
   3.79735E-09  4.70875E-09  5.60954E-09  5.94588E-09  4.75587E-09  5.24348E-09  5.46129E-09  6.46880E-09  6.18156E-09  6.56026E-09
   6.40728E-09  5.90396E-09  6.73997E-09  6.68361E-09  6.25152E-09  6.39500E-09  6.82029E-09  7.11558E-09  6.74251E-09  7.10637E-09
   7.15990E-09  7.27357E-09  7.82544E-09  8.16984E-09  8.22118E-09  8.19608E-09  8.96953E-09  9.08188E-09  1.04293E-08  1.11762E-08
   1.23694E-08  1.60083E-08  1.88169E-08  2.07085E-08  2.02695E-08  1.73860E-08  1.44927E-08  1.28298E-08  1.06093E-08  1.01095E-08
   8.33018E-09  7.62570E-09  6.79311E-09  5.76853E-09  5.19199E-09  4.05238E-09  3.09614E-09  2.05773E-09  1.23038E-09  1.97738E-10
  -8.38017E-10 -1.94520E-09 -3.95156E-09 -5.20283E-09 -6.57891E-09 -7.82571E-09 -9.82060E-09 -1.17729E-08 -1.37285E-08 -1.55959E-08
  -1.77868E-08 -2.00559E-08 -2.14865E-08 -2.24328E-08 -2.39668E-08 -2.44236E-08 -2.49050E-08 -2.47415E-08 -2.44176E-08 -2.28589E-08
  -2.21251E-08 -2.00195E-08 -1.79202E-08 -1.58035E-08 -1.33883E-08 -1.12244E-08 -8.33883E-09 -6.44230E-09 -4.54440E-09 -2.56439E-09
  -1.49019E-09 -4.05730E-10 -4.14489E-10 -6.64616E-10  2.85600E-10 -7.36555E-10 -9.74398E-10 -1.79880E-09 -1.39767E-09 -1.34377E-09
  -9.38672E-10 -1.26087E-09 -9.12604E-10 -1.93315E-10 -1.96914E-10 -7.99632E-10 -9.08790E-10 -9.79849E-10 -8.87536E-10 -1.14970E-09
  -1.07319E-09 -6.69004E-10 -7.36398E-10  6.26682E-11 -1.54498E-10 -2.58066E-10  3.08691E-11 -2.96942E-10  1.00454E-12 -5.24508E-10
  -7.51568E-10 -9.54526E-10 -4.18303E-10 -3.17489E-10 -2.12120E-10 -2.50104E-10  6.58707E-10  7.71291E-10  6.38545E-10  5.67053E-10
   9.72886E-10  2.21404E-10  2.40703E-10  6.32006E-11 -2.91726E-10 -1.07404E-09 -4.47040E-10 -4.91054E-10 -7.69606E-10 -3.07783E-10
  -3.11252E-10  2.13057E-10  2.70999E-10 -1.91245E-10  1.08324E-09  5.97988E-10  1.01480E-09  1.06030E-09  5.74069E-10  6.06691E-10
   1.00791E-09  9.84102E-10  8.34383E-10  3.15865E-10  4.95202E-10  9.29231E-11  9.38138E-10  1.56586E-10  2.98557E-10 -2.15121E-10
   1.21765E-10  5.58734E-10  3.38425E-10  5.76421E-10  3.78381E-11 -9.84694E-12  2.61823E-10  2.63800E-10 -5.59645E-11  3.41242E-10
   4.90770E-10 -2.32905E-10 -2.48535E-10 -3.04422E-10 -1.23539E-10 -8.76662E-11 -1.63722E-10 -4.74516E-10  4.77566E-10 -4.97357E-10
  -6.57141E-10 -6.19821E-10 -5.79697E-10 -4.71672E-10  5.48257E-11 -6.19367E-10 -4.70306E-10 -3.43415E-10 -3.37785E-10 -9.01044E-10
  -4.17921E-10 -2.86996E-10 -2.39685E-10 -2.88108E-10 -6.13421E-10 -5.23408E-10 -7.15149E-10 -3.51094E-10 -6.63910E-10 -6.99336E-10
  -1.01164E-09 -5.68150E-10 -6.59586E-11 -5.56993E-10 -3.86871E-10 -4.74579E-10 -2.36234E-10 -4.31619E-10 -5.46661E-10 -1.00742E-09
  -6.91486E-10 -9.02715E-10 -3.89416E-10 -8.21603E-10 -5.52066E-10 -5.46049E-10 -8.06443E-10 -6.00181E-10 -9.30590E-10 -1.17517E-09
  -5.89841E-10 -9.14511E-10 -9.86455E-10 -3.86687E-10 -8.06367E-10 -1.16742E-09 -6.65387E-10 -1.00059E-09 -9.97617E-10 -6.86322E-10
  -7.79178E-10 -6.42717E-10 -5.70395E-10
 NY points of the fit to the data follow
   1.83079E-08  1.67095E-08  1.53263E-08  1.44470E-08  1.37293E-08  1.25264E-08  1.09891E-08  9.66249E-09  8.84881E-09  8.69920E-09
   8.82061E-09  9.04388E-09  9.46614E-09  9.84767E-09  1.02599E-08  1.04640E-08  1.02932E-08  9.79797E-09  9.03342E-09  8.12046E-09
   7.62590E-09  7.66789E-09  7.72046E-09  7.81874E-09  8.07984E-09  8.28630E-09  8.39422E-09  8.31585E-09  8.14424E-09  8.18362E-09
   8.31064E-09  8.25018E-09  7.99895E-09  7.38956E-09  6.52556E-09  5.96954E-09  6.00423E-09  6.04408E-09  5.95470E-09  5.68246E-09
   5.25057E-09  4.72440E-09  4.07029E-09  3.58488E-09  3.45083E-09  3.35012E-09  3.22050E-09  3.18966E-09  3.21863E-09  3.27564E-09
   3.36046E-09  3.46008E-09  3.59370E-09  3.76041E-09  4.02155E-09  4.45788E-09  4.97291E-09  5.51888E-09  6.18713E-09  6.85715E-09
   7.41716E-09  7.93979E-09  8.43196E-09  8.71667E-09  8.80516E-09  8.64426E-09  8.25603E-09  7.77935E-09  7.12089E-09  6.45270E-09
   6.03762E-09  5.66747E-09  5.29660E-09  5.15378E-09  5.24337E-09  5.50687E-09  6.08679E-09  7.31835E-09  8.71299E-09  1.00380E-08
   1.12077E-08  1.20736E-08  1.25168E-08  1.25802E-08  1.21326E-08  1.09916E-08  9.35092E-09  7.49001E-09  5.73114E-09  5.00582E-09
   4.68065E-09  4.49410E-09  4.34478E-09  4.13932E-09  3.95845E-09  3.83983E-09  3.66657E-09  3.50034E-09  3.40622E-09  3.32052E-09
   3.24567E-09  3.19882E-09  3.17031E-09  3.15431E-09  3.14747E-09  3.14761E-09  3.15332E-09  3.16367E-09  3.17797E-09  3.19567E-09
   3.21630E-09  3.23953E-09  3.26515E-09  3.29290E-09  3.32244E-09  3.35347E-09  3.38563E-09  3.41862E-09  3.45219E-09  3.48608E-09
   3.52007E-09  3.55391E-09  3.58739E-09  3.62027E-09  3.65233E-09  3.68337E-09  3.71318E-09  3.74155E-09  3.76829E-09  3.79320E-09
   3.81608E-09  3.83674E-09  3.85500E-09  3.87066E-09  3.88354E-09  3.89345E-09  3.90023E-09  3.90367E-09  3.90363E-09  3.89992E-09
   3.89236E-09  3.88079E-09  3.86503E-09  3.84488E-09  3.82019E-09  3.79078E-09  3.75652E-09  3.71726E-09  3.67288E-09  3.62326E-09
   3.56835E-09  3.50809E-09  3.44249E-09  3.37163E-09  3.29564E-09  3.21479E-09  3.12952E-09  3.04052E-09  2.94886E-09  2.85619E-09
   2.76516E-09  2.68015E-09  2.60883E-09  2.56571E-09  2.58215E-09  2.74144E-09  3.36523E-09  5.57360E-09  8.83600E-09  1.22269E-08
   1.54153E-08  1.82611E-08  2.04766E-08  2.15969E-08  2.11345E-08  1.87658E-08  1.44426E-08  8.64604E-09  3.03174E-09  2.83665E-10
  -7.63129E-10 -1.38939E-09 -1.85782E-09 -2.24947E-09 -2.59709E-09 -2.91616E-09 -3.21471E-09 -3.49712E-09 -3.76579E-09 -4.02206E-09
  -4.26654E-09 -4.49945E-09 -4.72070E-09 -4.93001E-09 -5.12699E-09 -5.31115E-09 -5.48211E-09 -5.64011E-09 -5.78545E-09 -5.91841E-09
  -6.03927E-09 -6.14825E-09 -6.24560E-09 -6.33154E-09 -6.40627E-09 -6.47000E-09 -6.52292E-09 -6.56525E-09 -6.59715E-09 -6.61882E-09
  -6.63045E-09 -6.63220E-09 -6.62428E-09 -6.60685E-09 -6.58009E-09 -6.54419E-09 -6.49930E-09 -6.44561E-09 -6.38329E-09 -6.31252E-09
  -6.23346E-09 -6.14628E-09 -6.05117E-09 -5.94828E-09 -5.83789E-09 -5.72045E-09 -5.59641E-09 -5.46627E-09 -5.33048E-09 -5.18954E-09
  -5.04390E-09 -4.89404E-09 -4.74044E-09 -4.58356E-09 -4.42386E-09 -4.26184E-09 -4.09796E-09 -3.93269E-09 -3.76648E-09 -3.59985E-09
  -3.43325E-09 -3.26712E-09 -3.10198E-09 -2.93828E-09 -2.77647E-09 -2.61705E-09 -2.46048E-09 -2.30723E-09 -2.15778E-09 -2.01260E-09
  -1.87213E-09 -1.73690E-09 -1.60708E-09 -1.48260E-09 -1.36337E-09 -1.24927E-09 -1.14018E-09 -1.03602E-09 -9.36655E-10 -8.41989E-10
  -7.51918E-10 -6.66317E-10 -5.85098E-10 -5.08135E-10 -4.35336E-10 -3.66585E-10 -3.01750E-10 -2.40773E-10 -1.83520E-10 -1.29871E-10
  -7.97206E-11 -3.29828E-11  1.04800E-11  5.07630E-11  8.79556E-11  1.22212E-10  1.53590E-10  1.82228E-10  2.08220E-10  2.31691E-10
   2.52716E-10  2.71368E-10  2.87718E-10  3.01839E-10  3.13794E-10  3.23661E-10  3.31503E-10  3.37397E-10  3.41412E-10  3.43613E-10
   3.44076E-10  3.42869E-10  3.40062E-10  3.35726E-10  3.29930E-10  3.22747E-10  3.14245E-10  3.04495E-10  2.93563E-10  2.81530E-10
   2.68453E-10  2.54413E-10  2.39477E-10  2.23708E-10  2.07186E-10  1.89978E-10  1.72152E-10  1.53782E-10  1.34905E-10  1.15552E-10
   9.57516E-11  7.55321E-11  5.49218E-11  3.39494E-11  1.26431E-11 -8.96883E-12 -3.08575E-11 -5.29950E-11 -7.53526E-11 -9.79021E-11
  -1.20615E-10 -1.43462E-10 -1.66416E-10 -1.89448E-10 -2.12530E-10 -2.35633E-10 -2.58728E-10 -2.81787E-10 -3.04783E-10 -3.27686E-10
  -3.50468E-10 -3.73101E-10 -3.95556E-10 -4.17804E-10 -4.39819E-10 -4.61574E-10 -4.83071E-10 -5.04321E-10 -5.25336E-10 -5.46126E-10
  -5.66704E-10 -5.87080E-10 -6.07266E-10 -6.27272E-10 -6.47111E-10 -6.66793E-10 -6.86331E-10 -7.05735E-10 -7.25016E-10 -7.44185E-10
  -7.63254E-10 -7.82234E-10 -8.01135E-10 -8.19971E-10 -8.38751E-10 -8.57488E-10 -8.76192E-10 -8.94874E-10 -9.13545E-10 -9.32219E-10
  -9.50905E-10 -9.69615E-10 -9.88358E-10
 NY background values follow
     9.056E-10    9.083E-10    9.111E-10    9.139E-10    9.166E-10    9.194E-10    9.222E-10    9.250E-10    9.278E-10    9.305E-10
     9.333E-10    9.360E-10    9.388E-10    9.415E-10    9.442E-10    9.468E-10    9.494E-10    9.520E-10    9.546E-10    9.571E-10
     9.596E-10    9.620E-10    9.644E-10    9.668E-10    9.691E-10    9.713E-10    9.735E-10    9.756E-10    9.776E-10    9.796E-10
     9.815E-10    9.834E-10    9.853E-10    9.872E-10    9.892E-10    9.912E-10    9.932E-10    9.954E-10    9.977E-10    1.000E-09
     1.003E-09    1.005E-09    1.008E-09    1.011E-09    1.015E-09    1.018E-09    1.022E-09    1.026E-09    1.031E-09    1.036E-09
     1.041E-09    1.046E-09    1.052E-09    1.059E-09    1.065E-09    1.072E-09    1.080E-09    1.088E-09    1.097E-09    1.106E-09
     1.116E-09    1.126E-09    1.136E-09    1.147E-09    1.159E-09    1.170E-09    1.183E-09    1.196E-09    1.209E-09    1.223E-09
     1.237E-09    1.252E-09    1.267E-09    1.282E-09    1.299E-09    1.315E-09    1.332E-09    1.349E-09    1.367E-09    1.386E-09
     1.404E-09    1.424E-09    1.443E-09    1.463E-09    1.484E-09    1.505E-09    1.526E-09    1.548E-09    1.571E-09    1.593E-09
     1.617E-09    1.641E-09    1.666E-09    1.691E-09    1.716E-09    1.743E-09    1.770E-09    1.797E-09    1.826E-09    1.855E-09
     1.884E-09    1.915E-09    1.946E-09    1.978E-09    2.011E-09    2.044E-09    2.078E-09    2.113E-09    2.149E-09    2.186E-09
     2.224E-09    2.262E-09    2.301E-09    2.342E-09    2.382E-09    2.424E-09    2.465E-09    2.507E-09    2.548E-09    2.589E-09
     2.630E-09    2.670E-09    2.709E-09    2.747E-09    2.784E-09    2.820E-09    2.854E-09    2.886E-09    2.916E-09    2.944E-09
     2.970E-09    2.993E-09    3.014E-09    3.032E-09    3.046E-09    3.058E-09    3.066E-09    3.070E-09    3.071E-09    3.068E-09
     3.061E-09    3.049E-09    3.033E-09    3.012E-09    2.986E-09    2.955E-09    2.918E-09    2.876E-09    2.828E-09    2.774E-09
     2.714E-09    2.648E-09    2.575E-09    2.495E-09    2.408E-09    2.314E-09    2.212E-09    2.103E-09    1.986E-09    1.861E-09
     1.728E-09    1.586E-09    1.435E-09    1.276E-09    1.107E-09    9.293E-10    7.419E-10    5.448E-10    3.379E-10    1.218E-10
    -1.027E-10   -3.348E-10   -5.737E-10   -8.187E-10   -1.069E-09   -1.323E-09   -1.582E-09   -1.843E-09   -2.106E-09   -2.370E-09
    -2.635E-09   -2.899E-09   -3.162E-09   -3.424E-09   -3.682E-09   -3.937E-09   -4.188E-09   -4.433E-09   -4.673E-09   -4.906E-09
    -5.131E-09   -5.348E-09   -5.555E-09   -5.753E-09   -5.940E-09   -6.116E-09   -6.280E-09   -6.431E-09   -6.570E-09   -6.698E-09
    -6.814E-09   -6.919E-09   -7.013E-09   -7.095E-09   -7.167E-09   -7.227E-09   -7.278E-09   -7.318E-09   -7.347E-09   -7.367E-09
    -7.376E-09   -7.376E-09   -7.366E-09   -7.347E-09   -7.319E-09   -7.282E-09   -7.235E-09   -7.180E-09   -7.117E-09   -7.045E-09
    -6.965E-09   -6.876E-09   -6.780E-09   -6.676E-09   -6.565E-09   -6.446E-09   -6.321E-09   -6.190E-09   -6.054E-09   -5.912E-09
    -5.766E-09   -5.615E-09   -5.461E-09   -5.303E-09   -5.143E-09   -4.980E-09   -4.815E-09   -4.650E-09   -4.483E-09   -4.316E-09
    -4.148E-09   -3.982E-09   -3.816E-09   -3.652E-09   -3.489E-09   -3.329E-09   -3.172E-09   -3.018E-09   -2.868E-09   -2.723E-09
    -2.582E-09   -2.446E-09   -2.316E-09   -2.191E-09   -2.071E-09   -1.957E-09   -1.847E-09   -1.743E-09   -1.643E-09   -1.548E-09
    -1.457E-09   -1.371E-09   -1.290E-09   -1.212E-09   -1.139E-09   -1.070E-09   -1.005E-09   -9.432E-10   -8.855E-10   -8.315E-10
    -7.810E-10   -7.339E-10   -6.900E-10   -6.494E-10   -6.118E-10   -5.772E-10   -5.455E-10   -5.165E-10   -4.901E-10   -4.663E-10
    -4.449E-10   -4.259E-10   -4.092E-10   -3.948E-10   -3.825E-10   -3.723E-10   -3.641E-10   -3.578E-10   -3.535E-10   -3.510E-10
    -3.502E-10   -3.510E-10   -3.535E-10   -3.575E-10   -3.630E-10   -3.699E-10   -3.780E-10   -3.875E-10   -3.981E-10   -4.098E-10
    -4.225E-10   -4.363E-10   -4.509E-10   -4.663E-10   -4.825E-10   -4.994E-10   -5.169E-10   -5.350E-10   -5.536E-10   -5.726E-10
    -5.921E-10   -6.120E-10   -6.323E-10   -6.529E-10   -6.739E-10   -6.952E-10   -7.168E-10   -7.386E-10   -7.607E-10   -7.829E-10
    -8.053E-10   -8.278E-10   -8.505E-10   -8.732E-10   -8.960E-10   -9.188E-10   -9.415E-10   -9.643E-10   -9.870E-10   -1.010E-09
    -1.032E-09   -1.054E-09   -1.076E-09   -1.098E-09   -1.120E-09   -1.142E-09   -1.163E-09   -1.184E-09   -1.204E-09   -1.225E-09
    -1.245E-09   -1.265E-09   -1.285E-09   -1.305E-09   -1.324E-09   -1.344E-09   -1.363E-09   -1.382E-09   -1.401E-09   -1.420E-09
    -1.438E-09   -1.457E-09   -1.476E-09   -1.494E-09   -1.513E-09   -1.531E-09   -1.549E-09   -1.568E-09   -1.586E-09   -1.604E-09
    -1.623E-09   -1.641E-09   -1.659E-09
 Cr       Conc. = 2.25E-10
   1.80725E-09  1.59382E-09  1.32090E-09  1.08935E-09  1.02380E-09  9.99213E-10  9.87445E-10  9.81283E-10  9.78075E-10  9.76608E-10
   9.76261E-10  9.76672E-10  9.77625E-10  9.78977E-10  9.80641E-10  9.82554E-10  9.84679E-10  9.86994E-10  9.89490E-10  9.92170E-10
   9.95054E-10  9.98177E-10  1.00160E-09  1.00543E-09  1.00981E-09  1.01499E-09  1.02143E-09  1.02991E-09  1.04212E-09  1.06218E-09
   1.10382E-09  1.23795E-09  1.46662E-09  1.71603E-09  1.95577E-09  2.17642E-09  2.36192E-09  2.48257E-09  2.50380E-09  2.39926E-09
   2.15930E-09  1.80336E-09  1.41969E-09  1.19762E-09  1.13428E-09  1.10784E-09  1.09484E-09  1.08832E-09  1.08547E-09  1.08498E-09
   1.08616E-09  1.08859E-09  1.09205E-09  1.09638E-09  1.10149E-09  1.10731E-09  1.11380E-09  1.12094E-09  1.12869E-09  1.13702E-09
   1.14593E-09  1.15538E-09  1.16537E-09  1.17589E-09  1.18692E-09  1.19846E-09  1.21050E-09  1.22303E-09  1.23606E-09  1.24957E-09
   1.26356E-09  1.27803E-09  1.29297E-09  1.30838E-09  1.32426E-09  1.34061E-09  1.35742E-09  1.37468E-09  1.39241E-09  1.41059E-09
   1.42922E-09  1.44831E-09  1.46783E-09  1.48782E-09  1.50824E-09  1.52911E-09  1.55046E-09  1.57228E-09  1.59461E-09  1.61746E-09
   1.64084E-09  1.66477E-09  1.68927E-09  1.71436E-09  1.74004E-09  1.76634E-09  1.79328E-09  1.82087E-09  1.84913E-09  1.87807E-09
   1.90771E-09  1.93808E-09  1.96917E-09  2.00102E-09  2.03364E-09  2.06704E-09  2.10125E-09  2.13628E-09  2.17214E-09  2.20885E-09
   2.24644E-09  2.28491E-09  2.32428E-09  2.36444E-09  2.40522E-09  2.44643E-09  2.48789E-09  2.52942E-09  2.57083E-09  2.61194E-09
   2.65258E-09  2.69255E-09  2.73167E-09  2.76976E-09  2.80664E-09  2.84213E-09  2.87604E-09  2.90820E-09  2.93841E-09  2.96649E-09
   2.99227E-09  3.01556E-09  3.03618E-09  3.05394E-09  3.06866E-09  3.08017E-09  3.08827E-09  3.09279E-09  3.09354E-09  3.09035E-09
   3.08301E-09  3.07134E-09  3.05514E-09  3.03419E-09  3.00830E-09  2.97724E-09  2.94082E-09  2.89884E-09  2.85108E-09  2.79733E-09
   2.73741E-09  2.67111E-09  2.59821E-09  2.51853E-09  2.43185E-09  2.33800E-09  2.23677E-09  2.12797E-09  2.01145E-09  1.88702E-09
   1.75457E-09  1.61400E-09  1.46533E-09  1.30877E-09  1.14511E-09  9.77064E-10  8.17815E-10  6.92336E-10  5.70684E-10  4.37931E-10
   2.91089E-10  1.27298E-10 -6.13827E-11 -2.86132E-10 -5.56909E-10 -8.78475E-10 -1.24792E-09 -1.64546E-09 -2.01771E-09 -2.31231E-09
  -2.58927E-09 -2.86014E-09 -3.12734E-09 -3.39128E-09 -3.65167E-09 -3.90804E-09 -4.15973E-09 -4.40605E-09 -4.64625E-09 -4.87959E-09
  -5.10530E-09 -5.32261E-09 -5.53074E-09 -5.72887E-09 -5.91625E-09 -6.09208E-09 -6.25576E-09 -6.40733E-09 -6.54699E-09 -6.67488E-09
  -6.79118E-09 -6.89606E-09 -6.98969E-09 -7.07223E-09 -7.14387E-09 -7.20475E-09 -7.25505E-09 -7.29495E-09 -7.32460E-09 -7.34418E-09
  -7.35386E-09 -7.35379E-09 -7.34414E-09 -7.32510E-09 -7.29682E-09 -7.25948E-09 -7.21323E-09 -7.15824E-09 -7.09470E-09 -7.02275E-09
  -6.94257E-09 -6.85432E-09 -6.75818E-09 -6.65431E-09 -6.54298E-09 -6.42463E-09 -6.29973E-09 -6.16874E-09 -6.03214E-09 -5.89041E-09
  -5.74401E-09 -5.59341E-09 -5.43909E-09 -5.28152E-09 -5.12114E-09 -4.95847E-09 -4.79395E-09 -4.62806E-09 -4.46124E-09 -4.29402E-09
  -4.12684E-09 -3.96015E-09 -3.79445E-09 -3.63021E-09 -3.46787E-09 -3.30793E-09 -3.15084E-09 -2.99709E-09 -2.84715E-09 -2.70149E-09
  -2.56055E-09 -2.42485E-09 -2.29457E-09 -2.16964E-09 -2.04996E-09 -1.93543E-09 -1.82591E-09 -1.72132E-09 -1.62153E-09 -1.52645E-09
  -1.43597E-09 -1.34996E-09 -1.26835E-09 -1.19099E-09 -1.11780E-09 -1.04866E-09 -9.83441E-10 -9.22085E-10 -8.64457E-10 -8.10436E-10
  -7.59918E-10 -7.12816E-10 -6.68992E-10 -6.28350E-10 -5.90802E-10 -5.56194E-10 -5.24466E-10 -4.95481E-10 -4.69144E-10 -4.45330E-10
  -4.23965E-10 -4.04975E-10 -3.88290E-10 -3.73834E-10 -3.61548E-10 -3.51351E-10 -3.43179E-10 -3.36958E-10 -3.32619E-10 -3.30094E-10
  -3.29309E-10 -3.30196E-10 -3.32683E-10 -3.36700E-10 -3.42179E-10 -3.49046E-10 -3.57234E-10 -3.66670E-10 -3.77290E-10 -3.89010E-10
  -4.01777E-10 -4.15507E-10 -4.30133E-10 -4.45593E-10 -4.61807E-10 -4.78707E-10 -4.96227E-10 -5.14291E-10 -5.32862E-10 -5.51909E-10
  -5.71404E-10 -5.91319E-10 -6.11625E-10 -6.32293E-10 -6.53295E-10 -6.74604E-10 -6.96189E-10 -7.18023E-10 -7.40077E-10 -7.62323E-10
  -7.84732E-10 -8.07276E-10 -8.29926E-10 -8.52655E-10 -8.75432E-10 -8.98231E-10 -9.21023E-10 -9.43778E-10 -9.66468E-10 -9.89067E-10
  -1.01154E-09 -1.03387E-09 -1.05602E-09 -1.07796E-09 -1.09967E-09 -1.12111E-09 -1.14230E-09 -1.16324E-09 -1.18395E-09 -1.20443E-09
  -1.22470E-09 -1.24476E-09 -1.26463E-09 -1.28433E-09 -1.30385E-09 -1.32322E-09 -1.34244E-09 -1.36153E-09 -1.38049E-09 -1.39934E-09
  -1.41809E-09 -1.43674E-09 -1.45532E-09 -1.47384E-09 -1.49229E-09 -1.51070E-09 -1.52908E-09 -1.54743E-09 -1.56578E-09 -1.58412E-09
  -1.60247E-09 -1.62085E-09 -1.63926E-09
 GABA     Conc. = 8.13E-10
   9.80742E-10  9.84399E-10  9.88139E-10  9.91966E-10  9.95887E-10  9.99908E-10  1.00403E-09  1.00828E-09  1.01266E-09  1.01719E-09
   1.02189E-09  1.02679E-09  1.03193E-09  1.03733E-09  1.04308E-09  1.04923E-09  1.05581E-09  1.06296E-09  1.07082E-09  1.07950E-09
   1.08928E-09  1.10049E-09  1.11359E-09  1.12933E-09  1.14879E-09  1.17372E-09  1.20737E-09  1.25614E-09  1.33612E-09  1.48515E-09
   1.63702E-09  1.79505E-09  2.05636E-09  2.33791E-09  2.56961E-09  2.79048E-09  2.96813E-09  3.06190E-09  3.04824E-09  2.93294E-09
   2.76536E-09  2.59555E-09  2.29442E-09  1.96912E-09  1.81311E-09  1.64693E-09  1.44731E-09  1.34974E-09  1.30071E-09  1.27415E-09
   1.26041E-09  1.25497E-09  1.25563E-09  1.26132E-09  1.27155E-09  1.28636E-09  1.30644E-09  1.33312E-09  1.36893E-09  1.41872E-09
   1.49313E-09  1.62169E-09  1.80036E-09  1.97525E-09  2.20106E-09  2.48283E-09  2.72960E-09  2.92443E-09  3.06642E-09  3.12636E-09
   3.08119E-09  2.92959E-09  2.70989E-09  2.49526E-09  2.27007E-09  1.98872E-09  1.82566E-09  1.76990E-09  1.68642E-09  1.64452E-09
   1.67630E-09  1.71838E-09  1.78934E-09  1.92265E-09  2.05702E-09  2.19146E-09  2.35824E-09  2.52390E-09  2.66627E-09  2.77154E-09
   2.83205E-09  2.87593E-09  2.88283E-09  2.79245E-09  2.69880E-09  2.64951E-09  2.53306E-09  2.41304E-09  2.35728E-09  2.30391E-09
   2.25684E-09  2.23424E-09  2.22693E-09  2.22957E-09  2.23916E-09  2.25388E-09  2.27268E-09  2.29484E-09  2.31983E-09  2.34725E-09
   2.37674E-09  2.40805E-09  2.44109E-09  2.47564E-09  2.51145E-09  2.54825E-09  2.58574E-09  2.62366E-09  2.66179E-09  2.69990E-09
   2.73779E-09  2.77526E-09  2.81208E-09  2.84805E-09  2.88296E-09  2.91663E-09  2.94885E-09  2.97943E-09  3.00817E-09  3.03489E-09
   3.05939E-09  3.08149E-09  3.10099E-09  3.11771E-09  3.13146E-09  3.14205E-09  3.14930E-09  3.15302E-09  3.15303E-09  3.14914E-09
   3.14116E-09  3.12890E-09  3.11214E-09  3.09069E-09  3.06433E-09  3.03286E-09  2.99608E-09  2.95378E-09  2.90577E-09  2.85183E-09
   2.79178E-09  2.72541E-09  2.65254E-09  2.57298E-09  2.48656E-09  2.39310E-09  2.29246E-09  2.18451E-09  2.06914E-09  1.94632E-09
   1.81611E-09  1.67874E-09  1.53479E-09  1.38557E-09  1.23440E-09  1.09145E-09  1.00335E-09  1.06413E-09  1.16562E-09  1.25137E-09
   1.30825E-09  1.32405E-09  1.26818E-09  1.09811E-09  7.75464E-10  2.80597E-10 -3.78654E-10 -1.13435E-09 -1.79746E-09 -2.17353E-09
  -2.48315E-09 -2.77132E-09 -3.04914E-09 -3.32020E-09 -3.58569E-09 -3.84585E-09 -4.10047E-09 -4.34912E-09 -4.59121E-09 -4.82611E-09
  -5.05313E-09 -5.27157E-09 -5.48066E-09 -5.67963E-09 -5.86775E-09 -6.04424E-09 -6.20850E-09 -6.36061E-09 -6.50074E-09 -6.62907E-09
  -6.74577E-09 -6.85102E-09 -6.94499E-09 -7.02785E-09 -7.09978E-09 -7.16093E-09 -7.21150E-09 -7.25164E-09 -7.28152E-09 -7.30131E-09
  -7.31119E-09 -7.31131E-09 -7.30186E-09 -7.28299E-09 -7.25488E-09 -7.21769E-09 -7.17160E-09 -7.11676E-09 -7.05335E-09 -6.98154E-09
  -6.90149E-09 -6.81337E-09 -6.71736E-09 -6.61361E-09 -6.50239E-09 -6.38414E-09 -6.25935E-09 -6.12846E-09 -5.99196E-09 -5.85033E-09
