 LCModel (Version 6.3-1R) Copyright: S.W. Provencher.          Ref.: Magn. Reson. Med. 30:672-679 (1993).                
 onepulse 26x23_ftSpec_smooth_lcm
 26 lines in following concentration table = NCONC+1
    Conc.  %SD /Cr+PCr  Metabolite                                         
    0.000 999%   0.000 Ala                                                 
    0.000 999%   0.000 Asp                                                 
    0.000 999%   0.000 Cr                                                  
 1.74E-09  97%  15.982 GABA                                                
 1.45E-09  82%  13.316 Glc                                                 
 6.74E-10 176%   6.182 Gln                                                 
 5.21E-10 291%   4.778 Glu                                                 
    0.000 999%   0.000 Glyc                                                
    0.000 999%   0.000 GPC                                                 
    0.000 999%   0.000 GSH                                                 
 9.17E-10  69%   8.415 Ins                                                 
    0.000 999%   0.000 Lac                                                 
    0.000 999%   0.000 NAAG                                                
 1.08E-09  43%   9.942 NAA                                                 
 1.87E-10  65%   1.713 PCh                                                 
 1.09E-10 576%   1.000 PCr                                                 
    0.000 999%   0.000 PE                                                  
 1.07E-10 248%   0.977 Scyllo                                              
 2.78E-09  39%  25.474 Ser                                                 
    0.000 999%   0.000 Tau                                                 
 1.87E-10  65%   1.713 GPC+PCh                                             
 1.08E-09  43%   9.942 NAA+NAAG                                            
 9.17E-10  69%   8.415 Ins+Glyc                                            
 1.09E-10 576%   1.000 Cr+PCr                                              
 1.19E-09 116%  10.960 Glu+Gln                                             
   6 lines in following misc. output table
  FWHM = 0.089 ppm    S/N =   2                                            
  Data shift = 0.335 ppm                                                   
  Ph: -15 deg      -5.5 deg/ppm                                            
  alphaB,S = 1.7E-01,   8.0E+01                                            
   16 spline knots.   Ns = 5(1)                                            
  (12) 2 infls.   ( 7) 1 extrs.                                            
  363 points on ppm-axis = NY
      4.250000     4.238821     4.227641     4.216462     4.205282     4.194103     4.182923     4.171744     4.160564     4.149385
      4.138206     4.127026     4.115847     4.104667     4.093488     4.082308     4.071129     4.059949     4.048770     4.037591
      4.026411     4.015232     4.004052     3.992873     3.981693     3.970514     3.959334     3.948155     3.936975     3.925796
      3.914617     3.903437     3.892258     3.881078     3.869899     3.858719     3.847540     3.836360     3.825181     3.814002
      3.802822     3.791643     3.780463     3.769284     3.758104     3.746925     3.735745     3.724566     3.713387     3.702207
      3.691028     3.679848     3.668669     3.657489     3.646310     3.635130     3.623951     3.612772     3.601592     3.590413
      3.579233     3.568054     3.556874     3.545695     3.534515     3.523336     3.512156     3.500977     3.489798     3.478618
      3.467439     3.456259     3.445080     3.433900     3.422721     3.411541     3.400362     3.389183     3.378003     3.366824
      3.355644     3.344465     3.333285     3.322106     3.310926     3.299747     3.288568     3.277388     3.266209     3.255029
      3.243850     3.232670     3.221491     3.210311     3.199132     3.187953     3.176773     3.165594     3.154414     3.143235
      3.132055     3.120876     3.109696     3.098517     3.087337     3.076158     3.064979     3.053799     3.042620     3.031440
      3.020261     3.009081     2.997902     2.986722     2.975543     2.964364     2.953184     2.942005     2.930825     2.919646
      2.908466     2.897287     2.886107     2.874928     2.863749     2.852569     2.841390     2.830210     2.819031     2.807851
      2.796672     2.785492     2.774313     2.763134     2.751954     2.740775     2.729595     2.718416     2.707236     2.696057
      2.684877     2.673698     2.662519     2.651339     2.640160     2.628980     2.617801     2.606621     2.595442     2.584262
      2.573083     2.561903     2.550724     2.539545     2.528365     2.517186     2.506006     2.494827     2.483647     2.472468
      2.461288     2.450109     2.438930     2.427750     2.416571     2.405391     2.394212     2.383032     2.371853     2.360673
      2.349494     2.338315     2.327135     2.315956     2.304776     2.293597     2.282417     2.271238     2.260058     2.248879
      2.237700     2.226520     2.215341     2.204161     2.192982     2.181802     2.170623     2.159443     2.148264     2.137084
      2.125905     2.114726     2.103546     2.092367     2.081187     2.070008     2.058828     2.047649     2.036469     2.025290
      2.014111     2.002931     1.991752     1.980572     1.969393     1.958213     1.947034     1.935854     1.924675     1.913496
      1.902316     1.891137     1.879957     1.868778     1.857598     1.846419     1.835239     1.824060     1.812881     1.801701
      1.790522     1.779342     1.768163     1.756983     1.745804     1.734624     1.723445     1.712265     1.701086     1.689907
      1.678727     1.667548     1.656368     1.645189     1.634009     1.622830     1.611650     1.600471     1.589292     1.578112
      1.566933     1.555753     1.544574     1.533394     1.522215     1.511035     1.499856     1.488677     1.477497     1.466318
      1.455138     1.443959     1.432779     1.421600     1.410420     1.399241     1.388062     1.376882     1.365703     1.354523
      1.343344     1.332164     1.320985     1.309805     1.298626     1.287446     1.276267     1.265088     1.253908     1.242729
      1.231549     1.220370     1.209190     1.198011     1.186831     1.175652     1.164473     1.153293     1.142114     1.130934
      1.119755     1.108575     1.097396     1.086216     1.075037     1.063858     1.052678     1.041499     1.030319     1.019140
      1.007960     0.996781     0.985601     0.974422     0.963243     0.952063     0.940884     0.929704     0.918525     0.907345
      0.896166     0.884986     0.873807     0.862628     0.851448     0.840269     0.829089     0.817910     0.806730     0.795551
      0.784371     0.773192     0.762012     0.750833     0.739654     0.728474     0.717295     0.706115     0.694936     0.683756
      0.672577     0.661397     0.650218     0.639039     0.627859     0.616680     0.605500     0.594321     0.583141     0.571962
      0.560782     0.549603     0.538424     0.527244     0.516065     0.504885     0.493706     0.482526     0.471347     0.460167
      0.448988     0.437809     0.426629     0.415450     0.404270     0.393091     0.381911     0.370732     0.359552     0.348373
      0.337193     0.326014     0.314835     0.303655     0.292476     0.281296     0.270117     0.258937     0.247758     0.236578
      0.225399     0.214220     0.203040
 NY phased data points follow
   1.92424E-08  2.12154E-08  2.16504E-08  2.14554E-08  1.88942E-08  1.77343E-08  1.58383E-08  1.56860E-08  1.41008E-08  1.44868E-08
   1.36506E-08  1.42481E-08  1.42670E-08  1.42906E-08  1.40383E-08  1.53981E-08  1.51393E-08  1.46732E-08  1.41708E-08  1.39597E-08
   1.31140E-08  1.31122E-08  1.23892E-08  1.21309E-08  1.25236E-08  1.25089E-08  1.26220E-08  1.34976E-08  1.22218E-08  1.18607E-08
   1.18548E-08  1.21134E-08  1.27819E-08  1.35203E-08  1.40562E-08  1.34559E-08  1.26834E-08  1.09698E-08  1.01243E-08  8.67612E-09
   8.32798E-09  8.45593E-09  7.99224E-09  8.40212E-09  7.42113E-09  7.27165E-09  6.96312E-09  6.67941E-09  6.61203E-09  6.33586E-09
   6.18254E-09  6.88397E-09  7.04345E-09  7.73455E-09  7.00908E-09  7.25689E-09  6.70618E-09  7.04067E-09  6.80493E-09  7.51444E-09
   7.80211E-09  8.88789E-09  9.14179E-09  1.11343E-08  1.21800E-08  1.38668E-08  1.33333E-08  1.27986E-08  1.04076E-08  8.96055E-09
   8.26862E-09  7.90362E-09  6.78765E-09  6.71125E-09  7.00233E-09  6.21119E-09  6.38981E-09  7.72096E-09  7.88922E-09  9.77331E-09
   1.28746E-08  1.55191E-08  1.58703E-08  1.57110E-08  1.42044E-08  1.26839E-08  1.12908E-08  1.01140E-08  9.78731E-09  8.96878E-09
   9.05081E-09  8.54727E-09  7.59492E-09  7.49184E-09  6.80961E-09  6.26718E-09  5.80402E-09  5.46613E-09  5.33748E-09  5.16315E-09
   4.65351E-09  5.29680E-09  4.65976E-09  5.50309E-09  5.26631E-09  5.75026E-09  4.70756E-09  4.69920E-09  4.52346E-09  4.18680E-09
   3.55844E-09  3.65393E-09  2.79846E-09  2.47800E-09  3.30450E-09  3.80334E-09  4.04574E-09  3.84314E-09  3.93346E-09  3.41193E-09
   3.61769E-09  4.07875E-09  3.37947E-09  3.36017E-09  3.18294E-09  2.70528E-09  2.20102E-09  2.04019E-09  1.57632E-09  2.89256E-09
   2.96547E-09  2.92989E-09  2.94933E-09  3.16902E-09  3.01571E-09  3.57208E-09  3.38426E-09  3.11712E-09  3.33063E-09  3.17675E-09
   3.78153E-09  4.73405E-09  5.52523E-09  5.82221E-09  4.68921E-09  5.36929E-09  5.28537E-09  6.41321E-09  6.17635E-09  6.44574E-09
   6.42185E-09  5.90362E-09  6.76298E-09  6.74648E-09  6.39404E-09  6.43148E-09  6.83191E-09  7.02373E-09  6.80473E-09  7.12956E-09
   7.11043E-09  7.20851E-09  7.76420E-09  8.21347E-09  8.00288E-09  7.96943E-09  8.71489E-09  8.80555E-09  1.01354E-08  1.13274E-08
   1.26150E-08  1.58452E-08  1.80983E-08  1.97302E-08  1.94193E-08  1.68812E-08  1.41249E-08  1.23672E-08  1.03510E-08  9.47988E-09
   7.84514E-09  7.04527E-09  6.08039E-09  5.22085E-09  4.54296E-09  3.24492E-09  2.49868E-09  1.32468E-09  7.06365E-10 -5.41432E-10
  -1.59286E-09 -2.70713E-09 -4.60209E-09 -5.92228E-09 -7.02245E-09 -8.45757E-09 -1.05882E-08 -1.25320E-08 -1.44359E-08 -1.65267E-08
  -1.87244E-08 -2.08568E-08 -2.22468E-08 -2.33290E-08 -2.49469E-08 -2.53771E-08 -2.62202E-08 -2.60254E-08 -2.55277E-08 -2.40708E-08
  -2.29463E-08 -2.07254E-08 -1.81612E-08 -1.60174E-08 -1.33105E-08 -1.07754E-08 -7.46086E-09 -5.69141E-09 -3.23437E-09 -1.62042E-09
  -2.97349E-10  6.67966E-10  6.13200E-10  2.46674E-10  1.33751E-09 -7.87393E-11 -4.40265E-10 -1.24745E-09 -8.34297E-10 -1.02911E-09
  -3.21185E-10 -8.83050E-10 -3.03532E-10  2.42541E-10  3.88595E-10 -4.97194E-10 -3.96310E-10 -5.44533E-10 -3.47145E-10 -8.13514E-10
  -4.74059E-10 -4.97456E-10 -9.37597E-11  2.58329E-10  2.78069E-10  8.53201E-11  5.97593E-10  9.28484E-11  3.99500E-10 -3.69504E-10
  -3.24062E-10 -6.54255E-10  1.58571E-10 -1.25002E-10  5.50243E-11  1.03059E-10  1.10390E-09  8.41871E-10  1.22848E-09  7.53733E-10
   1.37861E-09  2.59609E-10  5.92555E-10  8.17886E-12 -7.63739E-11 -7.12614E-10 -4.87344E-11 -2.59410E-10 -1.33047E-10 -1.48858E-11
   4.49378E-10  6.65282E-10  6.72134E-10  2.50099E-10  1.61076E-09  8.70972E-10  1.63487E-09  1.18781E-09  1.01268E-09  8.83532E-10
   1.52247E-09  1.03362E-09  1.12673E-09  5.42128E-10  1.00723E-09  5.23375E-10  1.39941E-09  3.84013E-10  8.42357E-10 -1.22760E-10
   9.17935E-10  8.56917E-10  1.09966E-09  7.27345E-10  5.68511E-10  3.16509E-10  1.17822E-09  4.97490E-10  8.56850E-10  6.27100E-10
   8.55780E-10 -1.18715E-10  3.12733E-10  1.91633E-10  4.96245E-10  3.64386E-10  5.13199E-10  2.29101E-10  1.04203E-09 -1.71572E-10
   1.48182E-10 -1.16144E-10  3.87187E-10  3.37177E-10  8.50326E-10 -3.09980E-10  5.92610E-10  1.48960E-10  5.58720E-10 -2.25762E-10
   7.91026E-10  3.85047E-10  7.09199E-10  5.36179E-11  5.22749E-10  2.82309E-10  4.44512E-10  4.46990E-10  5.66074E-10  6.07749E-11
   2.22805E-10  7.21480E-10  9.21210E-10  3.58379E-10  7.30085E-10  6.17948E-10  9.57156E-10  5.33726E-10  4.47474E-10  2.19026E-10
   6.63855E-10  1.88641E-10  1.14289E-09  3.92706E-10  9.79119E-10  5.68891E-10  9.32710E-10  3.67001E-10  5.28535E-10  1.61951E-10
   1.03333E-09  3.42773E-10  1.17549E-09  1.01265E-09  8.41282E-10  3.36576E-10  1.26601E-09  5.44994E-10  1.01693E-09  9.43130E-10
   1.16400E-09  9.24890E-10  1.03524E-09
 NY points of the fit to the data follow
   2.24422E-08  2.11683E-08  2.01309E-08  1.94973E-08  1.88457E-08  1.77657E-08  1.63312E-08  1.50896E-08  1.42588E-08  1.38842E-08
   1.38430E-08  1.39872E-08  1.42070E-08  1.44969E-08  1.47788E-08  1.48991E-08  1.48983E-08  1.47871E-08  1.44170E-08  1.39272E-08
   1.36138E-08  1.33310E-08  1.28750E-08  1.24418E-08  1.21789E-08  1.20767E-08  1.22032E-08  1.23911E-08  1.25826E-08  1.28557E-08
   1.29843E-08  1.28569E-08  1.26440E-08  1.21888E-08  1.15354E-08  1.12013E-08  1.11992E-08  1.11143E-08  1.08486E-08  1.03864E-08
   9.79708E-09  9.16200E-09  8.31819E-09  7.62802E-09  7.35289E-09  7.05086E-09  6.71192E-09  6.56663E-09  6.51532E-09  6.50744E-09
   6.53536E-09  6.57653E-09  6.64564E-09  6.72757E-09  6.86535E-09  7.07437E-09  7.33437E-09  7.63066E-09  7.93928E-09  8.21230E-09
   8.47707E-09  8.85480E-09  9.36905E-09  9.83858E-09  1.03901E-08  1.08691E-08  1.11083E-08  1.11343E-08  1.09895E-08  1.07190E-08
   1.03159E-08  9.70824E-09  8.97663E-09  8.38430E-09  7.95124E-09  7.60831E-09  7.80482E-09  8.84220E-09  1.01069E-08  1.14396E-08
   1.26915E-08  1.36780E-08  1.43967E-08  1.47791E-08  1.45349E-08  1.36064E-08  1.21274E-08  1.02321E-08  8.49766E-09  7.89182E-09
   7.63709E-09  7.48282E-09  7.27848E-09  6.93142E-09  6.64400E-09  6.40693E-09  6.04478E-09  5.73280E-09  5.53391E-09  5.33548E-09
   5.16685E-09  5.04753E-09  4.95883E-09  4.89021E-09  4.83552E-09  4.79098E-09  4.75432E-09  4.72393E-09  4.69858E-09  4.67732E-09
   4.65931E-09  4.64401E-09  4.63110E-09  4.62028E-09  4.61117E-09  4.60343E-09  4.59663E-09  4.59046E-09  4.58467E-09  4.57901E-09
   4.57329E-09  4.56730E-09  4.56081E-09  4.55362E-09  4.54554E-09  4.53639E-09  4.52598E-09  4.51415E-09  4.50074E-09  4.48558E-09
   4.46850E-09  4.44935E-09  4.42798E-09  4.40423E-09  4.37796E-09  4.34901E-09  4.31725E-09  4.28253E-09  4.24471E-09  4.20367E-09
   4.15925E-09  4.11134E-09  4.05977E-09  4.00441E-09  3.94512E-09  3.88178E-09  3.81429E-09  3.74254E-09  3.66643E-09  3.58590E-09
   3.50093E-09  3.41149E-09  3.31764E-09  3.21948E-09  3.11720E-09  3.01112E-09  2.90172E-09  2.78974E-09  2.67635E-09  2.56330E-09
   2.45345E-09  2.35151E-09  2.26586E-09  2.21263E-09  2.22777E-09  2.41152E-09  3.18117E-09  5.68266E-09  9.07660E-09  1.24878E-08
   1.55943E-08  1.82439E-08  2.01686E-08  2.09543E-08  2.01318E-08  1.73844E-08  1.27623E-08  6.97516E-09  1.85887E-09 -3.06655E-10
  -1.21472E-09 -1.78730E-09 -2.22612E-09 -2.59708E-09 -2.92778E-09 -3.23159E-09 -3.51555E-09 -3.78358E-09 -4.03783E-09 -4.27950E-09
  -4.50917E-09 -4.72704E-09 -4.93302E-09 -5.12686E-09 -5.30820E-09 -5.47660E-09 -5.63171E-09 -5.77378E-09 -5.90317E-09 -6.02018E-09
  -6.12510E-09 -6.21820E-09 -6.29974E-09 -6.36998E-09 -6.42915E-09 -6.47749E-09 -6.51523E-09 -6.54259E-09 -6.55980E-09 -6.56707E-09
  -6.56462E-09 -6.55266E-09 -6.53140E-09 -6.50106E-09 -6.46183E-09 -6.41394E-09 -6.35757E-09 -6.29294E-09 -6.22026E-09 -6.13972E-09
  -6.05153E-09 -5.95590E-09 -5.85301E-09 -5.74308E-09 -5.62639E-09 -5.50335E-09 -5.37438E-09 -5.23993E-09 -5.10044E-09 -4.95634E-09
  -4.80806E-09 -4.65604E-09 -4.50072E-09 -4.34252E-09 -4.18188E-09 -4.01925E-09 -3.85504E-09 -3.68971E-09 -3.52365E-09 -3.35734E-09
  -3.19121E-09 -3.02566E-09 -2.86116E-09 -2.69814E-09 -2.53699E-09 -2.37819E-09 -2.22216E-09 -2.06933E-09 -1.92014E-09 -1.77503E-09
  -1.63439E-09 -1.49872E-09 -1.36818E-09 -1.24269E-09 -1.12215E-09 -1.00647E-09 -8.95524E-10 -7.89218E-10 -6.87437E-10 -5.90082E-10
  -4.97054E-10 -4.08228E-10 -3.23521E-10 -2.42809E-10 -1.66004E-10 -9.29902E-11 -2.36410E-11  4.20994E-11  1.04364E-10  1.63267E-10
   2.18912E-10  2.71384E-10  3.20816E-10  3.67301E-10  4.10926E-10  4.51842E-10  4.90104E-10  5.25848E-10  5.59165E-10  5.90178E-10
   6.18960E-10  6.45586E-10  6.70130E-10  6.92667E-10  7.13260E-10  7.31991E-10  7.48924E-10  7.64138E-10  7.77702E-10  7.89686E-10
   8.00165E-10  8.09210E-10  8.16894E-10  8.23289E-10  8.28465E-10  8.32498E-10  8.35457E-10  8.37415E-10  8.38441E-10  8.38616E-10
   8.38000E-10  8.36676E-10  8.34712E-10  8.32174E-10  8.29143E-10  8.25688E-10  8.21879E-10  8.17791E-10  8.13459E-10  8.08908E-10
   8.04162E-10  7.99243E-10  7.94174E-10  7.88979E-10  7.83680E-10  7.78300E-10  7.72863E-10  7.67392E-10  7.61909E-10  7.56437E-10
   7.51001E-10  7.45622E-10  7.40323E-10  7.35129E-10  7.30061E-10  7.25143E-10  7.20398E-10  7.15849E-10  7.11519E-10  7.07431E-10
   7.03607E-10  7.00072E-10  6.96848E-10  6.93958E-10  6.91425E-10  6.89268E-10  6.87482E-10  6.86048E-10  6.84952E-10  6.84177E-10
   6.83707E-10  6.83524E-10  6.83613E-10  6.83957E-10  6.84541E-10  6.85347E-10  6.86359E-10  6.87561E-10  6.88936E-10  6.90468E-10
   6.92141E-10  6.93939E-10  6.95844E-10  6.97842E-10  6.99914E-10  7.02046E-10  7.04220E-10  7.06420E-10  7.08630E-10  7.10834E-10
   7.13014E-10  7.15155E-10  7.17241E-10
 NY background values follow
     5.019E-09    4.999E-09    4.979E-09    4.959E-09    4.938E-09    4.918E-09    4.898E-09    4.878E-09    4.857E-09    4.837E-09
     4.817E-09    4.796E-09    4.776E-09    4.756E-09    4.735E-09    4.715E-09    4.694E-09    4.674E-09    4.653E-09    4.632E-09
     4.612E-09    4.591E-09    4.570E-09    4.549E-09    4.528E-09    4.507E-09    4.486E-09    4.465E-09    4.444E-09    4.423E-09
     4.402E-09    4.380E-09    4.359E-09    4.338E-09    4.317E-09    4.295E-09    4.274E-09    4.253E-09    4.232E-09    4.211E-09
     4.191E-09    4.170E-09    4.150E-09    4.130E-09    4.110E-09    4.090E-09    4.070E-09    4.051E-09    4.032E-09    4.013E-09
     3.995E-09    3.977E-09    3.959E-09    3.942E-09    3.925E-09    3.908E-09    3.892E-09    3.876E-09    3.861E-09    3.846E-09
     3.831E-09    3.817E-09    3.803E-09    3.790E-09    3.777E-09    3.765E-09    3.753E-09    3.741E-09    3.730E-09    3.719E-09
     3.708E-09    3.698E-09    3.689E-09    3.680E-09    3.671E-09    3.662E-09    3.654E-09    3.646E-09    3.639E-09    3.632E-09
     3.626E-09    3.620E-09    3.614E-09    3.608E-09    3.603E-09    3.599E-09    3.595E-09    3.591E-09    3.587E-09    3.584E-09
     3.581E-09    3.579E-09    3.577E-09    3.575E-09    3.574E-09    3.573E-09    3.572E-09    3.571E-09    3.571E-09    3.572E-09
     3.572E-09    3.573E-09    3.575E-09    3.576E-09    3.578E-09    3.581E-09    3.583E-09    3.586E-09    3.589E-09    3.593E-09
     3.597E-09    3.601E-09    3.605E-09    3.610E-09    3.614E-09    3.619E-09    3.623E-09    3.627E-09    3.631E-09    3.634E-09
     3.636E-09    3.637E-09    3.637E-09    3.636E-09    3.633E-09    3.629E-09    3.623E-09    3.616E-09    3.606E-09    3.595E-09
     3.581E-09    3.565E-09    3.546E-09    3.525E-09    3.501E-09    3.474E-09    3.443E-09    3.410E-09    3.373E-09    3.333E-09
     3.289E-09    3.241E-09    3.189E-09    3.134E-09    3.073E-09    3.009E-09    2.939E-09    2.865E-09    2.786E-09    2.701E-09
     2.612E-09    2.517E-09    2.416E-09    2.309E-09    2.196E-09    2.077E-09    1.952E-09    1.821E-09    1.682E-09    1.537E-09
     1.385E-09    1.226E-09    1.059E-09    8.849E-10    7.031E-10    5.135E-10    3.158E-10    1.100E-10   -1.040E-10   -3.257E-10
    -5.543E-10   -7.890E-10   -1.029E-09   -1.274E-09   -1.523E-09   -1.775E-09   -2.029E-09   -2.286E-09   -2.543E-09   -2.800E-09
    -3.057E-09   -3.313E-09   -3.566E-09   -3.817E-09   -4.064E-09   -4.307E-09   -4.546E-09   -4.778E-09   -5.004E-09   -5.223E-09
    -5.433E-09   -5.635E-09   -5.828E-09   -6.010E-09   -6.182E-09   -6.342E-09   -6.489E-09   -6.624E-09   -6.748E-09   -6.860E-09
    -6.960E-09   -7.049E-09   -7.126E-09   -7.193E-09   -7.249E-09   -7.294E-09   -7.329E-09   -7.354E-09   -7.369E-09   -7.374E-09
    -7.369E-09   -7.355E-09   -7.332E-09   -7.300E-09   -7.259E-09   -7.210E-09   -7.152E-09   -7.086E-09   -7.012E-09   -6.930E-09
    -6.841E-09   -6.744E-09   -6.640E-09   -6.529E-09   -6.412E-09   -6.288E-09   -6.158E-09   -6.022E-09   -5.882E-09   -5.737E-09
    -5.588E-09   -5.435E-09   -5.279E-09   -5.120E-09   -4.959E-09   -4.795E-09   -4.631E-09   -4.465E-09   -4.298E-09   -4.131E-09
    -3.964E-09   -3.798E-09   -3.633E-09   -3.469E-09   -3.308E-09   -3.148E-09   -2.992E-09   -2.839E-09   -2.689E-09   -2.543E-09
    -2.402E-09   -2.266E-09   -2.135E-09   -2.009E-09   -1.888E-09   -1.772E-09   -1.660E-09   -1.554E-09   -1.451E-09   -1.354E-09
    -1.260E-09   -1.171E-09   -1.086E-09   -1.005E-09   -9.275E-10   -8.541E-10   -7.844E-10   -7.182E-10   -6.556E-10   -5.963E-10
    -5.402E-10   -4.874E-10   -4.376E-10   -3.907E-10   -3.467E-10   -3.054E-10   -2.668E-10   -2.307E-10   -1.970E-10   -1.657E-10
    -1.365E-10   -1.095E-10   -8.464E-11   -6.175E-11   -4.081E-11   -2.173E-11   -4.451E-12    1.111E-11    2.502E-11    3.734E-11
     4.816E-11    5.755E-11    6.557E-11    7.230E-11    7.782E-11    8.219E-11    8.548E-11    8.777E-11    8.913E-11    8.964E-11
     8.936E-11    8.837E-11    8.674E-11    8.453E-11    8.183E-11    7.871E-11    7.523E-11    7.147E-11    6.747E-11    6.325E-11
     5.883E-11    5.425E-11    4.951E-11    4.464E-11    3.968E-11    3.463E-11    2.952E-11    2.438E-11    1.923E-11    1.409E-11
     8.989E-12    3.943E-12   -1.022E-12   -5.882E-12   -1.061E-11   -1.520E-11   -1.961E-11   -2.382E-11   -2.781E-11   -3.156E-11
    -3.505E-11   -3.824E-11   -4.112E-11   -4.367E-11   -4.586E-11   -4.768E-11   -4.912E-11   -5.020E-11   -5.095E-11   -5.138E-11
    -5.150E-11   -5.134E-11   -5.089E-11   -5.020E-11   -4.926E-11   -4.810E-11   -4.673E-11   -4.517E-11   -4.343E-11   -4.154E-11
    -3.951E-11   -3.734E-11   -3.507E-11   -3.271E-11   -3.027E-11   -2.776E-11   -2.522E-11   -2.264E-11   -2.006E-11   -1.748E-11
    -1.492E-11   -1.239E-11   -9.924E-12
 GABA     Conc. = 1.74E-09
   5.19859E-09  5.18061E-09  5.16278E-09  5.14512E-09  5.12763E-09  5.11036E-09  5.09329E-09  5.07650E-09  5.05999E-09  5.04382E-09
   5.02805E-09  5.01274E-09  4.99801E-09  4.98390E-09  4.97060E-09  4.95822E-09  4.94686E-09  4.93687E-09  4.92852E-09  4.92213E-09
   4.91832E-09  4.91786E-09  4.92188E-09  4.93212E-09  4.95112E-09  4.98312E-09  5.03592E-09  5.12542E-09  5.29275E-09  5.60556E-09
   5.91531E-09  6.26000E-09  6.81589E-09  7.38412E-09  7.84265E-09  8.26618E-09  8.57518E-09  8.69005E-09  8.57845E-09  8.26631E-09
   7.85377E-09  7.41384E-09  6.72798E-09  6.07153E-09  5.73301E-09  5.34518E-09  4.92977E-09  4.72203E-09  4.60225E-09  4.52457E-09
   4.47143E-09  4.43430E-09  4.40911E-09  4.39390E-09  4.38789E-09  4.39137E-09  4.40615E-09  4.43555E-09  4.48576E-09  4.56879E-09
   4.71181E-09  4.98785E-09  5.34276E-09  5.68761E-09  6.17524E-09  6.73908E-09  7.19779E-09  7.54855E-09  7.76874E-09  7.79647E-09
   7.59770E-09  7.18930E-09  6.66363E-09  6.16167E-09  5.59318E-09  4.97446E-09  4.66852E-09  4.49389E-09  4.26727E-09  4.17738E-09
   4.21431E-09  4.26574E-09  4.40164E-09  4.65041E-09  4.88537E-09  5.13817E-09  5.44931E-09  5.73997E-09  5.97494E-09  6.12297E-09
   6.18383E-09  6.20623E-09  6.11753E-09  5.85457E-09  5.62786E-09  5.43830E-09  5.11542E-09  4.83453E-09  4.66095E-09  4.48365E-09
   4.33294E-09  4.22898E-09  4.15351E-09  4.09638E-09  4.05179E-09  4.01619E-09  3.98752E-09  3.96427E-09  3.94536E-09  3.92991E-09
   3.91716E-09  3.90664E-09  3.89810E-09  3.89126E-09  3.88580E-09  3.88140E-09  3.87766E-09  3.87431E-09  3.87110E-09  3.86782E-09
   3.86429E-09  3.86029E-09  3.85563E-09  3.85012E-09  3.84356E-09  3.83579E-09  3.82662E-09  3.81590E-09  3.80347E-09  3.78915E-09
   3.77280E-09  3.75424E-09  3.73334E-09  3.70992E-09  3.68386E-09  3.65498E-09  3.62314E-09  3.58818E-09  3.54997E-09  3.50836E-09
   3.46317E-09  3.41429E-09  3.36152E-09  3.30471E-09  3.24367E-09  3.17827E-09  3.10833E-09  3.03371E-09  2.95423E-09  2.86975E-09
   2.78014E-09  2.68523E-09  2.58492E-09  2.47908E-09  2.36761E-09  2.25044E-09  2.12753E-09  1.99889E-09  1.86463E-09  1.72497E-09
   1.58038E-09  1.43178E-09  1.28093E-09  1.13151E-09  9.92560E-10  8.92335E-10  9.67447E-10  1.34072E-09  1.79242E-09  2.20851E-09
   2.55404E-09  2.79893E-09  2.88447E-09  2.72962E-09  2.25530E-09  1.42470E-09  2.83454E-10 -9.73582E-10 -1.93338E-09 -2.39142E-09
  -2.73438E-09 -3.03719E-09 -3.32035E-09 -3.59128E-09 -3.85307E-09 -4.10701E-09 -4.35353E-09 -4.59260E-09 -4.82394E-09 -5.04712E-09
  -5.26162E-09 -5.46687E-09 -5.66223E-09 -5.84702E-09 -6.02059E-09 -6.18225E-09 -6.33147E-09 -6.46837E-09 -6.59317E-09 -6.70609E-09
  -6.80735E-09 -6.89715E-09 -6.97572E-09 -7.04325E-09 -7.09995E-09 -7.14604E-09 -7.18170E-09 -7.20715E-09 -7.22259E-09 -7.22822E-09
  -7.22425E-09 -7.21087E-09 -7.18827E-09 -7.15668E-09 -7.11628E-09 -7.06728E-09 -7.00987E-09 -6.94425E-09 -6.87064E-09 -6.78921E-09
  -6.70017E-09 -6.60373E-09 -6.50008E-09 -6.38941E-09 -6.27202E-09 -6.14830E-09 -6.01868E-09 -5.88361E-09 -5.74352E-09 -5.59884E-09
  -5.45000E-09 -5.29744E-09 -5.14160E-09 -4.98289E-09 -4.82176E-09 -4.65865E-09 -4.49398E-09 -4.32819E-09 -4.16169E-09 -3.99496E-09
  -3.82841E-09 -3.66245E-09 -3.49755E-09 -3.33413E-09 -3.17261E-09 -3.01343E-09 -2.85703E-09 -2.70384E-09 -2.55429E-09 -2.40884E-09
  -2.26786E-09 -2.13185E-09 -2.00098E-09 -1.87516E-09 -1.75430E-09 -1.63831E-09 -1.52705E-09 -1.42043E-09 -1.31835E-09 -1.22069E-09
  -1.12736E-09 -1.03824E-09 -9.53245E-10 -8.72245E-10 -7.95154E-10 -7.21858E-10 -6.52228E-10 -5.86209E-10 -5.23669E-10 -4.64492E-10
  -4.08575E-10 -3.55833E-10 -3.06133E-10 -2.59382E-10 -2.15492E-10 -1.74314E-10 -1.35790E-10 -9.97860E-11 -6.62102E-11 -3.49399E-11
  -5.90136E-12  2.09801E-11  4.57788E-11  6.85688E-11  8.94155E-11  1.08398E-10  1.25583E-10  1.41047E-10  1.54862E-10  1.67095E-10
   1.77824E-10  1.87118E-10  1.95050E-10  2.01693E-10  2.07117E-10  2.11397E-10  2.14603E-10  2.16808E-10  2.18080E-10  2.18503E-10
   2.18134E-10  2.17056E-10  2.15339E-10  2.13048E-10  2.10264E-10  2.07056E-10  2.03494E-10  1.99654E-10  1.95570E-10  1.91267E-10
   1.86769E-10  1.82099E-10  1.77280E-10  1.72334E-10  1.67285E-10  1.62156E-10  1.56970E-10  1.51750E-10  1.46520E-10  1.41301E-10
   1.36118E-10  1.30993E-10  1.25949E-10  1.21010E-10  1.16198E-10  1.11538E-10  1.07050E-10  1.02759E-10  9.86885E-11  9.48605E-11
   9.12981E-11  8.80249E-11  8.50636E-11  8.24375E-11  8.01697E-11  7.82789E-11  7.67592E-11  7.55942E-11  7.47674E-11  7.42626E-11
   7.40634E-11  7.41534E-11  7.45164E-11  7.51360E-11  7.59960E-11  7.70796E-11  7.83711E-11  7.98537E-11  8.15111E-11  8.33270E-11
   8.52848E-11  8.73688E-11  8.95620E-11  9.18484E-11  9.42115E-11  9.66352E-11  9.91030E-11  1.01598E-10  1.04105E-10  1.06607E-10
   1.09088E-10  1.11532E-10  1.13921E-10
 Glc      Conc. = 1.45E-09
   8.87926E-09  9.22243E-09  9.50931E-09  9.68278E-09  9.65666E-09  9.43614E-09  9.02972E-09  8.57251E-09  8.06518E-09  7.67283E-09
   7.50250E-09  7.47929E-09  7.57897E-09  7.84663E-09  8.29156E-09  8.82069E-09  9.36609E-09  9.86423E-09  1.02080E-08  1.03792E-08
   1.03521E-08  1.00501E-08  9.46274E-09  8.69549E-09  7.82512E-09  7.06589E-09  6.65129E-09  6.44376E-09  6.31813E-09  6.19171E-09
   6.01859E-09  5.83822E-09  5.66844E-09  5.46736E-09  5.25684E-09  5.10032E-09  4.95744E-09  4.81125E-09  4.69924E-09  4.62226E-09
   4.56274E-09  4.51266E-09  4.46921E-09  4.43033E-09  4.39492E-09  4.36222E-09  4.33169E-09  4.30295E-09  4.27569E-09  4.24973E-09
   4.22492E-09  4.20112E-09  4.17826E-09  4.15627E-09  4.13514E-09  4.11473E-09  4.09506E-09  4.07613E-09  4.05787E-09  4.04026E-09
   4.02328E-09  4.00690E-09  3.99109E-09  3.97585E-09  3.96115E-09  3.94700E-09  3.93335E-09  3.92022E-09  3.90758E-09  3.89543E-09
   3.88375E-09  3.87256E-09  3.86182E-09  3.85154E-09  3.84171E-09  3.83233E-09  3.82339E-09  3.81488E-09  3.80680E-09  3.79916E-09
   3.79192E-09  3.78512E-09  3.77871E-09  3.77273E-09  3.76713E-09  3.76195E-09  3.75717E-09  3.75278E-09  3.74878E-09  3.74517E-09
   3.74194E-09  3.73908E-09  3.73661E-09  3.73449E-09  3.73275E-09  3.73136E-09  3.73034E-09  3.72967E-09  3.72935E-09  3.72938E-09
   3.72975E-09  3.73047E-09  3.73153E-09  3.73291E-09  3.73464E-09  3.73668E-09  3.73906E-09  3.74175E-09  3.74476E-09  3.74809E-09
   3.75174E-09  3.75570E-09  3.75994E-09  3.76441E-09  3.76895E-09  3.77342E-09  3.77769E-09  3.78160E-09  3.78501E-09  3.78777E-09
   3.78976E-09  3.79081E-09  3.79079E-09  3.78956E-09  3.78696E-09  3.78287E-09  3.77714E-09  3.76962E-09  3.76018E-09  3.74866E-09
   3.73493E-09  3.71885E-09  3.70027E-09  3.67904E-09  3.65504E-09  3.62811E-09  3.59812E-09  3.56493E-09  3.52839E-09  3.48837E-09
   3.44470E-09  3.39726E-09  3.34588E-09  3.29040E-09  3.23064E-09  3.16646E-09  3.09770E-09  3.02420E-09  2.94581E-09  2.86238E-09
   2.77377E-09  2.67982E-09  2.58043E-09  2.47545E-09  2.36479E-09  2.24834E-09  2.12607E-09  1.99792E-09  1.86397E-09  1.72432E-09
   1.57930E-09  1.42946E-09  1.27597E-09  1.12103E-09  9.69701E-10  8.35575E-10  7.70931E-10  9.94572E-10  1.34377E-09  1.68256E-09
   1.96603E-09  2.17433E-09  2.26717E-09  2.18107E-09  1.84260E-09  1.20221E-09  2.66003E-10 -8.61671E-10 -1.89814E-09 -2.42221E-09
  -2.77139E-09 -3.07192E-09 -3.35154E-09 -3.61906E-09 -3.87783E-09 -4.12915E-09 -4.37339E-09 -4.61049E-09 -4.84009E-09 -5.06174E-09
  -5.27489E-09 -5.47892E-09 -5.67317E-09 -5.85696E-09 -6.02962E-09 -6.19044E-09 -6.33889E-09 -6.47507E-09 -6.59921E-09 -6.71152E-09
  -6.81220E-09 -6.90147E-09 -6.97953E-09 -7.04658E-09 -7.10284E-09 -7.14849E-09 -7.18375E-09 -7.20882E-09 -7.22389E-09 -7.22918E-09
  -7.22487E-09 -7.21117E-09 -7.18827E-09 -7.15639E-09 -7.11571E-09 -7.06644E-09 -7.00877E-09 -6.94291E-09 -6.86905E-09 -6.78739E-09
  -6.69814E-09 -6.60148E-09 -6.49762E-09 -6.38676E-09 -6.26916E-09 -6.14526E-09 -6.01546E-09 -5.88021E-09 -5.73995E-09 -5.59510E-09
