 LCModel (Version 6.3-1R) Copyright: S.W. Provencher.          Ref.: Magn. Reson. Med. 30:672-679 (1993).                
 onepulse 26x6_ftSpec_smooth_lcm
 26 lines in following concentration table = NCONC+1
    Conc.  %SD   /Cr    Metabolite                                         
    0.000 999%   0.000 Ala                                                 
    0.000 999%   0.000 Asp                                                 
    0.000 999%   0.000 Cr                                                  
 7.43E-10  58%   0.000 GABA                                                
 9.89E-11 725%   0.000 Glc                                                 
    0.000 999%   0.000 Gln                                                 
 2.07E-10 221%   0.000 Glu                                                 
 3.56E-10  94%   0.000 Glyc                                                
    0.000 999%   0.000 GPC                                                 
    0.000 999%   0.000 GSH                                                 
    0.000 999%   0.000 Ins                                                 
    0.000 999%   0.000 Lac                                                 
    0.000 999%   0.000 NAAG                                                
 5.05E-10  40%   0.000 NAA                                                 
 1.04E-12 999%   0.000 PCh                                                 
    0.000 999%   0.000 PCr                                                 
    0.000 999%   0.000 PE                                                  
    0.000 999%   0.000 Scyllo                                              
 1.07E-09  43%   0.000 Ser                                                 
 3.84E-10 190%   0.000 Tau                                                 
 1.04E-12 999%   0.000 GPC+PCh                                             
 5.05E-10  40%   0.000 NAA+NAAG                                            
 3.56E-10  94%   0.000 Ins+Glyc                                            
    0.000 999%   0.000 Cr+PCr                                              
 2.07E-10 221%   0.000 Glu+Gln                                             
   6 lines in following misc. output table
  FWHM = 0.067 ppm    S/N =   2                                            
  Data shift = 0.302 ppm                                                   
  Ph: -62 deg     -43.1 deg/ppm                                            
  alphaB,S = 7.0E-01,   2.6E+01                                            
    8 spline knots.   Ns = 5(1)                                            
  ( 7) 3 infls.   ( 5) 1 extrs.                                            
  363 points on ppm-axis = NY
      4.250000     4.238821     4.227641     4.216462     4.205282     4.194103     4.182923     4.171744     4.160564     4.149385
      4.138206     4.127026     4.115847     4.104667     4.093488     4.082308     4.071129     4.059949     4.048770     4.037591
      4.026411     4.015232     4.004052     3.992873     3.981693     3.970514     3.959334     3.948155     3.936975     3.925796
      3.914617     3.903437     3.892258     3.881078     3.869899     3.858719     3.847540     3.836360     3.825181     3.814002
      3.802822     3.791643     3.780463     3.769284     3.758104     3.746925     3.735745     3.724566     3.713387     3.702207
      3.691028     3.679848     3.668669     3.657489     3.646310     3.635130     3.623951     3.612772     3.601592     3.590413
      3.579233     3.568054     3.556874     3.545695     3.534515     3.523336     3.512156     3.500977     3.489798     3.478618
      3.467439     3.456259     3.445080     3.433900     3.422721     3.411541     3.400362     3.389183     3.378003     3.366824
      3.355644     3.344465     3.333285     3.322106     3.310926     3.299747     3.288568     3.277388     3.266209     3.255029
      3.243850     3.232670     3.221491     3.210311     3.199132     3.187953     3.176773     3.165594     3.154414     3.143235
      3.132055     3.120876     3.109696     3.098517     3.087337     3.076158     3.064979     3.053799     3.042620     3.031440
      3.020261     3.009081     2.997902     2.986722     2.975543     2.964364     2.953184     2.942005     2.930825     2.919646
      2.908466     2.897287     2.886107     2.874928     2.863749     2.852569     2.841390     2.830210     2.819031     2.807851
      2.796672     2.785492     2.774313     2.763134     2.751954     2.740775     2.729595     2.718416     2.707236     2.696057
      2.684877     2.673698     2.662519     2.651339     2.640160     2.628980     2.617801     2.606621     2.595442     2.584262
      2.573083     2.561903     2.550724     2.539545     2.528365     2.517186     2.506006     2.494827     2.483647     2.472468
      2.461288     2.450109     2.438930     2.427750     2.416571     2.405391     2.394212     2.383032     2.371853     2.360673
      2.349494     2.338315     2.327135     2.315956     2.304776     2.293597     2.282417     2.271238     2.260058     2.248879
      2.237700     2.226520     2.215341     2.204161     2.192982     2.181802     2.170623     2.159443     2.148264     2.137084
      2.125905     2.114726     2.103546     2.092367     2.081187     2.070008     2.058828     2.047649     2.036469     2.025290
      2.014111     2.002931     1.991752     1.980572     1.969393     1.958213     1.947034     1.935854     1.924675     1.913496
      1.902316     1.891137     1.879957     1.868778     1.857598     1.846419     1.835239     1.824060     1.812881     1.801701
      1.790522     1.779342     1.768163     1.756983     1.745804     1.734624     1.723445     1.712265     1.701086     1.689907
      1.678727     1.667548     1.656368     1.645189     1.634009     1.622830     1.611650     1.600471     1.589292     1.578112
      1.566933     1.555753     1.544574     1.533394     1.522215     1.511035     1.499856     1.488677     1.477497     1.466318
      1.455138     1.443959     1.432779     1.421600     1.410420     1.399241     1.388062     1.376882     1.365703     1.354523
      1.343344     1.332164     1.320985     1.309805     1.298626     1.287446     1.276267     1.265088     1.253908     1.242729
      1.231549     1.220370     1.209190     1.198011     1.186831     1.175652     1.164473     1.153293     1.142114     1.130934
      1.119755     1.108575     1.097396     1.086216     1.075037     1.063858     1.052678     1.041499     1.030319     1.019140
      1.007960     0.996781     0.985601     0.974422     0.963243     0.952063     0.940884     0.929704     0.918525     0.907345
      0.896166     0.884986     0.873807     0.862628     0.851448     0.840269     0.829089     0.817910     0.806730     0.795551
      0.784371     0.773192     0.762012     0.750833     0.739654     0.728474     0.717295     0.706115     0.694936     0.683756
      0.672577     0.661397     0.650218     0.639039     0.627859     0.616680     0.605500     0.594321     0.583141     0.571962
      0.560782     0.549603     0.538424     0.527244     0.516065     0.504885     0.493706     0.482526     0.471347     0.460167
      0.448988     0.437809     0.426629     0.415450     0.404270     0.393091     0.381911     0.370732     0.359552     0.348373
      0.337193     0.326014     0.314835     0.303655     0.292476     0.281296     0.270117     0.258937     0.247758     0.236578
      0.225399     0.214220     0.203040
 NY phased data points follow
   1.61878E-09  4.12389E-09  3.02378E-09  4.56054E-09  3.16778E-09  3.35406E-09  1.20361E-09  1.45942E-09  1.47789E-10  1.68732E-09
   7.05744E-10  1.71903E-09  9.51014E-10  2.95796E-09  1.58018E-09  2.63986E-09  2.22501E-09  2.91730E-09  2.00723E-09  3.08752E-09
   1.49180E-09  2.33253E-09  1.83077E-09  2.69965E-09  1.21225E-09  2.46589E-09  1.12455E-09  2.79874E-09  1.45374E-09  2.92487E-09
   1.64424E-09  2.65993E-09  1.57284E-09  2.30932E-09  1.76986E-09  3.70101E-09  3.06266E-09  3.54293E-09  1.84356E-09  2.29840E-09
   9.01496E-10  1.88655E-09  9.19208E-10  1.69191E-09  1.08942E-09  1.48933E-09  7.13762E-10  2.14263E-09  6.56193E-10  1.70728E-09
   2.92946E-10  1.24607E-09  8.04905E-10  1.80964E-09  5.16305E-10  2.07461E-09  9.20994E-10  1.77755E-09  1.04229E-09  2.04389E-09
   1.02785E-09  2.41908E-09  2.05270E-09  2.94030E-09  2.52135E-09  3.54506E-09  3.35607E-09  4.66325E-09  3.92026E-09  3.95231E-09
   3.04480E-09  2.53343E-09  1.71803E-09  2.35260E-09  1.66744E-09  2.67973E-09  1.59210E-09  2.18186E-09  1.67197E-09  2.61133E-09
   2.09694E-09  3.37567E-09  4.19913E-09  6.34860E-09  6.40690E-09  6.74868E-09  5.28198E-09  5.01183E-09  4.13006E-09  4.02543E-09
   3.21374E-09  3.85020E-09  2.61636E-09  3.07946E-09  2.51685E-09  2.92654E-09  2.15987E-09  2.27402E-09  2.07410E-09  1.71178E-09
   1.48158E-09  1.07669E-09  1.09291E-09  9.63384E-10  1.16359E-09  1.25585E-09  1.01455E-09  1.45133E-09  1.21762E-09  1.32642E-09
   1.12862E-09  1.51250E-09  8.08631E-10  9.25855E-10  4.23358E-10  7.23638E-10  9.26854E-10  1.27546E-09  1.15329E-09  1.39358E-09
   8.98748E-10  1.77700E-09  8.60908E-10  1.60875E-09  1.31311E-09  1.71933E-09  1.41084E-09  1.48079E-09  1.12328E-09  1.21671E-09
   1.11922E-09  1.43171E-09  1.15747E-09  2.11604E-09  2.12137E-09  2.41314E-09  2.11386E-09  2.65725E-09  2.71786E-09  2.82807E-09
   2.14794E-09  2.73742E-09  2.94923E-09  3.28133E-09  3.99152E-09  4.20113E-09  3.64851E-09  3.51171E-09  3.89368E-09  4.00855E-09
   4.30745E-09  4.21915E-09  3.95777E-09  4.02151E-09  4.05655E-09  3.85543E-09  4.03426E-09  3.49828E-09  3.50040E-09  3.40994E-09
   3.33545E-09  3.62799E-09  3.21078E-09  3.14645E-09  3.61549E-09  3.06538E-09  3.72139E-09  3.18347E-09  3.26305E-09  3.11843E-09
   3.80273E-09  3.68281E-09  3.29752E-09  3.52081E-09  5.08356E-09  7.57882E-09  8.91733E-09  8.54721E-09  8.05079E-09  7.00395E-09
   6.39224E-09  5.55115E-09  4.62238E-09  3.58040E-09  2.26722E-09  7.64750E-10 -3.01184E-10 -1.84217E-09 -3.15889E-09 -4.73631E-09
  -6.62873E-09 -8.04418E-09 -9.26619E-09 -1.03819E-08 -1.11180E-08 -1.19662E-08 -1.20908E-08 -1.24339E-08 -1.15958E-08 -1.13339E-08
  -1.00457E-08 -9.38972E-09 -7.75473E-09 -7.04324E-09 -5.32047E-09 -4.98061E-09 -3.41649E-09 -2.91923E-09 -2.55004E-09 -2.41770E-09
  -1.99689E-09 -2.46276E-09 -1.98259E-09 -2.71968E-09 -2.03205E-09 -2.48610E-09 -2.36586E-09 -2.45949E-09 -1.81502E-09 -2.16438E-09
  -1.39512E-09 -1.88127E-09 -1.73294E-09 -2.13165E-09 -1.72793E-09 -2.11236E-09 -1.73089E-09 -2.19620E-09 -1.69260E-09 -1.59225E-09
  -1.29076E-09 -1.76528E-09 -1.59633E-09 -2.17628E-09 -1.42505E-09 -1.93723E-09 -2.04296E-09 -2.46861E-09 -2.00778E-09 -2.43675E-09
  -2.04430E-09 -2.07795E-09 -1.61888E-09 -2.48814E-09 -1.88394E-09 -2.17356E-09 -2.01503E-09 -2.33054E-09 -2.00403E-09 -2.75237E-09
  -2.00836E-09 -2.46097E-09 -2.21228E-09 -2.64152E-09 -2.11061E-09 -2.39796E-09 -1.68745E-09 -2.48642E-09 -1.70919E-09 -2.59207E-09
  -1.90120E-09 -2.36172E-09 -2.16566E-09 -2.20953E-09 -1.67244E-09 -2.35721E-09 -1.69595E-09 -2.62289E-09 -2.02494E-09 -2.53384E-09
  -2.08507E-09 -2.94032E-09 -2.21233E-09 -2.94413E-09 -2.16585E-09 -2.51906E-09 -1.93353E-09 -2.19363E-09 -1.43631E-09 -1.97582E-09
  -1.51316E-09 -1.35079E-09 -1.09224E-09 -1.58793E-09 -1.03676E-09 -1.37890E-09 -1.56525E-09 -1.39825E-09 -1.44033E-09 -1.70104E-09
  -1.34007E-09 -1.96928E-09 -1.32767E-09 -2.35607E-09 -1.56849E-09 -1.94910E-09 -1.66026E-09 -2.39710E-09 -2.35796E-09 -2.09040E-09
  -1.90573E-09 -2.08943E-09 -1.57326E-09 -2.18460E-09 -2.14189E-09 -2.32445E-09 -1.78622E-09 -1.94735E-09 -2.26726E-09 -2.28567E-09
  -2.04729E-09 -2.04409E-09 -1.93740E-09 -2.23323E-09 -2.36813E-09 -2.46605E-09 -2.59924E-09 -1.97995E-09 -2.02520E-09 -2.66010E-09
  -2.45351E-09 -2.17441E-09 -2.07504E-09 -2.62083E-09 -2.38319E-09 -2.72695E-09 -2.52489E-09 -2.79879E-09 -2.20978E-09 -2.46748E-09
  -2.49148E-09 -2.73972E-09 -2.72875E-09 -2.79894E-09 -2.16915E-09 -2.54040E-09 -2.28258E-09 -2.82252E-09 -2.60077E-09 -2.92677E-09
  -2.42836E-09 -2.16948E-09 -2.85889E-09 -2.96560E-09 -2.94839E-09 -3.03491E-09 -2.44934E-09 -2.66346E-09 -2.95348E-09 -2.83946E-09
  -2.58685E-09 -2.84724E-09 -2.71789E-09 -2.75634E-09 -2.78351E-09 -3.29839E-09 -3.17087E-09 -3.02740E-09 -2.85499E-09 -3.34842E-09
  -3.16208E-09 -3.22021E-09 -2.98051E-09
 NY points of the fit to the data follow
   4.47704E-09  3.62977E-09  3.00114E-09  2.90851E-09  2.79938E-09  2.38203E-09  1.77939E-09  1.31966E-09  1.17137E-09  1.17130E-09
   1.23852E-09  1.31594E-09  1.43490E-09  1.63825E-09  2.01372E-09  2.44714E-09  2.82146E-09  2.92448E-09  2.65518E-09  2.20828E-09
   2.10409E-09  2.19183E-09  2.27175E-09  2.25779E-09  2.08843E-09  1.87673E-09  1.80967E-09  1.82222E-09  2.00234E-09  2.21825E-09
   2.28309E-09  2.20118E-09  2.19790E-09  2.14060E-09  2.11954E-09  2.16431E-09  2.25108E-09  2.34658E-09  2.38246E-09  2.35051E-09
   2.30111E-09  2.29454E-09  2.07204E-09  1.73117E-09  1.66755E-09  1.58778E-09  1.35727E-09  1.25081E-09  1.24738E-09  1.29638E-09
   1.37301E-09  1.43248E-09  1.45762E-09  1.42996E-09  1.39958E-09  1.43220E-09  1.55585E-09  1.71060E-09  1.83765E-09  1.89453E-09
   1.89684E-09  1.91963E-09  2.07943E-09  2.26781E-09  2.56305E-09  2.90191E-09  3.10562E-09  3.20981E-09  3.34031E-09  3.45246E-09
   3.54059E-09  3.48356E-09  3.23505E-09  2.97530E-09  2.80054E-09  2.45445E-09  2.31240E-09  2.81915E-09  3.27213E-09  3.53478E-09
   3.76685E-09  3.98508E-09  4.34135E-09  4.94115E-09  5.59091E-09  5.96078E-09  5.70288E-09  4.65158E-09  3.30334E-09  2.87962E-09
   2.76230E-09  2.75197E-09  2.77866E-09  2.66050E-09  2.52399E-09  2.52451E-09  2.40564E-09  2.21551E-09  2.14302E-09  2.07274E-09
   1.98283E-09  1.92404E-09  1.88512E-09  1.85797E-09  1.83819E-09  1.82317E-09  1.81145E-09  1.80215E-09  1.79464E-09  1.78839E-09
   1.78290E-09  1.77769E-09  1.77260E-09  1.76750E-09  1.76231E-09  1.75696E-09  1.75128E-09  1.74514E-09  1.73845E-09  1.73115E-09
   1.72319E-09  1.71454E-09  1.70514E-09  1.69494E-09  1.68391E-09  1.67200E-09  1.65918E-09  1.64541E-09  1.63067E-09  1.61493E-09
   1.59815E-09  1.58032E-09  1.56142E-09  1.54141E-09  1.52028E-09  1.49801E-09  1.47457E-09  1.44994E-09  1.42411E-09  1.39706E-09
   1.36877E-09  1.33925E-09  1.30846E-09  1.27640E-09  1.24305E-09  1.20841E-09  1.17251E-09  1.13541E-09  1.09716E-09  1.05785E-09
   1.01756E-09  9.76386E-10  9.34441E-10  8.91859E-10  8.48796E-10  8.05453E-10  7.62086E-10  7.19033E-10  6.76768E-10  6.35970E-10
   5.97673E-10  5.63555E-10  5.36549E-10  5.22371E-10  5.33992E-10  6.08881E-10  9.09717E-10  2.00045E-09  3.04947E-09  3.68645E-09
   4.03849E-09  4.40071E-09  5.08714E-09  6.19754E-09  7.43421E-09  8.01490E-09  7.04634E-09  4.32066E-09  1.16358E-09  1.59083E-10
  -2.11446E-10 -4.16394E-10 -5.57643E-10 -6.68341E-10 -7.62222E-10 -8.45903E-10 -9.22925E-10 -9.95326E-10 -1.06435E-09 -1.13080E-09
  -1.19516E-09 -1.25781E-09 -1.31896E-09 -1.37877E-09 -1.43736E-09 -1.49479E-09 -1.55111E-09 -1.60634E-09 -1.66049E-09 -1.71356E-09
  -1.76555E-09 -1.81645E-09 -1.86622E-09 -1.91485E-09 -1.96230E-09 -2.00856E-09 -2.05358E-09 -2.09734E-09 -2.13980E-09 -2.18091E-09
  -2.22066E-09 -2.25899E-09 -2.29587E-09 -2.33126E-09 -2.36513E-09 -2.39742E-09 -2.42810E-09 -2.45713E-09 -2.48447E-09 -2.51015E-09
  -2.53418E-09 -2.55662E-09 -2.57748E-09 -2.59682E-09 -2.61465E-09 -2.63103E-09 -2.64598E-09 -2.65954E-09 -2.67173E-09 -2.68260E-09
  -2.69219E-09 -2.70051E-09 -2.70762E-09 -2.71353E-09 -2.71830E-09 -2.72194E-09 -2.72450E-09 -2.72601E-09 -2.72650E-09 -2.72600E-09
  -2.72456E-09 -2.72220E-09 -2.71896E-09 -2.71487E-09 -2.70996E-09 -2.70428E-09 -2.69785E-09 -2.69071E-09 -2.68289E-09 -2.67442E-09
  -2.66534E-09 -2.65568E-09 -2.64549E-09 -2.63478E-09 -2.62359E-09 -2.61196E-09 -2.59992E-09 -2.58751E-09 -2.57476E-09 -2.56169E-09
  -2.54835E-09 -2.53478E-09 -2.52100E-09 -2.50705E-09 -2.49295E-09 -2.47875E-09 -2.46448E-09 -2.45017E-09 -2.43586E-09 -2.42158E-09
  -2.40736E-09 -2.39323E-09 -2.37924E-09 -2.36540E-09 -2.35178E-09 -2.33837E-09 -2.32524E-09 -2.31241E-09 -2.29990E-09 -2.28776E-09
  -2.27602E-09 -2.26472E-09 -2.25388E-09 -2.24354E-09 -2.23374E-09 -2.22451E-09 -2.21588E-09 -2.20788E-09 -2.20055E-09 -2.19393E-09
  -2.18803E-09 -2.18289E-09 -2.17849E-09 -2.17481E-09 -2.17184E-09 -2.16958E-09 -2.16798E-09 -2.16707E-09 -2.16680E-09 -2.16718E-09
  -2.16819E-09 -2.16981E-09 -2.17204E-09 -2.17485E-09 -2.17823E-09 -2.18218E-09 -2.18667E-09 -2.19170E-09 -2.19725E-09 -2.20330E-09
  -2.20985E-09 -2.21687E-09 -2.22436E-09 -2.23230E-09 -2.24068E-09 -2.24948E-09 -2.25870E-09 -2.26831E-09 -2.27830E-09 -2.28867E-09
  -2.29939E-09 -2.31045E-09 -2.32184E-09 -2.33355E-09 -2.34556E-09 -2.35785E-09 -2.37043E-09 -2.38326E-09 -2.39635E-09 -2.40966E-09
  -2.42320E-09 -2.43694E-09 -2.45087E-09 -2.46498E-09 -2.47927E-09 -2.49370E-09 -2.50827E-09 -2.52296E-09 -2.53777E-09 -2.55267E-09
  -2.56766E-09 -2.58271E-09 -2.59783E-09 -2.61299E-09 -2.62816E-09 -2.64337E-09 -2.65857E-09 -2.67377E-09 -2.68893E-09 -2.70406E-09
  -2.71914E-09 -2.73415E-09 -2.74908E-09 -2.76391E-09 -2.77865E-09 -2.79325E-09 -2.80774E-09 -2.82206E-09 -2.83622E-09 -2.85022E-09
  -2.86402E-09 -2.87762E-09 -2.89101E-09
 NY background values follow
    -6.855E-10   -6.623E-10   -6.392E-10   -6.160E-10   -5.929E-10   -5.698E-10   -5.467E-10   -5.236E-10   -5.005E-10   -4.774E-10
    -4.543E-10   -4.313E-10   -4.083E-10   -3.852E-10   -3.622E-10   -3.393E-10   -3.163E-10   -2.934E-10   -2.704E-10   -2.475E-10
    -2.247E-10   -2.018E-10   -1.790E-10   -1.562E-10   -1.335E-10   -1.107E-10   -8.803E-11   -6.536E-11   -4.272E-11   -2.012E-11
     2.445E-12    2.497E-11    4.747E-11    6.992E-11    9.234E-11    1.147E-10    1.370E-10    1.593E-10    1.816E-10    2.038E-10
     2.259E-10    2.481E-10    2.701E-10    2.921E-10    3.141E-10    3.360E-10    3.579E-10    3.797E-10    4.014E-10    4.231E-10
     4.448E-10    4.663E-10    4.879E-10    5.093E-10    5.307E-10    5.521E-10    5.734E-10    5.946E-10    6.157E-10    6.368E-10
     6.578E-10    6.788E-10    6.996E-10    7.204E-10    7.412E-10    7.618E-10    7.824E-10    8.029E-10    8.234E-10    8.437E-10
     8.640E-10    8.842E-10    9.044E-10    9.244E-10    9.444E-10    9.642E-10    9.839E-10    1.003E-09    1.023E-09    1.042E-09
     1.061E-09    1.080E-09    1.098E-09    1.117E-09    1.135E-09    1.152E-09    1.170E-09    1.187E-09    1.203E-09    1.220E-09
     1.235E-09    1.251E-09    1.266E-09    1.281E-09    1.295E-09    1.308E-09    1.321E-09    1.334E-09    1.346E-09    1.357E-09
     1.368E-09    1.379E-09    1.388E-09    1.397E-09    1.406E-09    1.413E-09    1.420E-09    1.426E-09    1.432E-09    1.437E-09
     1.441E-09    1.444E-09    1.446E-09    1.448E-09    1.449E-09    1.448E-09    1.447E-09    1.445E-09    1.442E-09    1.439E-09
     1.434E-09    1.428E-09    1.421E-09    1.413E-09    1.404E-09    1.394E-09    1.383E-09    1.371E-09    1.358E-09    1.344E-09
     1.328E-09    1.312E-09    1.294E-09    1.275E-09    1.254E-09    1.233E-09    1.210E-09    1.186E-09    1.160E-09    1.134E-09
     1.105E-09    1.076E-09    1.045E-09    1.013E-09    9.792E-10    9.441E-10    9.076E-10    8.696E-10    8.303E-10    7.897E-10
     7.478E-10    7.047E-10    6.604E-10    6.149E-10    5.684E-10    5.208E-10    4.721E-10    4.225E-10    3.720E-10    3.206E-10
     2.684E-10    2.154E-10    1.616E-10    1.071E-10    5.190E-11   -3.891E-12   -6.026E-11   -1.172E-10   -1.746E-10   -2.324E-10
    -2.907E-10   -3.493E-10   -4.082E-10   -4.675E-10   -5.269E-10   -5.866E-10   -6.464E-10   -7.063E-10   -7.662E-10   -8.262E-10
    -8.861E-10   -9.460E-10   -1.006E-09   -1.065E-09   -1.125E-09   -1.184E-09   -1.243E-09   -1.301E-09   -1.360E-09   -1.417E-09
    -1.475E-09   -1.532E-09   -1.588E-09   -1.643E-09   -1.699E-09   -1.753E-09   -1.807E-09   -1.859E-09   -1.912E-09   -1.963E-09
    -2.013E-09   -2.063E-09   -2.111E-09   -2.158E-09   -2.205E-09   -2.250E-09   -2.294E-09   -2.337E-09   -2.379E-09   -2.419E-09
    -2.458E-09   -2.496E-09   -2.532E-09   -2.567E-09   -2.600E-09   -2.632E-09   -2.662E-09   -2.691E-09   -2.718E-09   -2.743E-09
    -2.767E-09   -2.789E-09   -2.810E-09   -2.829E-09   -2.846E-09   -2.862E-09   -2.877E-09   -2.890E-09   -2.902E-09   -2.913E-09
    -2.922E-09   -2.930E-09   -2.937E-09   -2.943E-09   -2.947E-09   -2.951E-09   -2.953E-09   -2.954E-09   -2.955E-09   -2.954E-09
    -2.952E-09   -2.950E-09   -2.946E-09   -2.942E-09   -2.937E-09   -2.931E-09   -2.925E-09   -2.917E-09   -2.909E-09   -2.901E-09
    -2.891E-09   -2.882E-09   -2.871E-09   -2.860E-09   -2.849E-09   -2.837E-09   -2.825E-09   -2.813E-09   -2.800E-09   -2.787E-09
    -2.773E-09   -2.759E-09   -2.746E-09   -2.731E-09   -2.717E-09   -2.703E-09   -2.689E-09   -2.674E-09   -2.660E-09   -2.645E-09
    -2.631E-09   -2.617E-09   -2.603E-09   -2.589E-09   -2.575E-09   -2.561E-09   -2.548E-09   -2.535E-09   -2.523E-09   -2.510E-09
    -2.499E-09   -2.487E-09   -2.476E-09   -2.466E-09   -2.456E-09   -2.447E-09   -2.438E-09   -2.430E-09   -2.422E-09   -2.416E-09
    -2.410E-09   -2.404E-09   -2.400E-09   -2.396E-09   -2.393E-09   -2.391E-09   -2.389E-09   -2.388E-09   -2.388E-09   -2.388E-09
    -2.389E-09   -2.390E-09   -2.392E-09   -2.395E-09   -2.398E-09   -2.402E-09   -2.407E-09   -2.412E-09   -2.417E-09   -2.423E-09
    -2.430E-09   -2.436E-09   -2.444E-09   -2.452E-09   -2.460E-09   -2.469E-09   -2.478E-09   -2.487E-09   -2.497E-09   -2.507E-09
    -2.518E-09   -2.529E-09   -2.540E-09   -2.552E-09   -2.564E-09   -2.576E-09   -2.589E-09   -2.601E-09   -2.614E-09   -2.627E-09
    -2.641E-09   -2.655E-09   -2.668E-09   -2.682E-09   -2.697E-09   -2.711E-09   -2.725E-09   -2.740E-09   -2.755E-09   -2.770E-09
    -2.784E-09   -2.799E-09   -2.814E-09   -2.829E-09   -2.844E-09   -2.860E-09   -2.875E-09   -2.890E-09   -2.905E-09   -2.920E-09
    -2.935E-09   -2.950E-09   -2.965E-09   -2.979E-09   -2.994E-09   -3.008E-09   -3.023E-09   -3.037E-09   -3.051E-09   -3.065E-09
    -3.079E-09   -3.092E-09   -3.105E-09
 GABA     Conc. = 7.43E-10
  -6.07838E-10 -5.83752E-10 -5.59605E-10 -5.35390E-10 -5.11101E-10 -4.86734E-10 -4.62273E-10 -4.37710E-10 -4.13033E-10 -3.88212E-10
  -3.63243E-10 -3.38099E-10 -3.12728E-10 -2.87130E-10 -2.61216E-10 -2.34942E-10 -2.08296E-10 -1.81128E-10 -1.53310E-10 -1.24759E-10
  -9.52333E-11 -6.44411E-11 -3.20357E-11  2.59218E-12  4.03687E-11  8.26968E-11  1.32374E-10  1.94740E-10  2.83288E-10  4.35579E-10
   5.65405E-10  6.70434E-10  8.89741E-10  1.13140E-09  1.32243E-09  1.54541E-09  1.76830E-09  1.93118E-09  1.99989E-09  1.98381E-09
   1.93979E-09  1.92834E-09  1.68549E-09  1.31042E-09  1.20914E-09  1.09855E-09  8.48467E-10  7.20791E-10  6.71034E-10  6.53008E-10
   6.51251E-10  6.59093E-10  6.73390E-10  6.92652E-10  7.16010E-10  7.43097E-10  7.74292E-10  8.10569E-10  8.53965E-10  9.08526E-10
   9.82911E-10  1.10219E-09  1.26988E-09  1.39394E-09  1.53969E-09  1.76937E-09  1.96868E-09  2.14192E-09  2.33062E-09  2.48965E-09
   2.56329E-09  2.52178E-09  2.39297E-09  2.26304E-09  2.12063E-09  1.77026E-09  1.51081E-09  1.50250E-09  1.41732E-09  1.31593E-09
   1.32625E-09  1.34434E-09  1.38163E-09  1.49772E-09  1.60099E-09  1.68542E-09  1.82122E-09  1.96736E-09  2.09588E-09  2.20146E-09
   2.26713E-09  2.34626E-09  2.42596E-09  2.34466E-09  2.23190E-09  2.25010E-09  2.14635E-09  1.96754E-09  1.90389E-09  1.84082E-09
   1.75686E-09  1.70304E-09  1.66827E-09  1.64465E-09  1.62794E-09  1.61558E-09  1.60620E-09  1.59897E-09  1.59329E-09  1.58868E-09
   1.58465E-09  1.58075E-09  1.57684E-09  1.57281E-09  1.56858E-09  1.56410E-09  1.55921E-09  1.55379E-09  1.54775E-09  1.54103E-09
   1.53360E-09  1.52543E-09  1.51646E-09  1.50665E-09  1.49595E-09  1.48434E-09  1.47177E-09  1.45822E-09  1.44366E-09  1.42806E-09
   1.41139E-09  1.39363E-09  1.37475E-09  1.35474E-09  1.33356E-09  1.31120E-09  1.28762E-09  1.26281E-09  1.23674E-09  1.20940E-09
   1.18077E-09  1.15083E-09  1.11955E-09  1.08693E-09  1.05292E-09  1.01753E-09  9.80748E-10  9.42628E-10  9.03213E-10  8.62548E-10
   8.20685E-10  7.77679E-10  7.33585E-10  6.88470E-10  6.42399E-10  5.95448E-10  5.47706E-10  4.99281E-10  4.50311E-10  4.00978E-10
   3.51543E-10  3.02413E-10  2.54276E-10  2.08453E-10  1.67924E-10  1.41343E-10  1.66877E-10  3.69342E-10  5.55753E-10  6.48863E-10
   6.80043E-10  7.15714E-10  8.25360E-10  1.02915E-09  1.25771E-09  1.33409E-09  1.06047E-09  3.97772E-10 -3.46763E-10 -6.01010E-10
  -7.27115E-10 -8.18531E-10 -8.96263E-10 -9.67267E-10 -1.03445E-09 -1.09920E-09 -1.16225E-09 -1.22403E-09 -1.28476E-09 -1.34459E-09
  -1.40359E-09 -1.46182E-09 -1.51929E-09 -1.57600E-09 -1.63194E-09 -1.68709E-09 -1.74144E-09 -1.79494E-09 -1.84758E-09 -1.89932E-09
  -1.95011E-09 -1.99994E-09 -2.04875E-09 -2.09652E-09 -2.14319E-09 -2.18874E-09 -2.23311E-09 -2.27627E-09 -2.31818E-09 -2.35879E-09
  -2.39807E-09 -2.43597E-09 -2.47245E-09 -2.50746E-09 -2.54097E-09 -2.57293E-09 -2.60331E-09 -2.63205E-09 -2.65912E-09 -2.68453E-09
  -2.70832E-09 -2.73052E-09 -2.75117E-09 -2.77029E-09 -2.78793E-09 -2.80412E-09 -2.81888E-09 -2.83226E-09 -2.84429E-09 -2.85500E-09
  -2.86443E-09 -2.87261E-09 -2.87957E-09 -2.88535E-09 -2.88998E-09 -2.89349E-09 -2.89592E-09 -2.89731E-09 -2.89768E-09 -2.89707E-09
  -2.89551E-09 -2.89305E-09 -2.88970E-09 -2.88551E-09 -2.88050E-09 -2.87472E-09 -2.86819E-09 -2.86095E-09 -2.85304E-09 -2.84448E-09
  -2.83532E-09 -2.82557E-09 -2.81529E-09 -2.80449E-09 -2.79322E-09 -2.78151E-09 -2.76940E-09 -2.75690E-09 -2.74407E-09 -2.73093E-09
  -2.71752E-09 -2.70387E-09 -2.69001E-09 -2.67598E-09 -2.66182E-09 -2.64754E-09 -2.63321E-09 -2.61882E-09 -2.60444E-09 -2.59009E-09
  -2.57580E-09 -2.56160E-09 -2.54755E-09 -2.53364E-09 -2.51995E-09 -2.50648E-09 -2.49328E-09 -2.48038E-09 -2.46780E-09 -2.45560E-09
  -2.44380E-09 -2.43243E-09 -2.42153E-09 -2.41113E-09 -2.40126E-09 -2.39196E-09 -2.38327E-09 -2.37520E-09 -2.36781E-09 -2.36113E-09
  -2.35517E-09 -2.34997E-09 -2.34550E-09 -2.34176E-09 -2.33873E-09 -2.33640E-09 -2.33474E-09 -2.33376E-09 -2.33344E-09 -2.33375E-09
  -2.33470E-09 -2.33626E-09 -2.33842E-09 -2.34117E-09 -2.34449E-09 -2.34837E-09 -2.35280E-09 -2.35777E-09 -2.36325E-09 -2.36924E-09
  -2.37573E-09 -2.38268E-09 -2.39011E-09 -2.39799E-09 -2.40630E-09 -2.41504E-09 -2.42419E-09 -2.43374E-09 -2.44367E-09 -2.45397E-09
  -2.46463E-09 -2.47562E-09 -2.48695E-09 -2.49860E-09 -2.51054E-09 -2.52276E-09 -2.53527E-09 -2.54804E-09 -2.56106E-09 -2.57430E-09
  -2.58777E-09 -2.60145E-09 -2.61531E-09 -2.62935E-09 -2.64357E-09 -2.65793E-09 -2.67243E-09 -2.68706E-09 -2.70180E-09 -2.71662E-09
  -2.73154E-09 -2.74653E-09 -2.76157E-09 -2.77666E-09 -2.79176E-09 -2.80690E-09 -2.82203E-09 -2.83715E-09 -2.85224E-09 -2.86730E-09
  -2.88230E-09 -2.89724E-09 -2.91209E-09 -2.92685E-09 -2.94151E-09 -2.95604E-09 -2.97044E-09 -2.98469E-09 -2.99878E-09 -3.01269E-09
  -3.02641E-09 -3.03993E-09 -3.05325E-09
 Glc      Conc. = 9.89E-11
  -4.44621E-10 -4.09289E-10 -3.64811E-10 -3.16633E-10 -2.74806E-10 -2.46775E-10 -2.38161E-10 -2.39640E-10 -2.61708E-10 -2.74284E-10
  -2.67253E-10 -2.48245E-10 -2.17459E-10 -1.70980E-10 -1.17307E-10 -6.80980E-11 -2.32010E-11  1.92720E-11  5.85716E-11  1.04452E-10
   1.52672E-10  1.90841E-10  2.03515E-10  1.84120E-10  1.30613E-10  7.57470E-11  6.17268E-11  6.93836E-11  8.62196E-11  1.02808E-10
   1.14688E-10  1.28760E-10  1.44120E-10  1.53614E-10  1.61417E-10  1.76804E-10  1.90670E-10  2.01053E-10  2.15540E-10  2.33227E-10
   2.52341E-10  2.72160E-10  2.92459E-10  3.13062E-10  3.33867E-10  3.54820E-10  3.75865E-10  3.96978E-10  4.18130E-10  4.39298E-10
   4.60476E-10  4.81643E-10  5.02801E-10  5.23935E-10  5.45034E-10  5.66108E-10  5.87141E-10  6.08122E-10  6.29073E-10  6.49966E-10
   6.70804E-10  6.91594E-10  7.12321E-10  7.32992E-10  7.53594E-10  7.74137E-10  7.94614E-10  8.15025E-10  8.35367E-10  8.55635E-10
   8.75834E-10  8.95960E-10  9.16005E-10  9.35978E-10  9.55859E-10  9.75632E-10  9.95278E-10  1.01478E-09  1.03411E-09  1.05326E-09
   1.07220E-09  1.09092E-09  1.10940E-09  1.12762E-09  1.14555E-09  1.16319E-09  1.18051E-09  1.19749E-09  1.21411E-09  1.23036E-09
   1.24621E-09  1.26165E-09  1.27666E-09  1.29121E-09  1.30529E-09  1.31889E-09  1.33197E-09  1.34453E-09  1.35653E-09  1.36798E-09
   1.37883E-09  1.38909E-09  1.39872E-09  1.40771E-09  1.41603E-09  1.42368E-09  1.43063E-09  1.43686E-09  1.44235E-09  1.44709E-09
   1.45105E-09  1.45422E-09  1.45658E-09  1.45811E-09  1.45878E-09  1.45859E-09  1.45750E-09  1.45551E-09  1.45259E-09  1.44873E-09
   1.44390E-09  1.43809E-09  1.43127E-09  1.42343E-09  1.41456E-09  1.40462E-09  1.39361E-09  1.38150E-09  1.36827E-09  1.35391E-09
   1.33839E-09  1.32171E-09  1.30383E-09  1.28474E-09  1.26442E-09  1.24285E-09  1.22001E-09  1.19589E-09  1.17046E-09  1.14371E-09
   1.11562E-09  1.08616E-09  1.05533E-09  1.02310E-09  9.89449E-10  9.54363E-10  9.17840E-10  8.79919E-10  8.40644E-10  8.00060E-10
   7.58210E-10  7.15140E-10  6.70894E-10  6.25519E-10  5.79060E-10  5.31565E-10  4.83085E-10  4.33669E-10  3.83376E-10  3.32265E-10
   2.80408E-10  2.27900E-10  1.74870E-10  1.21536E-10  6.83560E-11  1.66151E-11 -2.78684E-11 -4.98673E-11 -7.53798E-11 -1.13695E-10
  -1.60169E-10 -2.05831E-10 -2.41603E-10 -2.65281E-10 -2.86793E-10 -3.30081E-10 -4.20847E-10 -5.62316E-10 -7.10868E-10 -7.94592E-10
  -8.62949E-10 -9.26928E-10 -9.89067E-10 -1.05020E-09 -1.11065E-09 -1.17058E-09 -1.23003E-09 -1.28902E-09 -1.34756E-09 -1.40561E-09
  -1.46315E-09 -1.52016E-09 -1.57659E-09 -1.63241E-09 -1.68758E-09 -1.74206E-09 -1.79581E-09 -1.84879E-09 -1.90095E-09 -1.95226E-09
  -2.00268E-09 -2.05215E-09 -2.10064E-09 -2.14811E-09 -2.19451E-09 -2.23980E-09 -2.28393E-09 -2.32687E-09 -2.36858E-09 -2.40899E-09
  -2.44809E-09 -2.48581E-09 -2.52213E-09 -2.55699E-09 -2.59035E-09 -2.62217E-09 -2.65241E-09 -2.68103E-09 -2.70797E-09 -2.73327E-09
  -2.75694E-09 -2.77904E-09 -2.79958E-09 -2.81861E-09 -2.83614E-09 -2.85224E-09 -2.86691E-09 -2.88021E-09 -2.89215E-09 -2.90278E-09
  -2.91213E-09 -2.92023E-09 -2.92711E-09 -2.93281E-09 -2.93737E-09 -2.94082E-09 -2.94318E-09 -2.94450E-09 -2.94481E-09 -2.94413E-09
