 LCModel (Version 6.3-1R) Copyright: S.W. Provencher.          Ref.: Magn. Reson. Med. 30:672-679 (1993).                
 onepulse 26x7_ftSpec_smooth_lcm
 26 lines in following concentration table = NCONC+1
    Conc.  %SD /Cr+PCr  Metabolite                                         
    0.000 999%   0.000 Ala                                                 
 9.61E-10  45%  14.735 Asp                                                 
    0.000 999%   0.000 Cr                                                  
 3.33E-10 121%   5.099 GABA                                                
 1.72E-11 999%   0.264 Glc                                                 
 1.37E-09  33%  20.927 Gln                                                 
    0.000 999%   0.000 Glu                                                 
    0.000 999%   0.000 Glyc                                                
    0.000 999%   0.000 GPC                                                 
 9.29E-10  44%  14.246 GSH                                                 
 1.66E-09  21%  25.416 Ins                                                 
    0.000 999%   0.000 Lac                                                 
 3.84E-10  37%   5.892 NAAG                                                
    0.000 999%   0.000 NAA                                                 
    0.000 999%   0.000 PCh                                                 
 6.52E-11 378%   1.000 PCr                                                 
 1.67E-09  33%  25.646 PE                                                  
 2.78E-10  70%   4.261 Scyllo                                              
    0.000 999%   0.000 Ser                                                 
 1.66E-10 474%   2.547 Tau                                                 
    0.000 999%   0.000 GPC+PCh                                             
 3.84E-10  37%   5.892 NAA+NAAG                                            
 1.66E-09  21%  25.416 Ins+Glyc                                            
 6.52E-11 378%   1.000 Cr+PCr                                              
 1.37E-09  33%  20.927 Glu+Gln                                             
   6 lines in following misc. output table
  FWHM = 0.123 ppm    S/N =   4                                            
  Data shift = 0.402 ppm                                                   
  Ph: -32 deg     -52.0 deg/ppm                                            
  alphaB,S = 1.9E-01,   2.2E+01                                            
   12 spline knots.   Ns = 5(1)                                            
  (12) 6 infls.   (11) 3 extrs.                                            
  363 points on ppm-axis = NY
      4.250000     4.238821     4.227641     4.216462     4.205282     4.194103     4.182923     4.171744     4.160564     4.149385
      4.138206     4.127026     4.115847     4.104667     4.093488     4.082308     4.071129     4.059949     4.048770     4.037591
      4.026411     4.015232     4.004052     3.992873     3.981693     3.970514     3.959334     3.948155     3.936975     3.925796
      3.914617     3.903437     3.892258     3.881078     3.869899     3.858719     3.847540     3.836360     3.825181     3.814002
      3.802822     3.791643     3.780463     3.769284     3.758104     3.746925     3.735745     3.724566     3.713387     3.702207
      3.691028     3.679848     3.668669     3.657489     3.646310     3.635130     3.623951     3.612772     3.601592     3.590413
      3.579233     3.568054     3.556874     3.545695     3.534515     3.523336     3.512156     3.500977     3.489798     3.478618
      3.467439     3.456259     3.445080     3.433900     3.422721     3.411541     3.400362     3.389183     3.378003     3.366824
      3.355644     3.344465     3.333285     3.322106     3.310926     3.299747     3.288568     3.277388     3.266209     3.255029
      3.243850     3.232670     3.221491     3.210311     3.199132     3.187953     3.176773     3.165594     3.154414     3.143235
      3.132055     3.120876     3.109696     3.098517     3.087337     3.076158     3.064979     3.053799     3.042620     3.031440
      3.020261     3.009081     2.997902     2.986722     2.975543     2.964364     2.953184     2.942005     2.930825     2.919646
      2.908466     2.897287     2.886107     2.874928     2.863749     2.852569     2.841390     2.830210     2.819031     2.807851
      2.796672     2.785492     2.774313     2.763134     2.751954     2.740775     2.729595     2.718416     2.707236     2.696057
      2.684877     2.673698     2.662519     2.651339     2.640160     2.628980     2.617801     2.606621     2.595442     2.584262
      2.573083     2.561903     2.550724     2.539545     2.528365     2.517186     2.506006     2.494827     2.483647     2.472468
      2.461288     2.450109     2.438930     2.427750     2.416571     2.405391     2.394212     2.383032     2.371853     2.360673
      2.349494     2.338315     2.327135     2.315956     2.304776     2.293597     2.282417     2.271238     2.260058     2.248879
      2.237700     2.226520     2.215341     2.204161     2.192982     2.181802     2.170623     2.159443     2.148264     2.137084
      2.125905     2.114726     2.103546     2.092367     2.081187     2.070008     2.058828     2.047649     2.036469     2.025290
      2.014111     2.002931     1.991752     1.980572     1.969393     1.958213     1.947034     1.935854     1.924675     1.913496
      1.902316     1.891137     1.879957     1.868778     1.857598     1.846419     1.835239     1.824060     1.812881     1.801701
      1.790522     1.779342     1.768163     1.756983     1.745804     1.734624     1.723445     1.712265     1.701086     1.689907
      1.678727     1.667548     1.656368     1.645189     1.634009     1.622830     1.611650     1.600471     1.589292     1.578112
      1.566933     1.555753     1.544574     1.533394     1.522215     1.511035     1.499856     1.488677     1.477497     1.466318
      1.455138     1.443959     1.432779     1.421600     1.410420     1.399241     1.388062     1.376882     1.365703     1.354523
      1.343344     1.332164     1.320985     1.309805     1.298626     1.287446     1.276267     1.265088     1.253908     1.242729
      1.231549     1.220370     1.209190     1.198011     1.186831     1.175652     1.164473     1.153293     1.142114     1.130934
      1.119755     1.108575     1.097396     1.086216     1.075037     1.063858     1.052678     1.041499     1.030319     1.019140
      1.007960     0.996781     0.985601     0.974422     0.963243     0.952063     0.940884     0.929704     0.918525     0.907345
      0.896166     0.884986     0.873807     0.862628     0.851448     0.840269     0.829089     0.817910     0.806730     0.795551
      0.784371     0.773192     0.762012     0.750833     0.739654     0.728474     0.717295     0.706115     0.694936     0.683756
      0.672577     0.661397     0.650218     0.639039     0.627859     0.616680     0.605500     0.594321     0.583141     0.571962
      0.560782     0.549603     0.538424     0.527244     0.516065     0.504885     0.493706     0.482526     0.471347     0.460167
      0.448988     0.437809     0.426629     0.415450     0.404270     0.393091     0.381911     0.370732     0.359552     0.348373
      0.337193     0.326014     0.314835     0.303655     0.292476     0.281296     0.270117     0.258937     0.247758     0.236578
      0.225399     0.214220     0.203040
 NY phased data points follow
   5.68024E-09  4.16075E-09  5.50867E-09  3.93188E-09  6.21807E-09  5.16448E-09  6.29381E-09  5.98397E-09  7.23511E-09  5.77734E-09
   7.59651E-09  5.77677E-09  6.54522E-09  5.72958E-09  7.11325E-09  5.38739E-09  6.47554E-09  5.08649E-09  6.53554E-09  5.49113E-09
   6.83459E-09  5.93567E-09  6.68586E-09  5.87436E-09  6.08494E-09  5.42983E-09  7.24006E-09  7.87401E-09  8.50583E-09  7.29679E-09
   7.27290E-09  5.96612E-09  6.16681E-09  5.50282E-09  5.80362E-09  5.34241E-09  5.55433E-09  4.65473E-09  5.82035E-09  4.87154E-09
   5.36656E-09  4.50438E-09  4.42367E-09  4.10948E-09  4.96765E-09  4.07363E-09  4.68085E-09  4.48945E-09  4.36276E-09  4.23324E-09
   4.30355E-09  3.89188E-09  4.06226E-09  4.64908E-09  4.82152E-09  5.19107E-09  5.32880E-09  6.19465E-09  7.25126E-09  8.28036E-09
   7.72136E-09  7.91417E-09  6.63920E-09  5.93188E-09  5.68357E-09  5.49689E-09  5.50025E-09  5.09156E-09  4.52474E-09  4.37481E-09
   4.34132E-09  4.41937E-09  3.90825E-09  5.34479E-09  7.03996E-09  9.94316E-09  1.05092E-08  1.07747E-08  9.55261E-09  9.88928E-09
   8.96440E-09  8.66016E-09  8.49778E-09  8.68567E-09  7.81004E-09  8.13081E-09  7.47467E-09  8.07466E-09  6.57877E-09  7.84439E-09
   6.26985E-09  7.03753E-09  5.55625E-09  6.04442E-09  5.04280E-09  5.46364E-09  5.03126E-09  5.42683E-09  4.92511E-09  5.43633E-09
   4.75914E-09  5.36585E-09  4.97483E-09  5.19532E-09  4.34382E-09  4.45700E-09  3.40082E-09  4.04751E-09  3.84659E-09  4.33084E-09
   3.95372E-09  4.03692E-09  4.29153E-09  4.40438E-09  3.73937E-09  4.67151E-09  3.86516E-09  4.75152E-09  3.81642E-09  4.48921E-09
   3.28461E-09  3.81576E-09  3.07893E-09  3.35340E-09  2.96275E-09  4.24581E-09  3.57673E-09  4.08686E-09  3.29001E-09  4.87273E-09
   4.08792E-09  4.05072E-09  3.28272E-09  4.49184E-09  3.55726E-09  5.41211E-09  5.31032E-09  6.26098E-09  4.85491E-09  5.91566E-09
   5.42884E-09  6.84612E-09  6.27021E-09  7.03403E-09  6.13624E-09  7.19967E-09  6.14947E-09  7.37030E-09  6.47941E-09  6.97661E-09
   6.42477E-09  6.80155E-09  6.34266E-09  7.01291E-09  5.71998E-09  6.95760E-09  5.78508E-09  6.88819E-09  6.19952E-09  6.56686E-09
   5.58573E-09  6.22914E-09  6.19802E-09  6.00854E-09  4.64027E-09  5.20777E-09  7.52964E-09  1.17732E-08  1.32296E-08  1.46696E-08
   1.45599E-08  1.51921E-08  1.48384E-08  1.53030E-08  1.48235E-08  1.50324E-08  1.36091E-08  1.37299E-08  1.23248E-08  1.19422E-08
   1.04781E-08  9.34483E-09  6.78546E-09  5.67194E-09  3.18368E-09  2.00039E-09 -5.25760E-10 -1.64772E-09 -4.14900E-09 -4.70383E-09
  -6.55225E-09 -6.52870E-09 -7.58438E-09 -6.99320E-09 -7.43086E-09 -6.32396E-09 -6.48965E-09 -5.31119E-09 -4.59350E-09 -3.43908E-09
  -3.42702E-09 -2.20229E-09 -2.58697E-09 -1.36304E-09 -2.23790E-09 -1.24346E-09 -1.58913E-09 -1.10200E-09 -1.89450E-09 -1.14635E-09
  -1.53102E-09 -1.02177E-09 -1.09823E-09 -6.76335E-10 -1.29454E-09 -6.42978E-10 -1.19306E-09 -7.30614E-10 -1.14493E-09 -1.12821E-09
  -1.05091E-09 -2.85669E-10 -7.13210E-10 -4.45378E-10 -1.19268E-09 -4.58586E-10 -4.70203E-10 -2.87522E-10 -9.48606E-10 -6.00133E-10
  -1.17487E-09 -9.03986E-10 -1.17220E-09 -1.22666E-10 -9.81736E-10 -7.72668E-10 -9.73609E-10 -4.28813E-10 -1.03274E-09 -4.09017E-10
  -1.14679E-09 -7.51604E-10 -1.10974E-09 -8.36143E-10 -1.41920E-09 -1.01122E-09 -1.41005E-09 -6.62739E-10 -1.27580E-09 -7.14314E-10
  -1.04897E-09 -1.07804E-09 -9.91423E-10 -1.18225E-09 -1.09221E-09 -5.89829E-10 -9.43016E-10 -6.98851E-10 -8.83079E-10 -9.85452E-10
  -9.67521E-10 -9.00919E-10 -1.34473E-09 -1.39657E-09 -1.82882E-09 -1.86536E-09 -1.62077E-09 -1.79073E-09 -1.83931E-09 -1.66212E-09
  -1.25597E-09 -1.73722E-09 -1.01077E-09 -8.44716E-10 -7.58705E-10 -8.55133E-10 -2.45191E-10 -5.71537E-10 -3.68257E-10 -3.12965E-10
  -3.64850E-10 -9.71221E-11 -5.05575E-10 -1.66321E-10 -2.37570E-10 -6.07245E-10  1.36596E-11 -4.11382E-10  1.75739E-11 -1.11850E-09
  -7.14358E-10 -4.66949E-10 -5.53873E-10 -5.41647E-10  4.66006E-12 -7.51875E-10 -5.45540E-10 -7.68909E-10 -9.01543E-11 -5.74338E-10
  -5.23469E-10 -6.79476E-10 -2.53742E-10 -6.74268E-10 -1.92987E-10 -7.78574E-10 -3.23667E-10 -1.10291E-09 -6.60077E-10 -3.30481E-10
  -5.19039E-10 -9.26440E-10 -6.67712E-10 -4.34593E-10 -4.19816E-10 -6.18950E-10 -7.31783E-10 -8.61869E-10 -7.99903E-10 -9.24476E-10
  -2.21910E-10 -6.69356E-10 -5.03173E-10 -8.64441E-10 -1.06153E-09 -7.22328E-10 -4.80492E-10 -6.66978E-10 -2.75726E-10 -8.83959E-10
  -4.80812E-10 -1.21018E-09  1.43753E-10 -6.05328E-10 -5.45355E-10 -9.66572E-10 -9.43318E-10 -8.79052E-10 -2.00701E-10 -9.31653E-10
  -7.24307E-10 -7.71811E-10 -4.13935E-10 -8.17879E-10 -2.79075E-10 -4.39078E-10 -3.25900E-10 -1.02447E-09 -7.22191E-10 -6.06582E-10
  -4.21699E-10 -1.17202E-09 -5.70362E-10 -1.02997E-09 -3.91245E-10 -1.27167E-09 -2.85862E-10 -9.91603E-10 -9.90346E-10 -9.52608E-10
  -3.36793E-10 -1.07081E-09 -6.83899E-10
 NY points of the fit to the data follow
   5.31355E-09  5.32863E-09  5.22076E-09  5.09271E-09  4.95900E-09  5.50687E-09  5.97635E-09  6.10010E-09  6.64477E-09  6.88921E-09
   6.54678E-09  6.47962E-09  6.17073E-09  6.19698E-09  6.50077E-09  6.31219E-09  5.65598E-09  6.03659E-09  6.98280E-09  6.38700E-09
   5.20396E-09  4.91095E-09  5.58100E-09  6.10115E-09  6.49165E-09  7.01607E-09  7.82849E-09  8.23674E-09  7.80604E-09  6.78999E-09
   6.66545E-09  6.63160E-09  6.29507E-09  5.69736E-09  5.67139E-09  5.38598E-09  5.18873E-09  4.97356E-09  4.99553E-09  4.94699E-09
   4.86486E-09  4.86556E-09  4.83125E-09  4.71684E-09  4.57682E-09  4.36040E-09  4.29131E-09  3.79877E-09  3.58777E-09  3.68242E-09
   3.99391E-09  4.37482E-09  4.63833E-09  4.93131E-09  5.41162E-09  5.77925E-09  5.83420E-09  6.36639E-09  6.92098E-09  6.97840E-09
   6.91703E-09  6.84895E-09  6.85446E-09  6.86323E-09  6.50813E-09  6.05813E-09  5.88025E-09  5.72455E-09  5.24662E-09  5.12620E-09
   5.44248E-09  5.75543E-09  6.10460E-09  6.48044E-09  7.03784E-09  7.80755E-09  8.70531E-09  9.39811E-09  9.74815E-09  9.88170E-09
   9.82451E-09  9.57459E-09  9.20267E-09  8.88020E-09  8.71227E-09  8.19984E-09  7.24300E-09  6.27629E-09  5.80871E-09  5.54611E-09
   5.34473E-09  5.21681E-09  5.16941E-09  5.08212E-09  4.94601E-09  4.91703E-09  4.87210E-09  4.77796E-09  4.74221E-09  4.70275E-09
   4.66699E-09  4.65732E-09  4.65178E-09  4.64779E-09  4.65122E-09  4.66015E-09  4.67268E-09  4.68797E-09  4.70484E-09  4.72309E-09
   4.74237E-09  4.76231E-09  4.78269E-09  4.80332E-09  4.82403E-09  4.84474E-09  4.86529E-09  4.88558E-09  4.90551E-09  4.92499E-09
   4.94397E-09  4.96237E-09  4.98013E-09  4.99710E-09  5.01315E-09  5.02817E-09  5.04203E-09  5.05461E-09  5.06579E-09  5.07548E-09
   5.08354E-09  5.08988E-09  5.09439E-09  5.09696E-09  5.09749E-09  5.09588E-09  5.09203E-09  5.08584E-09  5.07721E-09  5.06605E-09
   5.05227E-09  5.03578E-09  5.01648E-09  4.99430E-09  4.96915E-09  4.94096E-09  4.90967E-09  4.87520E-09  4.83751E-09  4.79657E-09
   4.75234E-09  4.70484E-09  4.65412E-09  4.60024E-09  4.54336E-09  4.48373E-09  4.42175E-09  4.35803E-09  4.29354E-09  4.22986E-09
   4.16964E-09  4.11749E-09  4.08221E-09  4.08225E-09  4.16172E-09  4.45406E-09  5.55934E-09  1.00158E-08  1.37454E-08  1.52218E-08
   1.54099E-08  1.53883E-08  1.53459E-08  1.52344E-08  1.51461E-08  1.54145E-08  1.53856E-08  1.29663E-08  6.81789E-09  3.92889E-09
   2.95241E-09  2.43224E-09  2.07809E-09  1.80214E-09  1.56942E-09  1.36339E-09  1.17532E-09  1.00021E-09  8.35060E-10  6.77989E-10
   5.27800E-10  3.83720E-10  2.45274E-10  1.12146E-10 -1.58053E-11 -1.38638E-10 -2.56379E-10 -3.68934E-10 -4.76227E-10 -5.78146E-10
  -6.74506E-10 -7.65170E-10 -8.49978E-10 -9.29070E-10 -1.00262E-09 -1.07083E-09 -1.13387E-09 -1.19192E-09 -1.24516E-09 -1.29375E-09
  -1.33785E-09 -1.37763E-09 -1.41325E-09 -1.44487E-09 -1.47263E-09 -1.49671E-09 -1.51724E-09 -1.53439E-09 -1.54831E-09 -1.55913E-09
  -1.56703E-09 -1.57215E-09 -1.57463E-09 -1.57463E-09 -1.57229E-09 -1.56777E-09 -1.56119E-09 -1.55273E-09 -1.54252E-09 -1.53070E-09
  -1.51744E-09 -1.50286E-09 -1.48713E-09 -1.47037E-09 -1.45275E-09 -1.43440E-09 -1.41548E-09 -1.39610E-09 -1.37645E-09 -1.35666E-09
  -1.33686E-09 -1.31720E-09 -1.29783E-09 -1.27880E-09 -1.26010E-09 -1.24173E-09 -1.22369E-09 -1.20597E-09 -1.18857E-09 -1.17149E-09
  -1.15472E-09 -1.13827E-09 -1.12211E-09 -1.10625E-09 -1.09070E-09 -1.07544E-09 -1.06047E-09 -1.04579E-09 -1.03139E-09 -1.01726E-09
  -1.00342E-09 -9.89847E-10 -9.76536E-10 -9.63497E-10 -9.50712E-10 -9.38184E-10 -9.25903E-10 -9.13878E-10 -9.02093E-10 -8.90547E-10
  -8.79238E-10 -8.68156E-10 -8.57304E-10 -8.46679E-10 -8.36272E-10 -8.26074E-10 -8.16092E-10 -8.06313E-10 -7.96738E-10 -7.87359E-10
  -7.78181E-10 -7.69185E-10 -7.60380E-10 -7.51760E-10 -7.43328E-10 -7.35085E-10 -7.27036E-10 -7.19184E-10 -7.11530E-10 -7.04080E-10
  -6.96833E-10 -6.89793E-10 -6.82965E-10 -6.76347E-10 -6.69949E-10 -6.63767E-10 -6.57811E-10 -6.52074E-10 -6.46565E-10 -6.41285E-10
  -6.36240E-10 -6.31429E-10 -6.26854E-10 -6.22521E-10 -6.18434E-10 -6.14590E-10 -6.10997E-10 -6.07652E-10 -6.04565E-10 -6.01736E-10
  -5.99167E-10 -5.96856E-10 -5.94815E-10 -5.93042E-10 -5.91533E-10 -5.90310E-10 -5.89355E-10 -5.88677E-10 -5.88287E-10 -5.88180E-10
  -5.88359E-10 -5.88822E-10 -5.89585E-10 -5.90638E-10 -5.91973E-10 -5.93582E-10 -5.95453E-10 -5.97580E-10 -5.99951E-10 -6.02558E-10
  -6.05391E-10 -6.08438E-10 -6.11694E-10 -6.15144E-10 -6.18783E-10 -6.22602E-10 -6.26586E-10 -6.30730E-10 -6.35021E-10 -6.39454E-10
  -6.44016E-10 -6.48699E-10 -6.53494E-10 -6.58387E-10 -6.63374E-10 -6.68443E-10 -6.73584E-10 -6.78790E-10 -6.84045E-10 -6.89349E-10
  -6.94684E-10 -7.00046E-10 -7.05421E-10 -7.10806E-10 -7.16181E-10 -7.21547E-10 -7.26886E-10 -7.32195E-10 -7.37465E-10 -7.42677E-10
  -7.47830E-10 -7.52914E-10 -7.57914E-10
 NY background values follow
    -4.398E-09   -4.313E-09   -4.228E-09   -4.144E-09   -4.059E-09   -3.974E-09   -3.890E-09   -3.805E-09   -3.721E-09   -3.637E-09
    -3.552E-09   -3.468E-09   -3.384E-09   -3.300E-09   -3.215E-09   -3.131E-09   -3.047E-09   -2.963E-09   -2.879E-09   -2.796E-09
    -2.712E-09   -2.628E-09   -2.545E-09   -2.461E-09   -2.377E-09   -2.294E-09   -2.211E-09   -2.127E-09   -2.044E-09   -1.961E-09
    -1.878E-09   -1.795E-09   -1.712E-09   -1.629E-09   -1.546E-09   -1.464E-09   -1.381E-09   -1.299E-09   -1.216E-09   -1.134E-09
    -1.052E-09   -9.696E-10   -8.876E-10   -8.057E-10   -7.239E-10   -6.423E-10   -5.608E-10   -4.795E-10   -3.985E-10   -3.176E-10
    -2.370E-10   -1.566E-10   -7.648E-11    3.359E-12    8.290E-11    1.621E-10    2.411E-10    3.196E-10    3.978E-10    4.757E-10
     5.531E-10    6.302E-10    7.068E-10    7.830E-10    8.588E-10    9.340E-10    1.009E-09    1.083E-09    1.157E-09    1.230E-09
     1.303E-09    1.375E-09    1.447E-09    1.517E-09    1.588E-09    1.658E-09    1.727E-09    1.795E-09    1.863E-09    1.930E-09
     1.996E-09    2.062E-09    2.127E-09    2.191E-09    2.254E-09    2.317E-09    2.379E-09    2.440E-09    2.500E-09    2.560E-09
     2.618E-09    2.676E-09    2.733E-09    2.790E-09    2.845E-09    2.899E-09    2.953E-09    3.006E-09    3.058E-09    3.109E-09
     3.159E-09    3.208E-09    3.256E-09    3.303E-09    3.350E-09    3.395E-09    3.439E-09    3.483E-09    3.525E-09    3.567E-09
     3.607E-09    3.646E-09    3.685E-09    3.722E-09    3.759E-09    3.794E-09    3.828E-09    3.861E-09    3.893E-09    3.924E-09
     3.954E-09    3.983E-09    4.010E-09    4.037E-09    4.062E-09    4.085E-09    4.107E-09    4.128E-09    4.146E-09    4.163E-09
     4.178E-09    4.192E-09    4.203E-09    4.211E-09    4.218E-09    4.222E-09    4.224E-09    4.223E-09    4.220E-09    4.214E-09
     4.205E-09    4.193E-09    4.178E-09    4.160E-09    4.139E-09    4.115E-09    4.087E-09    4.056E-09    4.021E-09    3.982E-09
     3.940E-09    3.894E-09    3.844E-09    3.790E-09    3.732E-09    3.670E-09    3.603E-09    3.532E-09    3.457E-09    3.377E-09
     3.292E-09    3.203E-09    3.108E-09    3.009E-09    2.906E-09    2.799E-09    2.688E-09    2.574E-09    2.456E-09    2.335E-09
     2.211E-09    2.085E-09    1.957E-09    1.826E-09    1.694E-09    1.560E-09    1.425E-09    1.289E-09    1.152E-09    1.015E-09
     8.776E-10    7.401E-10    6.029E-10    4.662E-10    3.303E-10    1.955E-10    6.194E-11   -7.007E-11   -2.003E-10   -3.284E-10
    -4.543E-10   -5.776E-10   -6.980E-10   -8.154E-10   -9.294E-10   -1.040E-09   -1.147E-09   -1.249E-09   -1.347E-09   -1.441E-09
    -1.529E-09   -1.613E-09   -1.691E-09   -1.764E-09   -1.832E-09   -1.895E-09   -1.953E-09   -2.006E-09   -2.055E-09   -2.100E-09
    -2.140E-09   -2.176E-09   -2.208E-09   -2.236E-09   -2.260E-09   -2.281E-09   -2.298E-09   -2.313E-09   -2.324E-09   -2.332E-09
    -2.337E-09   -2.340E-09   -2.340E-09   -2.337E-09   -2.333E-09   -2.326E-09   -2.317E-09   -2.307E-09   -2.294E-09   -2.280E-09
    -2.265E-09   -2.249E-09   -2.231E-09   -2.213E-09   -2.193E-09   -2.173E-09   -2.153E-09   -2.132E-09   -2.110E-09   -2.089E-09
    -2.068E-09   -2.046E-09   -2.025E-09   -2.005E-09   -1.985E-09   -1.965E-09   -1.946E-09   -1.927E-09   -1.908E-09   -1.889E-09
    -1.871E-09   -1.854E-09   -1.836E-09   -1.819E-09   -1.802E-09   -1.786E-09   -1.770E-09   -1.754E-09   -1.738E-09   -1.723E-09
    -1.708E-09   -1.694E-09   -1.679E-09   -1.665E-09   -1.651E-09   -1.638E-09   -1.624E-09   -1.611E-09   -1.599E-09   -1.586E-09
    -1.574E-09   -1.562E-09   -1.550E-09   -1.538E-09   -1.527E-09   -1.516E-09   -1.505E-09   -1.494E-09   -1.484E-09   -1.474E-09
    -1.464E-09   -1.454E-09   -1.444E-09   -1.435E-09   -1.425E-09   -1.416E-09   -1.408E-09   -1.399E-09   -1.390E-09   -1.382E-09
    -1.374E-09   -1.366E-09   -1.359E-09   -1.351E-09   -1.344E-09   -1.337E-09   -1.331E-09   -1.324E-09   -1.318E-09   -1.312E-09
    -1.306E-09   -1.301E-09   -1.295E-09   -1.290E-09   -1.285E-09   -1.281E-09   -1.277E-09   -1.273E-09   -1.269E-09   -1.265E-09
    -1.262E-09   -1.259E-09   -1.256E-09   -1.254E-09   -1.252E-09   -1.250E-09   -1.248E-09   -1.247E-09   -1.246E-09   -1.245E-09
    -1.245E-09   -1.245E-09   -1.245E-09   -1.245E-09   -1.246E-09   -1.247E-09   -1.248E-09   -1.250E-09   -1.251E-09   -1.253E-09
    -1.256E-09   -1.258E-09   -1.261E-09   -1.264E-09   -1.267E-09   -1.270E-09   -1.273E-09   -1.277E-09   -1.281E-09   -1.284E-09
    -1.288E-09   -1.293E-09   -1.297E-09   -1.301E-09   -1.306E-09   -1.310E-09   -1.315E-09   -1.319E-09   -1.324E-09   -1.329E-09
    -1.333E-09   -1.338E-09   -1.343E-09   -1.348E-09   -1.353E-09   -1.358E-09   -1.362E-09   -1.367E-09   -1.372E-09   -1.377E-09
    -1.381E-09   -1.386E-09   -1.390E-09
 Asp      Conc. = 9.61E-10
  -3.31305E-09 -3.36069E-09 -3.39162E-09 -3.42800E-09 -3.40796E-09 -3.45154E-09 -3.47004E-09 -3.53203E-09 -3.51754E-09 -3.47347E-09
  -3.41565E-09 -3.35031E-09 -3.27982E-09 -3.20473E-09 -3.12753E-09 -3.04946E-09 -2.97042E-09 -2.89057E-09 -2.81003E-09 -2.72891E-09
  -2.64729E-09 -2.56520E-09 -2.48269E-09 -2.39976E-09 -2.31640E-09 -2.23256E-09 -2.14819E-09 -2.06317E-09 -1.97736E-09 -1.89054E-09
  -1.80233E-09 -1.71221E-09 -1.61926E-09 -1.52185E-09 -1.41657E-09 -1.29501E-09 -1.13262E-09 -9.83660E-10 -8.19091E-10 -7.08730E-10
  -6.32954E-10 -5.53477E-10 -4.15187E-10 -1.55262E-10  1.43323E-10  5.52018E-10  7.53013E-10  7.68633E-10  8.96897E-10  1.04157E-09
   1.22140E-09  1.40766E-09  1.56437E-09  1.59196E-09  1.44485E-09  1.29927E-09  1.07833E-09  1.17598E-09  1.26015E-09  1.16058E-09
   1.12356E-09  1.14373E-09  1.13273E-09  1.16527E-09  1.26797E-09  1.35329E-09  1.34054E-09  1.36034E-09  1.39849E-09  1.44607E-09
   1.49911E-09  1.55558E-09  1.61430E-09  1.67450E-09  1.73570E-09  1.79755E-09  1.85976E-09  1.92211E-09  1.98450E-09  2.04676E-09
   2.10880E-09  2.17053E-09  2.23188E-09  2.29280E-09  2.35324E-09  2.41315E-09  2.47250E-09  2.53125E-09  2.58938E-09  2.64686E-09
   2.70366E-09  2.75976E-09  2.81514E-09  2.86977E-09  2.92365E-09  2.97675E-09  3.02906E-09  3.08056E-09  3.13123E-09  3.18106E-09
   3.23004E-09  3.27815E-09  3.32538E-09  3.37172E-09  3.41715E-09  3.46166E-09  3.50524E-09  3.54787E-09  3.58955E-09  3.63027E-09
   3.67001E-09  3.70876E-09  3.74650E-09  3.78324E-09  3.81895E-09  3.85363E-09  3.88726E-09  3.91984E-09  3.95135E-09  3.98178E-09
   4.01113E-09  4.03938E-09  4.06650E-09  4.09238E-09  4.11694E-09  4.14008E-09  4.16172E-09  4.18175E-09  4.20009E-09  4.21665E-09
   4.23132E-09  4.24402E-09  4.25466E-09  4.26314E-09  4.26936E-09  4.27324E-09  4.27469E-09  4.27361E-09  4.26990E-09  4.26348E-09
   4.25426E-09  4.24214E-09  4.22703E-09  4.20884E-09  4.18748E-09  4.16286E-09  4.13489E-09  4.10348E-09  4.06854E-09  4.03000E-09
   3.98775E-09  3.94173E-09  3.89186E-09  3.83806E-09  3.78028E-09  3.71846E-09  3.65258E-09  3.58262E-09  3.50863E-09  3.43073E-09
   3.34918E-09  3.26450E-09  3.17782E-09  3.09181E-09  3.01271E-09  2.95961E-09  3.02160E-09  3.54155E-09  3.86963E-09  3.90923E-09
   3.80773E-09  3.69459E-09  3.57655E-09  3.44761E-09  3.32306E-09  3.24753E-09  3.11562E-09  2.64169E-09  1.69594E-09  1.30048E-09
   1.07621E-09  8.96909E-10  7.35305E-10  5.82703E-10  4.35625E-10  2.92497E-10  1.52572E-10  1.55182E-11 -1.18788E-10 -2.50327E-10
  -3.79016E-10 -5.04721E-10 -6.27265E-10 -7.46476E-10 -8.62133E-10 -9.74010E-10 -1.08191E-09 -1.18557E-09 -1.28477E-09 -1.37929E-09
  -1.46885E-09 -1.55323E-09 -1.63221E-09 -1.70587E-09 -1.77436E-09 -1.83781E-09 -1.89638E-09 -1.95021E-09 -1.99946E-09 -2.04427E-09
  -2.08478E-09 -2.12114E-09 -2.15349E-09 -2.18199E-09 -2.20677E-09 -2.22798E-09 -2.24576E-09 -2.26026E-09 -2.27163E-09 -2.28000E-09
  -2.28553E-09 -2.28835E-09 -2.28862E-09 -2.28646E-09 -2.28203E-09 -2.27549E-09 -2.26694E-09 -2.25657E-09 -2.24450E-09 -2.23087E-09
  -2.21584E-09 -2.19955E-09 -2.18214E-09 -2.16374E-09 -2.14452E-09 -2.12460E-09 -2.10414E-09 -2.08327E-09 -2.06215E-09 -2.04092E-09
  -2.01971E-09 -1.99868E-09 -1.97796E-09 -1.95759E-09 -1.93759E-09 -1.91794E-09 -1.89864E-09 -1.87969E-09 -1.86108E-09 -1.84280E-09
  -1.82486E-09 -1.80724E-09 -1.78995E-09 -1.77298E-09 -1.75632E-09 -1.73998E-09 -1.72393E-09 -1.70820E-09 -1.69276E-09 -1.67761E-09
  -1.66276E-09 -1.64818E-09 -1.63389E-09 -1.61988E-09 -1.60614E-09 -1.59266E-09 -1.57945E-09 -1.56650E-09 -1.55381E-09 -1.54136E-09
  -1.52916E-09 -1.51720E-09 -1.50548E-09 -1.49399E-09 -1.48274E-09 -1.47170E-09 -1.46089E-09 -1.45028E-09 -1.43990E-09 -1.42971E-09
  -1.41974E-09 -1.40995E-09 -1.40037E-09 -1.39097E-09 -1.38178E-09 -1.37277E-09 -1.36397E-09 -1.35538E-09 -1.34699E-09 -1.33881E-09
  -1.33083E-09 -1.32308E-09 -1.31554E-09 -1.30821E-09 -1.30111E-09 -1.29424E-09 -1.28759E-09 -1.28117E-09 -1.27499E-09 -1.26904E-09
  -1.26332E-09 -1.25785E-09 -1.25262E-09 -1.24763E-09 -1.24290E-09 -1.23841E-09 -1.23418E-09 -1.23021E-09 -1.22649E-09 -1.22304E-09
  -1.21985E-09 -1.21692E-09 -1.21427E-09 -1.21188E-09 -1.20977E-09 -1.20795E-09 -1.20639E-09 -1.20512E-09 -1.20414E-09 -1.20345E-09
  -1.20304E-09 -1.20293E-09 -1.20311E-09 -1.20359E-09 -1.20435E-09 -1.20539E-09 -1.20670E-09 -1.20827E-09 -1.21008E-09 -1.21213E-09
  -1.21441E-09 -1.21690E-09 -1.21961E-09 -1.22251E-09 -1.22561E-09 -1.22888E-09 -1.23233E-09 -1.23593E-09 -1.23969E-09 -1.24359E-09
  -1.24762E-09 -1.25177E-09 -1.25604E-09 -1.26041E-09 -1.26487E-09 -1.26942E-09 -1.27404E-09 -1.27873E-09 -1.28346E-09 -1.28825E-09
  -1.29307E-09 -1.29792E-09 -1.30278E-09 -1.30766E-09 -1.31253E-09 -1.31738E-09 -1.32222E-09 -1.32702E-09 -1.33178E-09 -1.33649E-09
  -1.34114E-09 -1.34572E-09 -1.35022E-09
 GABA     Conc. = 3.33E-10
  -4.38523E-09 -4.30043E-09 -4.21566E-09 -4.13092E-09 -4.04619E-09 -3.96150E-09 -3.87682E-09 -3.79215E-09 -3.70751E-09 -3.62286E-09
  -3.53822E-09 -3.45357E-09 -3.36890E-09 -3.28421E-09 -3.19944E-09 -3.11461E-09 -3.02973E-09 -2.94469E-09 -2.85944E-09 -2.77399E-09
  -2.68818E-09 -2.60185E-09 -2.51481E-09 -2.42673E-09 -2.33706E-09 -2.24490E-09 -2.14837E-09 -2.04333E-09 -1.91825E-09 -1.73799E-09
  -1.60360E-09 -1.49507E-09 -1.27036E-09 -1.06878E-09 -9.54836E-10 -8.12681E-10 -6.63471E-10 -5.37077E-10 -4.52950E-10 -4.24495E-10
  -4.26783E-10 -3.33243E-10 -3.04282E-10 -4.16771E-10 -3.93220E-10 -3.23199E-10 -3.43421E-10 -3.23552E-10 -2.73964E-10 -2.11885E-10
  -1.43192E-10 -7.06664E-11  4.40437E-12  8.15064E-11  1.60351E-10  2.40832E-10  3.23216E-10  4.08156E-10  4.96988E-10  5.92774E-10
   7.02632E-10  8.49367E-10  1.02661E-09  1.14091E-09  1.28386E-09  1.49177E-09  1.62441E-09  1.70996E-09  1.81214E-09  1.91261E-09
   1.99168E-09  2.02574E-09  2.00626E-09  1.99970E-09  2.06183E-09  2.00999E-09  1.93724E-09  2.00100E-09  2.04188E-09  2.06970E-09
   2.15060E-09  2.20701E-09  2.27860E-09  2.42245E-09  2.52722E-09  2.60514E-09  2.72792E-09  2.84210E-09  2.93838E-09  3.02912E-09
   3.08361E-09  3.13673E-09  3.23199E-09  3.25271E-09  3.21953E-09  3.28300E-09  3.31265E-09  3.27884E-09  3.29937E-09  3.32787E-09
   3.34142E-09  3.36479E-09  3.39454E-09  3.42786E-09  3.46321E-09  3.49963E-09  3.53657E-09  3.57370E-09  3.61076E-09  3.64759E-09
   3.68404E-09  3.71990E-09  3.75511E-09  3.78960E-09  3.82332E-09  3.85626E-09  3.88837E-09  3.91957E-09  3.94986E-09  3.97918E-09
   4.00751E-09  4.03485E-09  4.06114E-09  4.08627E-09  4.11014E-09  4.13266E-09  4.15373E-09  4.17324E-09  4.19110E-09  4.20721E-09
   4.22147E-09  4.23379E-09  4.24408E-09  4.25224E-09  4.25816E-09  4.26176E-09  4.26295E-09  4.26162E-09  4.25769E-09  4.25105E-09
   4.24162E-09  4.22931E-09  4.21401E-09  4.19564E-09  4.17410E-09  4.14929E-09  4.12113E-09  4.08952E-09  4.05439E-09  4.01561E-09
   3.97312E-09  3.92681E-09  3.87661E-09  3.82242E-09  3.76416E-09  3.70176E-09  3.63514E-09  3.56423E-09  3.48898E-09  3.40937E-09
   3.32545E-09  3.23731E-09  3.14536E-09  3.05069E-09  2.95579E-09  2.86820E-09  2.82489E-09  2.93391E-09  2.96390E-09  2.89359E-09
   2.77644E-09  2.65525E-09  2.53071E-09  2.40118E-09  2.27303E-09  2.16045E-09  2.02233E-09  1.75798E-09  1.34267E-09  1.12605E-09
   9.60338E-10  8.08766E-10  6.63130E-10  5.20840E-10  3.80938E-10  2.43070E-10  1.07156E-10 -2.67467E-11 -1.58518E-10 -2.87977E-10
  -4.14932E-10 -5.39170E-10 -6.60459E-10 -7.78587E-10 -8.93297E-10 -1.00434E-09 -1.11151E-09 -1.21451E-09 -1.31313E-09 -1.40711E-09
  -1.49619E-09 -1.58013E-09 -1.65871E-09 -1.73201E-09 -1.80016E-09 -1.86330E-09 -1.92158E-09 -1.97515E-09 -2.02415E-09 -2.06872E-09
  -2.10901E-09 -2.14517E-09 -2.17733E-09 -2.20565E-09 -2.23025E-09 -2.25131E-09 -2.26894E-09 -2.28329E-09 -2.29453E-09 -2.30277E-09
  -2.30817E-09 -2.31087E-09 -2.31102E-09 -2.30876E-09 -2.30423E-09 -2.29758E-09 -2.28894E-09 -2.27848E-09 -2.26632E-09 -2.25261E-09
  -2.23749E-09 -2.22112E-09 -2.20363E-09 -2.18516E-09 -2.16587E-09 -2.14588E-09 -2.12536E-09 -2.10442E-09 -2.08324E-09 -2.06195E-09
