 LCModel (Version 6.3-1R) Copyright: S.W. Provencher.          Ref.: Magn. Reson. Med. 30:672-679 (1993).                
 onepulse 26x8_ftSpec_smooth_lcm
 26 lines in following concentration table = NCONC+1
    Conc.  %SD   /Cr    Metabolite                                         
 1.27E-11 999%   0.000 Ala                                                 
 7.10E-10  73%   0.000 Asp                                                 
    0.000 999%   0.000 Cr                                                  
 3.17E-10 149%   0.000 GABA                                                
    0.000 999%   0.000 Glc                                                 
 1.34E-09  36%   0.000 Gln                                                 
    0.000 999%   0.000 Glu                                                 
    0.000 999%   0.000 Glyc                                                
    0.000 999%   0.000 GPC                                                 
 1.28E-09  29%   0.000 GSH                                                 
 2.11E-09  12%   0.000 Ins                                                 
    0.000 999%   0.000 Lac                                                 
 4.55E-10  57%   0.000 NAAG                                                
 8.11E-12 999%   0.000 NAA                                                 
    0.000 999%   0.000 PCh                                                 
    0.000 999%   0.000 PCr                                                 
 2.25E-09  22%   0.000 PE                                                  
 3.00E-10  42%   0.000 Scyllo                                              
 6.71E-10 102%   0.000 Ser                                                 
    0.000 999%   0.000 Tau                                                 
    0.000 999%   0.000 GPC+PCh                                             
 4.63E-10  56%   0.000 NAA+NAAG                                            
 2.11E-09  12%   0.000 Ins+Glyc                                            
    0.000 999%   0.000 Cr+PCr                                              
 1.34E-09  36%   0.000 Glu+Gln                                             
   6 lines in following misc. output table
  FWHM = 0.123 ppm    S/N =   4                                            
  Data shift = 0.425 ppm                                                   
  Ph: -20 deg     -54.2 deg/ppm                                            
  alphaB,S = 4.8E-01,   1.1E+01                                            
   11 spline knots.   Ns = 5(1)                                            
  ( 7)12 infls.   (11) 7 extrs.                                            
  363 points on ppm-axis = NY
      4.250000     4.238821     4.227641     4.216462     4.205282     4.194103     4.182923     4.171744     4.160564     4.149385
      4.138206     4.127026     4.115847     4.104667     4.093488     4.082308     4.071129     4.059949     4.048770     4.037591
      4.026411     4.015232     4.004052     3.992873     3.981693     3.970514     3.959334     3.948155     3.936975     3.925796
      3.914617     3.903437     3.892258     3.881078     3.869899     3.858719     3.847540     3.836360     3.825181     3.814002
      3.802822     3.791643     3.780463     3.769284     3.758104     3.746925     3.735745     3.724566     3.713387     3.702207
      3.691028     3.679848     3.668669     3.657489     3.646310     3.635130     3.623951     3.612772     3.601592     3.590413
      3.579233     3.568054     3.556874     3.545695     3.534515     3.523336     3.512156     3.500977     3.489798     3.478618
      3.467439     3.456259     3.445080     3.433900     3.422721     3.411541     3.400362     3.389183     3.378003     3.366824
      3.355644     3.344465     3.333285     3.322106     3.310926     3.299747     3.288568     3.277388     3.266209     3.255029
      3.243850     3.232670     3.221491     3.210311     3.199132     3.187953     3.176773     3.165594     3.154414     3.143235
      3.132055     3.120876     3.109696     3.098517     3.087337     3.076158     3.064979     3.053799     3.042620     3.031440
      3.020261     3.009081     2.997902     2.986722     2.975543     2.964364     2.953184     2.942005     2.930825     2.919646
      2.908466     2.897287     2.886107     2.874928     2.863749     2.852569     2.841390     2.830210     2.819031     2.807851
      2.796672     2.785492     2.774313     2.763134     2.751954     2.740775     2.729595     2.718416     2.707236     2.696057
      2.684877     2.673698     2.662519     2.651339     2.640160     2.628980     2.617801     2.606621     2.595442     2.584262
      2.573083     2.561903     2.550724     2.539545     2.528365     2.517186     2.506006     2.494827     2.483647     2.472468
      2.461288     2.450109     2.438930     2.427750     2.416571     2.405391     2.394212     2.383032     2.371853     2.360673
      2.349494     2.338315     2.327135     2.315956     2.304776     2.293597     2.282417     2.271238     2.260058     2.248879
      2.237700     2.226520     2.215341     2.204161     2.192982     2.181802     2.170623     2.159443     2.148264     2.137084
      2.125905     2.114726     2.103546     2.092367     2.081187     2.070008     2.058828     2.047649     2.036469     2.025290
      2.014111     2.002931     1.991752     1.980572     1.969393     1.958213     1.947034     1.935854     1.924675     1.913496
      1.902316     1.891137     1.879957     1.868778     1.857598     1.846419     1.835239     1.824060     1.812881     1.801701
      1.790522     1.779342     1.768163     1.756983     1.745804     1.734624     1.723445     1.712265     1.701086     1.689907
      1.678727     1.667548     1.656368     1.645189     1.634009     1.622830     1.611650     1.600471     1.589292     1.578112
      1.566933     1.555753     1.544574     1.533394     1.522215     1.511035     1.499856     1.488677     1.477497     1.466318
      1.455138     1.443959     1.432779     1.421600     1.410420     1.399241     1.388062     1.376882     1.365703     1.354523
      1.343344     1.332164     1.320985     1.309805     1.298626     1.287446     1.276267     1.265088     1.253908     1.242729
      1.231549     1.220370     1.209190     1.198011     1.186831     1.175652     1.164473     1.153293     1.142114     1.130934
      1.119755     1.108575     1.097396     1.086216     1.075037     1.063858     1.052678     1.041499     1.030319     1.019140
      1.007960     0.996781     0.985601     0.974422     0.963243     0.952063     0.940884     0.929704     0.918525     0.907345
      0.896166     0.884986     0.873807     0.862628     0.851448     0.840269     0.829089     0.817910     0.806730     0.795551
      0.784371     0.773192     0.762012     0.750833     0.739654     0.728474     0.717295     0.706115     0.694936     0.683756
      0.672577     0.661397     0.650218     0.639039     0.627859     0.616680     0.605500     0.594321     0.583141     0.571962
      0.560782     0.549603     0.538424     0.527244     0.516065     0.504885     0.493706     0.482526     0.471347     0.460167
      0.448988     0.437809     0.426629     0.415450     0.404270     0.393091     0.381911     0.370732     0.359552     0.348373
      0.337193     0.326014     0.314835     0.303655     0.292476     0.281296     0.270117     0.258937     0.247758     0.236578
      0.225399     0.214220     0.203040
 NY phased data points follow
   7.92079E-09  7.41496E-09  7.87716E-09  8.17553E-09  8.08062E-09  9.06850E-09  9.56877E-09  9.11671E-09  9.90436E-09  9.59770E-09
   8.92899E-09  9.15901E-09  9.37005E-09  9.09586E-09  8.54024E-09  8.53166E-09  8.24715E-09  8.79105E-09  8.73417E-09  9.36543E-09
   8.64245E-09  9.12047E-09  7.94872E-09  8.26429E-09  8.42578E-09  1.11352E-08  1.10251E-08  1.14358E-08  1.02218E-08  1.01455E-08
   8.81018E-09  9.02126E-09  8.18962E-09  8.62579E-09  7.72484E-09  7.97856E-09  7.65112E-09  8.00827E-09  7.21816E-09  7.66147E-09
   6.25495E-09  6.58873E-09  6.22531E-09  6.80865E-09  5.76752E-09  6.95233E-09  5.47163E-09  6.50483E-09  5.05680E-09  5.78908E-09
   4.31786E-09  5.90950E-09  4.96400E-09  6.37457E-09  5.08320E-09  6.99823E-09  7.53234E-09  1.03360E-08  9.15370E-09  1.05360E-08
   8.46878E-09  8.54225E-09  7.09820E-09  7.85071E-09  6.77300E-09  7.02145E-09  5.42888E-09  5.78449E-09  4.53516E-09  5.55651E-09
   3.32233E-09  5.05612E-09  5.40456E-09  1.04171E-08  1.12878E-08  1.29603E-08  1.09256E-08  1.21944E-08  1.08321E-08  1.12389E-08
   9.94413E-09  1.13676E-08  1.00003E-08  1.10043E-08  9.36503E-09  1.10177E-08  8.46541E-09  1.05936E-08  8.36898E-09  9.72559E-09
   7.75407E-09  8.53711E-09  7.09899E-09  7.78858E-09  6.60384E-09  7.74950E-09  6.55051E-09  7.60835E-09  6.07104E-09  7.58263E-09
   6.54543E-09  7.33851E-09  5.89439E-09  6.55529E-09  4.65456E-09  5.47274E-09  4.71506E-09  5.79125E-09  4.73743E-09  5.47280E-09
   5.00251E-09  6.23815E-09  4.59875E-09  6.25601E-09  4.70951E-09  6.28795E-09  4.80417E-09  6.17217E-09  4.35582E-09  5.14829E-09
   3.69134E-09  4.50193E-09  3.28626E-09  5.08868E-09  3.88115E-09  4.87416E-09  3.21759E-09  5.45554E-09  4.51637E-09  4.52949E-09
   3.25162E-09  4.57903E-09  3.10399E-09  5.25660E-09  5.09220E-09  6.62830E-09  5.06443E-09  6.03354E-09  5.28818E-09  7.12154E-09
   6.53682E-09  7.64117E-09  6.42811E-09  7.79271E-09  6.54545E-09  7.79672E-09  7.07625E-09  7.56649E-09  7.04984E-09  7.71256E-09
   6.76095E-09  7.69047E-09  6.24119E-09  7.33916E-09  6.17004E-09  7.22511E-09  6.56128E-09  7.08133E-09  5.80642E-09  6.09257E-09
   6.08850E-09  5.96356E-09  3.91235E-09  3.46474E-09  5.29174E-09  1.07584E-08  1.34207E-08  1.54089E-08  1.56906E-08  1.67189E-08
   1.64080E-08  1.72426E-08  1.70959E-08  1.77520E-08  1.66833E-08  1.73224E-08  1.61700E-08  1.62363E-08  1.51588E-08  1.46760E-08
   1.22904E-08  1.13915E-08  9.22009E-09  7.84330E-09  5.51645E-09  4.02478E-09  1.36420E-09  8.98062E-11 -2.15247E-09 -2.97295E-09
  -4.54165E-09 -4.93133E-09 -5.79922E-09 -5.55038E-09 -6.19458E-09 -5.53857E-09 -5.31816E-09 -4.21369E-09 -4.18104E-09 -3.14094E-09
  -3.26784E-09 -1.76536E-09 -2.51852E-09 -1.39643E-09 -1.56692E-09 -8.49382E-10 -1.58648E-09 -1.27188E-09 -1.17853E-09 -1.06170E-09
  -1.17243E-09 -6.73525E-10 -1.19510E-09 -6.56340E-10 -1.01059E-09 -8.18865E-10 -8.29923E-10 -1.10907E-09 -9.78695E-10 -3.33451E-10
  -5.28097E-10 -5.91936E-10 -1.25174E-09 -7.21857E-10 -5.13547E-10 -2.85787E-10 -6.19189E-10 -5.27641E-10 -1.03655E-09 -9.68424E-10
  -1.01431E-09 -4.40766E-11 -6.92106E-10 -7.55178E-10 -9.59480E-10 -4.54172E-10 -8.84218E-10 -6.62777E-10 -8.51767E-10 -6.93229E-10
  -1.03399E-09 -8.50776E-10 -1.21346E-09 -9.63160E-10 -1.10914E-09 -6.91646E-10 -1.00215E-09 -6.92115E-10 -6.67646E-10 -1.01977E-09
  -6.87709E-10 -1.16889E-09 -6.25862E-10 -5.99817E-10 -5.63504E-10 -9.32654E-10 -5.22448E-10 -1.01431E-09 -6.36595E-10 -9.59580E-10
  -1.08047E-09 -1.39407E-09 -1.74278E-09 -1.98987E-09 -1.47911E-09 -1.84015E-09 -1.87890E-09 -1.98611E-09 -1.22333E-09 -1.97562E-09
  -1.00908E-09 -1.08352E-09 -7.11005E-10 -1.11964E-09 -3.16414E-10 -4.75089E-10 -1.68044E-10 -4.42843E-10 -5.10048E-11 -1.75802E-10
  -3.00765E-10 -4.46833E-10  1.48314E-10 -5.36228E-10  2.26866E-10 -5.26470E-10  2.90364E-10 -8.80596E-10 -6.16248E-10 -1.75830E-10
  -3.27118E-10 -7.29200E-10  3.24845E-10 -6.84538E-10 -3.40892E-10 -6.60345E-10 -1.46285E-10 -5.40162E-10 -3.46898E-10 -6.40944E-10
  -3.11197E-11 -9.18017E-10 -3.06811E-10 -9.10752E-10 -2.46418E-10 -1.06042E-09 -5.96332E-10 -6.20173E-10 -4.91004E-10 -9.99387E-10
  -6.89796E-10 -7.76085E-10 -4.41029E-10 -8.07170E-10 -8.99077E-10 -1.10836E-09 -7.48130E-10 -1.23784E-09 -1.81524E-10 -8.31483E-10
  -5.16043E-10 -1.11153E-09 -1.12640E-09 -8.85265E-10 -6.08495E-10 -1.06808E-09 -3.71722E-10 -1.25993E-09 -4.43077E-10 -1.43286E-09
  -7.59298E-11 -1.10646E-09 -7.44577E-10 -1.35698E-09 -1.12464E-09 -1.10818E-09 -4.99345E-10 -1.28614E-09 -9.17537E-10 -1.31186E-09
  -7.04442E-10 -1.35960E-09 -6.12175E-10 -9.73661E-10 -6.58495E-10 -1.47964E-09 -1.12029E-09 -1.06274E-09 -7.60852E-10 -1.80517E-09
  -7.97065E-10 -1.60034E-09 -8.16371E-10 -1.81532E-09 -6.61882E-10 -1.65861E-09 -1.37671E-09 -1.63140E-09 -6.63413E-10 -1.42714E-09
  -1.11396E-09 -1.47004E-09 -8.25588E-10
 NY points of the fit to the data follow
   9.08385E-09  8.60841E-09  8.52285E-09  7.70253E-09  7.47284E-09  8.32530E-09  8.82179E-09  8.59296E-09  9.82951E-09  9.98885E-09
   9.48093E-09  9.15999E-09  8.85252E-09  8.49542E-09  8.86818E-09  9.24500E-09  8.41213E-09  8.44725E-09  1.02752E-08  1.04114E-08
   8.49338E-09  7.77657E-09  8.30405E-09  8.96985E-09  8.89824E-09  9.69378E-09  1.04759E-08  1.11383E-08  1.08530E-08  9.77735E-09
   9.57794E-09  9.61554E-09  9.08067E-09  8.57097E-09  8.15676E-09  8.09642E-09  7.69312E-09  7.41038E-09  7.18926E-09  7.04757E-09
   6.91640E-09  6.88007E-09  7.08405E-09  7.19833E-09  6.89623E-09  6.39534E-09  6.37744E-09  5.49444E-09  5.19203E-09  5.16379E-09
   5.44545E-09  5.71174E-09  5.83506E-09  6.44900E-09  7.09971E-09  7.30984E-09  7.31634E-09  8.06092E-09  8.61499E-09  8.51524E-09
   8.60224E-09  8.45502E-09  8.33622E-09  8.48125E-09  8.03973E-09  7.53633E-09  7.40407E-09  7.28211E-09  6.71879E-09  6.67188E-09
   6.97848E-09  7.28764E-09  7.85252E-09  7.97540E-09  8.61504E-09  9.77006E-09  1.08223E-08  1.12169E-08  1.15673E-08  1.18792E-08
   1.17326E-08  1.16644E-08  1.14164E-08  1.07809E-08  1.07244E-08  1.05010E-08  9.66220E-09  8.24187E-09  7.52977E-09  7.17822E-09
   6.87854E-09  6.63695E-09  6.55737E-09  6.47604E-09  6.24529E-09  6.17339E-09  6.13072E-09  5.98373E-09  5.92178E-09  5.85822E-09
   5.79513E-09  5.75453E-09  5.72280E-09  5.70490E-09  5.68401E-09  5.66548E-09  5.65345E-09  5.64482E-09  5.63754E-09  5.63397E-09
   5.62545E-09  5.60240E-09  5.60184E-09  5.60127E-09  5.58140E-09  5.57177E-09  5.56526E-09  5.55952E-09  5.55376E-09  5.54761E-09
   5.54080E-09  5.53318E-09  5.52460E-09  5.51495E-09  5.50413E-09  5.49204E-09  5.47862E-09  5.46377E-09  5.44744E-09  5.42956E-09
   5.41007E-09  5.38892E-09  5.36605E-09  5.34143E-09  5.31500E-09  5.28671E-09  5.25655E-09  5.22448E-09  5.19057E-09  5.15487E-09
   5.11744E-09  5.07835E-09  5.03767E-09  4.99547E-09  4.95186E-09  4.90692E-09  4.86077E-09  4.81354E-09  4.76537E-09  4.71645E-09
   4.66700E-09  4.61725E-09  4.56754E-09  4.51828E-09  4.46999E-09  4.42341E-09  4.37951E-09  4.33969E-09  4.30601E-09  4.28167E-09
   4.27189E-09  4.28573E-09  4.34060E-09  4.47417E-09  4.78460E-09  5.61513E-09  8.80425E-09  1.51571E-08  1.69638E-08  1.67018E-08
   1.70212E-08  1.73364E-08  1.72568E-08  1.71787E-08  1.70013E-08  1.71317E-08  1.79256E-08  1.58071E-08  8.15473E-09  4.57575E-09
   3.52098E-09  3.03595E-09  2.74126E-09  2.53082E-09  2.36441E-09  2.22369E-09  2.09918E-09  1.98553E-09  1.87953E-09  1.77913E-09
   1.68301E-09  1.59024E-09  1.50022E-09  1.41247E-09  1.32669E-09  1.24264E-09  1.16016E-09  1.07913E-09  9.99463E-10  9.21090E-10
   8.43982E-10  7.68114E-10  6.93470E-10  6.20055E-10  5.47870E-10  4.76918E-10  4.07224E-10  3.38809E-10  2.71694E-10  2.05911E-10
   1.41487E-10  7.84535E-11  1.68334E-11 -4.33394E-11 -1.02007E-10 -1.59156E-10 -2.14742E-10 -2.68733E-10 -3.21084E-10 -3.71752E-10
  -4.20721E-10 -4.67923E-10 -5.13332E-10 -5.56920E-10 -5.98640E-10 -6.38423E-10 -6.76278E-10 -7.12148E-10 -7.46046E-10 -7.78027E-10
  -8.08140E-10 -8.36430E-10 -8.62948E-10 -8.87742E-10 -9.10857E-10 -9.32343E-10 -9.52247E-10 -9.70616E-10 -9.87499E-10 -1.00294E-09
  -1.01699E-09 -1.02969E-09 -1.04109E-09 -1.05124E-09 -1.06019E-09 -1.06797E-09 -1.07465E-09 -1.08026E-09 -1.08485E-09 -1.08847E-09
  -1.09116E-09 -1.09297E-09 -1.09395E-09 -1.09414E-09 -1.09359E-09 -1.09234E-09 -1.09045E-09 -1.08795E-09 -1.08489E-09 -1.08132E-09
  -1.07728E-09 -1.07282E-09 -1.06799E-09 -1.06282E-09 -1.05737E-09 -1.05167E-09 -1.04578E-09 -1.03975E-09 -1.03359E-09 -1.02739E-09
  -1.02116E-09 -1.01496E-09 -1.00883E-09 -1.00279E-09 -9.96852E-10 -9.91014E-10 -9.85284E-10 -9.79661E-10 -9.74149E-10 -9.68751E-10
  -9.63473E-10 -9.58313E-10 -9.53281E-10 -9.48377E-10 -9.43604E-10 -9.38963E-10 -9.34462E-10 -9.30100E-10 -9.25881E-10 -9.21811E-10
  -9.17889E-10 -9.14120E-10 -9.10507E-10 -9.07056E-10 -9.03765E-10 -9.00638E-10 -8.97680E-10 -8.94895E-10 -8.92281E-10 -8.89846E-10
  -8.87589E-10 -8.85516E-10 -8.83626E-10 -8.81926E-10 -8.80417E-10 -8.79103E-10 -8.77982E-10 -8.77065E-10 -8.76345E-10 -8.75837E-10
  -8.75533E-10 -8.75437E-10 -8.75554E-10 -8.75895E-10 -8.76448E-10 -8.77221E-10 -8.78222E-10 -8.79438E-10 -8.80887E-10 -8.82555E-10
  -8.84436E-10 -8.86521E-10 -8.88803E-10 -8.91275E-10 -8.93933E-10 -8.96765E-10 -8.99768E-10 -9.02932E-10 -9.06252E-10 -9.09720E-10
  -9.13330E-10 -9.17073E-10 -9.20945E-10 -9.24936E-10 -9.29042E-10 -9.33253E-10 -9.37566E-10 -9.41970E-10 -9.46461E-10 -9.51033E-10
  -9.55676E-10 -9.60385E-10 -9.65153E-10 -9.69972E-10 -9.74839E-10 -9.79747E-10 -9.84685E-10 -9.89648E-10 -9.94635E-10 -9.99630E-10
  -1.00463E-09 -1.00963E-09 -1.01463E-09 -1.01961E-09 -1.02458E-09 -1.02951E-09 -1.03442E-09 -1.03929E-09 -1.04410E-09 -1.04888E-09
  -1.05359E-09 -1.05824E-09 -1.06281E-09
 NY background values follow
    -3.019E-09   -2.949E-09   -2.879E-09   -2.809E-09   -2.739E-09   -2.669E-09   -2.598E-09   -2.527E-09   -2.457E-09   -2.386E-09
    -2.315E-09   -2.243E-09   -2.172E-09   -2.101E-09   -2.029E-09   -1.957E-09   -1.886E-09   -1.814E-09   -1.742E-09   -1.670E-09
    -1.597E-09   -1.525E-09   -1.453E-09   -1.380E-09   -1.308E-09   -1.235E-09   -1.163E-09   -1.090E-09   -1.017E-09   -9.442E-10
    -8.713E-10   -7.983E-10   -7.253E-10   -6.523E-10   -5.792E-10   -5.062E-10   -4.330E-10   -3.599E-10   -2.868E-10   -2.136E-10
    -1.404E-10   -6.725E-11    5.924E-12    7.910E-11    1.523E-10    2.254E-10    2.985E-10    3.716E-10    4.446E-10    5.176E-10
     5.904E-10    6.632E-10    7.359E-10    8.084E-10    8.807E-10    9.529E-10    1.025E-09    1.097E-09    1.168E-09    1.239E-09
     1.310E-09    1.381E-09    1.451E-09    1.521E-09    1.591E-09    1.660E-09    1.729E-09    1.798E-09    1.866E-09    1.934E-09
     2.001E-09    2.068E-09    2.134E-09    2.200E-09    2.265E-09    2.330E-09    2.394E-09    2.457E-09    2.520E-09    2.582E-09
     2.644E-09    2.705E-09    2.765E-09    2.824E-09    2.883E-09    2.941E-09    2.998E-09    3.055E-09    3.111E-09    3.165E-09
     3.219E-09    3.273E-09    3.325E-09    3.376E-09    3.427E-09    3.476E-09    3.524E-09    3.572E-09    3.618E-09    3.663E-09
     3.707E-09    3.750E-09    3.791E-09    3.832E-09    3.871E-09    3.908E-09    3.944E-09    3.979E-09    4.013E-09    4.045E-09
     4.075E-09    4.104E-09    4.132E-09    4.158E-09    4.182E-09    4.204E-09    4.225E-09    4.244E-09    4.262E-09    4.277E-09
     4.291E-09    4.303E-09    4.313E-09    4.321E-09    4.327E-09    4.331E-09    4.333E-09    4.333E-09    4.330E-09    4.326E-09
     4.320E-09    4.311E-09    4.300E-09    4.287E-09    4.271E-09    4.253E-09    4.233E-09    4.211E-09    4.186E-09    4.158E-09
     4.129E-09    4.097E-09    4.064E-09    4.028E-09    3.990E-09    3.950E-09    3.909E-09    3.865E-09    3.819E-09    3.772E-09
     3.723E-09    3.673E-09    3.620E-09    3.567E-09    3.511E-09    3.455E-09    3.396E-09    3.337E-09    3.276E-09    3.214E-09
     3.150E-09    3.086E-09    3.020E-09    2.954E-09    2.886E-09    2.817E-09    2.748E-09    2.678E-09    2.606E-09    2.535E-09
     2.462E-09    2.389E-09    2.315E-09    2.241E-09    2.166E-09    2.091E-09    2.015E-09    1.939E-09    1.863E-09    1.787E-09
     1.710E-09    1.634E-09    1.557E-09    1.480E-09    1.403E-09    1.327E-09    1.250E-09    1.174E-09    1.098E-09    1.022E-09
     9.463E-10    8.711E-10    7.963E-10    7.219E-10    6.480E-10    5.746E-10    5.018E-10    4.296E-10    3.581E-10    2.873E-10
     2.173E-10    1.480E-10    7.965E-11    1.214E-11   -5.442E-11   -1.200E-10   -1.846E-10   -2.481E-10   -3.105E-10   -3.717E-10
    -4.317E-10   -4.905E-10   -5.480E-10   -6.041E-10   -6.589E-10   -7.123E-10   -7.641E-10   -8.145E-10   -8.634E-10   -9.106E-10
    -9.562E-10   -1.000E-09   -1.042E-09   -1.083E-09   -1.121E-09   -1.158E-09   -1.193E-09   -1.226E-09   -1.257E-09   -1.286E-09
    -1.313E-09   -1.339E-09   -1.362E-09   -1.385E-09   -1.405E-09   -1.424E-09   -1.441E-09   -1.457E-09   -1.472E-09   -1.484E-09
    -1.496E-09   -1.506E-09   -1.515E-09   -1.523E-09   -1.530E-09   -1.535E-09   -1.540E-09   -1.543E-09   -1.546E-09   -1.547E-09
    -1.548E-09   -1.547E-09   -1.546E-09   -1.544E-09   -1.542E-09   -1.538E-09   -1.534E-09   -1.530E-09   -1.525E-09   -1.519E-09
    -1.513E-09   -1.507E-09   -1.500E-09   -1.493E-09   -1.486E-09   -1.478E-09   -1.471E-09   -1.463E-09   -1.455E-09   -1.447E-09
    -1.439E-09   -1.431E-09   -1.423E-09   -1.415E-09   -1.408E-09   -1.400E-09   -1.393E-09   -1.386E-09   -1.378E-09   -1.371E-09
    -1.364E-09   -1.358E-09   -1.351E-09   -1.345E-09   -1.338E-09   -1.332E-09   -1.326E-09   -1.320E-09   -1.315E-09   -1.309E-09
    -1.304E-09   -1.298E-09   -1.293E-09   -1.288E-09   -1.284E-09   -1.279E-09   -1.275E-09   -1.271E-09   -1.267E-09   -1.263E-09
    -1.259E-09   -1.256E-09   -1.253E-09   -1.250E-09   -1.247E-09   -1.244E-09   -1.242E-09   -1.239E-09   -1.237E-09   -1.236E-09
    -1.234E-09   -1.233E-09   -1.232E-09   -1.231E-09   -1.230E-09   -1.230E-09   -1.229E-09   -1.229E-09   -1.230E-09   -1.230E-09
    -1.231E-09   -1.232E-09   -1.233E-09   -1.234E-09   -1.236E-09   -1.237E-09   -1.239E-09   -1.241E-09   -1.244E-09   -1.246E-09
    -1.248E-09   -1.251E-09   -1.254E-09   -1.257E-09   -1.260E-09   -1.263E-09   -1.266E-09   -1.270E-09   -1.273E-09   -1.277E-09
    -1.280E-09   -1.284E-09   -1.288E-09   -1.291E-09   -1.295E-09   -1.299E-09   -1.303E-09   -1.307E-09   -1.311E-09   -1.315E-09
    -1.319E-09   -1.323E-09   -1.327E-09   -1.331E-09   -1.335E-09   -1.339E-09   -1.343E-09   -1.347E-09   -1.351E-09   -1.355E-09
    -1.359E-09   -1.363E-09   -1.366E-09
 Ala      Conc. = 1.27E-11
  -3.01203E-09 -2.94184E-09 -2.87193E-09 -2.80046E-09 -2.72996E-09 -2.66016E-09 -2.58800E-09 -2.51761E-09 -2.45001E-09 -2.37762E-09
  -2.30602E-09 -2.23795E-09 -2.16705E-09 -2.09566E-09 -2.02517E-09 -1.95420E-09 -1.88291E-09 -1.81139E-09 -1.73968E-09 -1.66781E-09
  -1.59581E-09 -1.52369E-09 -1.45146E-09 -1.37913E-09 -1.30671E-09 -1.23420E-09 -1.16162E-09 -1.08896E-09 -1.01624E-09 -9.43449E-10
  -8.70604E-10 -7.97715E-10 -7.24769E-10 -6.51789E-10 -5.78771E-10 -5.05722E-10 -4.32646E-10 -3.59538E-10 -2.86422E-10 -2.13294E-10
  -1.40135E-10 -6.70006E-11  6.14294E-12  7.92946E-11  1.52428E-10  2.25550E-10  2.98609E-10  3.71674E-10  4.44688E-10  5.17634E-10
   5.90490E-10  6.63241E-10  7.35868E-10  8.08349E-10  8.80674E-10  9.52814E-10  1.02476E-09  1.09648E-09  1.16797E-09  1.23921E-09
   1.31017E-09  1.38084E-09  1.45120E-09  1.52123E-09  1.59092E-09  1.66023E-09  1.72917E-09  1.79769E-09  1.86580E-09  1.93346E-09
   2.00066E-09  2.06738E-09  2.13361E-09  2.19931E-09  2.26448E-09  2.32910E-09  2.39314E-09  2.45658E-09  2.51941E-09  2.58162E-09
   2.64317E-09  2.70405E-09  2.76424E-09  2.82372E-09  2.88249E-09  2.94051E-09  2.99776E-09  3.05423E-09  3.10991E-09  3.16477E-09
   3.21880E-09  3.27199E-09  3.32431E-09  3.37576E-09  3.42631E-09  3.47599E-09  3.52486E-09  3.57310E-09  3.62138E-09  3.67253E-09
   3.73167E-09  3.77256E-09  3.81432E-09  3.87127E-09  3.91509E-09  3.95280E-09  3.99114E-09  4.02753E-09  4.06187E-09  4.09668E-09
   4.12365E-09  4.13369E-09  4.16406E-09  4.19251E-09  4.19998E-09  4.21613E-09  4.23396E-09  4.25130E-09  4.26747E-09  4.28218E-09
   4.29526E-09  4.30661E-09  4.31615E-09  4.32383E-09  4.32959E-09  4.33339E-09  4.33519E-09  4.33494E-09  4.33261E-09  4.32816E-09
   4.32155E-09  4.31276E-09  4.30174E-09  4.28846E-09  4.27288E-09  4.25498E-09  4.23471E-09  4.21207E-09  4.18711E-09  4.15988E-09
   4.13041E-09  4.09877E-09  4.06500E-09  4.02916E-09  3.99129E-09  3.95144E-09  3.90968E-09  3.86603E-09  3.82057E-09  3.77333E-09
   3.72438E-09  3.67375E-09  3.62151E-09  3.56770E-09  3.51238E-09  3.45560E-09  3.39741E-09  3.33786E-09  3.27701E-09  3.21491E-09
   3.15164E-09  3.08724E-09  3.02179E-09  2.95539E-09  2.88822E-09  2.82075E-09  2.75531E-09  2.69619E-09  2.62609E-09  2.55350E-09
   2.48176E-09  2.40915E-09  2.33521E-09  2.26099E-09  2.18602E-09  2.11099E-09  2.03711E-09  1.95924E-09  1.86948E-09  1.78982E-09
   1.71221E-09  1.63506E-09  1.55806E-09  1.48115E-09  1.40433E-09  1.32760E-09  1.25103E-09  1.17463E-09  1.09846E-09  1.02255E-09
   9.46960E-10  8.71708E-10  7.96869E-10  7.22463E-10  6.48546E-10  5.75158E-10  5.02351E-10  4.30164E-10  3.58646E-10  2.87835E-10
   2.17783E-10  1.48534E-10  8.01282E-11  1.26187E-11 -5.39550E-11 -1.19555E-10 -1.84129E-10 -2.47634E-10 -3.10027E-10 -3.71258E-10
  -4.31285E-10 -4.90064E-10 -5.47559E-10 -6.03728E-10 -6.58502E-10 -7.11859E-10 -7.63749E-10 -8.14136E-10 -8.62966E-10 -9.10189E-10
  -9.55790E-10 -9.99694E-10 -1.04187E-09 -1.08229E-09 -1.12090E-09 -1.15763E-09 -1.19248E-09 -1.22540E-09 -1.25640E-09 -1.28553E-09
  -1.31284E-09 -1.33837E-09 -1.36216E-09 -1.38428E-09 -1.40475E-09 -1.42364E-09 -1.44097E-09 -1.45681E-09 -1.47120E-09 -1.48417E-09
  -1.49579E-09 -1.50609E-09 -1.51512E-09 -1.52293E-09 -1.52957E-09 -1.53507E-09 -1.53949E-09 -1.54287E-09 -1.54525E-09 -1.54669E-09
  -1.54723E-09 -1.54691E-09 -1.54579E-09 -1.54389E-09 -1.54128E-09 -1.53799E-09 -1.53408E-09 -1.52959E-09 -1.52456E-09 -1.51903E-09
  -1.51306E-09 -1.50669E-09 -1.49995E-09 -1.49291E-09 -1.48560E-09 -1.47807E-09 -1.47035E-09 -1.46251E-09 -1.45457E-09 -1.44659E-09
  -1.43861E-09 -1.43067E-09 -1.42282E-09 -1.41508E-09 -1.40745E-09 -1.39994E-09 -1.39255E-09 -1.38528E-09 -1.37814E-09 -1.37113E-09
  -1.36425E-09 -1.35750E-09 -1.35090E-09 -1.34443E-09 -1.33811E-09 -1.33194E-09 -1.32591E-09 -1.32004E-09 -1.31433E-09 -1.30878E-09
  -1.30339E-09 -1.29816E-09 -1.29310E-09 -1.28821E-09 -1.28349E-09 -1.27895E-09 -1.27460E-09 -1.27042E-09 -1.26643E-09 -1.26262E-09
  -1.25901E-09 -1.25559E-09 -1.25236E-09 -1.24933E-09 -1.24651E-09 -1.24389E-09 -1.24147E-09 -1.23926E-09 -1.23727E-09 -1.23549E-09
  -1.23393E-09 -1.23258E-09 -1.23146E-09 -1.23056E-09 -1.22989E-09 -1.22945E-09 -1.22925E-09 -1.22926E-09 -1.22952E-09 -1.23001E-09
  -1.23072E-09 -1.23164E-09 -1.23277E-09 -1.23409E-09 -1.23561E-09 -1.23731E-09 -1.23918E-09 -1.24123E-09 -1.24344E-09 -1.24580E-09
  -1.24832E-09 -1.25097E-09 -1.25376E-09 -1.25668E-09 -1.25971E-09 -1.26286E-09 -1.26612E-09 -1.26948E-09 -1.27293E-09 -1.27647E-09
  -1.28008E-09 -1.28377E-09 -1.28752E-09 -1.29133E-09 -1.29519E-09 -1.29910E-09 -1.30305E-09 -1.30702E-09 -1.31103E-09 -1.31505E-09
  -1.31908E-09 -1.32312E-09 -1.32716E-09 -1.33119E-09 -1.33521E-09 -1.33920E-09 -1.34317E-09 -1.34711E-09 -1.35100E-09 -1.35485E-09
  -1.35865E-09 -1.36239E-09 -1.36605E-09
 Asp      Conc. = 7.10E-10
  -2.25274E-09 -2.24741E-09 -2.23967E-09 -2.26387E-09 -2.20704E-09 -2.22942E-09 -2.19954E-09 -2.25810E-09 -2.25624E-09 -2.22791E-09
  -2.18635E-09 -2.13739E-09 -2.08386E-09 -2.02542E-09 -1.96411E-09 -1.90151E-09 -1.83768E-09 -1.77279E-09 -1.70702E-09 -1.64050E-09
  -1.57335E-09 -1.50563E-09 -1.43741E-09 -1.36875E-09 -1.29967E-09 -1.23017E-09 -1.16024E-09 -1.08986E-09 -1.01898E-09 -9.47440E-10
  -8.75066E-10 -8.01515E-10 -7.26136E-10 -6.47692E-10 -5.63299E-10 -4.64619E-10 -3.23173E-10 -2.21843E-10 -8.30704E-11 -1.53857E-11
   3.93625E-11  1.14781E-10  2.44572E-10  4.78911E-10  6.95874E-10  1.06648E-09  1.15332E-09  1.13417E-09  1.36321E-09  1.46606E-09
   1.55272E-09  1.72391E-09  1.90414E-09  1.97625E-09  1.93981E-09  1.98094E-09  1.71486E-09  1.75599E-09  1.90816E-09  1.83820E-09
   1.80192E-09  1.84540E-09  1.84036E-09  1.84349E-09  1.92584E-09  2.03978E-09  2.03900E-09  2.06117E-09  2.09790E-09  2.14234E-09
   2.19136E-09  2.24329E-09  2.29717E-09  2.35237E-09  2.40845E-09  2.46512E-09  2.52214E-09  2.57932E-09  2.63653E-09  2.69366E-09
   2.75059E-09  2.80726E-09  2.86359E-09  2.91951E-09  2.97499E-09  3.02995E-09  3.08437E-09  3.13818E-09  3.19137E-09  3.24390E-09
   3.29572E-09  3.34681E-09  3.39713E-09  3.44664E-09  3.49529E-09  3.54305E-09  3.58986E-09  3.63570E-09  3.68052E-09  3.72428E-09
   3.76695E-09  3.80849E-09  3.84885E-09  3.88801E-09  3.92592E-09  3.96255E-09  3.99786E-09  4.03182E-09  4.06438E-09  4.09552E-09
   4.12520E-09  4.15338E-09  4.18002E-09  4.20510E-09  4.22857E-09  4.25041E-09  4.27057E-09  4.28902E-09  4.30573E-09  4.32066E-09
   4.33378E-09  4.34505E-09  4.35445E-09  4.36192E-09  4.36745E-09  4.37099E-09  4.37252E-09  4.37200E-09  4.36939E-09  4.36467E-09
   4.35779E-09  4.34873E-09  4.33745E-09  4.32392E-09  4.30811E-09  4.28999E-09  4.26951E-09  4.24668E-09  4.22154E-09  4.19415E-09
   4.16455E-09  4.13280E-09  4.09895E-09  4.06304E-09  4.02515E-09  3.98532E-09  3.94360E-09  3.90006E-09  3.85476E-09  3.80774E-09
   3.75909E-09  3.70886E-09  3.65713E-09  3.60397E-09  3.54947E-09  3.49373E-09  3.43688E-09  3.37906E-09  3.32048E-09  3.26140E-09
   3.20227E-09  3.14377E-09  3.08719E-09  3.03519E-09  2.99443E-09  2.98662E-09  3.12088E-09  3.68797E-09  3.69222E-09  3.57844E-09
   3.54923E-09  3.51007E-09  3.42724E-09  3.35701E-09  3.27140E-09  3.20140E-09  3.22022E-09  3.06859E-09  2.22670E-09  1.94882E-09
   1.81069E-09  1.70664E-09  1.61498E-09  1.52903E-09  1.44615E-09  1.36514E-09  1.28539E-09  1.20655E-09  1.12845E-09  1.05099E-09
   9.74112E-10  8.97786E-10  8.22034E-10  7.46840E-10  6.72237E-10  5.98244E-10  5.24900E-10  4.52230E-10  3.80277E-10  3.09069E-10
   2.38653E-10  1.69069E-10  1.00354E-10  3.25553E-11 -3.42884E-11 -1.00142E-10 -1.64956E-10 -2.28686E-10 -2.91294E-10 -3.52729E-10
  -4.12951E-10 -4.71917E-10 -5.29591E-10 -5.85931E-10 -6.40871E-10 -6.94387E-10 -7.46432E-10 -7.96968E-10 -8.45943E-10 -8.93307E-10
  -9.39044E-10 -9.83082E-10 -1.02539E-09 -1.06593E-09 -1.10466E-09 -1.14151E-09 -1.17648E-09 -1.20952E-09 -1.24063E-09 -1.26987E-09
  -1.29729E-09 -1.32292E-09 -1.34682E-09 -1.36904E-09 -1.38961E-09 -1.40859E-09 -1.42603E-09 -1.44196E-09 -1.45644E-09 -1.46951E-09
