 LCModel (Version 6.3-1R) Copyright: S.W. Provencher.          Ref.: Magn. Reson. Med. 30:672-679 (1993).                
 onepulse 26x9_ftSpec_smooth_lcm
 26 lines in following concentration table = NCONC+1
    Conc.  %SD /Cr+PCr  Metabolite                                         
    0.000 999%   0.000 Ala                                                 
 8.79E-10  79%   9.775 Asp                                                 
    0.000 999%   0.000 Cr                                                  
 1.60E-10 318%   1.785 GABA                                                
 3.30E-11 999%   0.367 Glc                                                 
 2.21E-09  27%  24.622 Gln                                                 
    0.000 999%   0.000 Glu                                                 
 8.92E-10 195%   9.924 Glyc                                                
    0.000 999%   0.000 GPC                                                 
 6.25E-10  91%   6.951 GSH                                                 
 9.23E-10 171%  10.262 Ins                                                 
    0.000 999%   0.000 Lac                                                 
 4.86E-10  38%   5.408 NAAG                                                
    0.000 999%   0.000 NAA                                                 
    0.000 999%   0.000 PCh                                                 
 8.99E-11 380%   1.000 PCr                                                 
 2.15E-09  33%  23.906 PE                                                  
 3.30E-10  65%   3.672 Scyllo                                              
 9.22E-11 999%   1.026 Ser                                                 
    0.000 999%   0.000 Tau                                                 
    0.000 999%   0.000 GPC+PCh                                             
 4.86E-10  38%   5.408 NAA+NAAG                                            
 1.81E-09  28%  20.187 Ins+Glyc                                            
 8.99E-11 380%   1.000 Cr+PCr                                              
 2.21E-09  27%  24.622 Glu+Gln                                             
   6 lines in following misc. output table
  FWHM = 0.123 ppm    S/N =   3                                            
  Data shift = 0.402 ppm                                                   
  Ph: -42 deg     -54.0 deg/ppm                                            
  alphaB,S = 4.2E-01,   1.4E+01                                            
   11 spline knots.   Ns = 5(1)                                            
  (12) 6 infls.   (11) 3 extrs.                                            
  363 points on ppm-axis = NY
      4.250000     4.238821     4.227641     4.216462     4.205282     4.194103     4.182923     4.171744     4.160564     4.149385
      4.138206     4.127026     4.115847     4.104667     4.093488     4.082308     4.071129     4.059949     4.048770     4.037591
      4.026411     4.015232     4.004052     3.992873     3.981693     3.970514     3.959334     3.948155     3.936975     3.925796
      3.914617     3.903437     3.892258     3.881078     3.869899     3.858719     3.847540     3.836360     3.825181     3.814002
      3.802822     3.791643     3.780463     3.769284     3.758104     3.746925     3.735745     3.724566     3.713387     3.702207
      3.691028     3.679848     3.668669     3.657489     3.646310     3.635130     3.623951     3.612772     3.601592     3.590413
      3.579233     3.568054     3.556874     3.545695     3.534515     3.523336     3.512156     3.500977     3.489798     3.478618
      3.467439     3.456259     3.445080     3.433900     3.422721     3.411541     3.400362     3.389183     3.378003     3.366824
      3.355644     3.344465     3.333285     3.322106     3.310926     3.299747     3.288568     3.277388     3.266209     3.255029
      3.243850     3.232670     3.221491     3.210311     3.199132     3.187953     3.176773     3.165594     3.154414     3.143235
      3.132055     3.120876     3.109696     3.098517     3.087337     3.076158     3.064979     3.053799     3.042620     3.031440
      3.020261     3.009081     2.997902     2.986722     2.975543     2.964364     2.953184     2.942005     2.930825     2.919646
      2.908466     2.897287     2.886107     2.874928     2.863749     2.852569     2.841390     2.830210     2.819031     2.807851
      2.796672     2.785492     2.774313     2.763134     2.751954     2.740775     2.729595     2.718416     2.707236     2.696057
      2.684877     2.673698     2.662519     2.651339     2.640160     2.628980     2.617801     2.606621     2.595442     2.584262
      2.573083     2.561903     2.550724     2.539545     2.528365     2.517186     2.506006     2.494827     2.483647     2.472468
      2.461288     2.450109     2.438930     2.427750     2.416571     2.405391     2.394212     2.383032     2.371853     2.360673
      2.349494     2.338315     2.327135     2.315956     2.304776     2.293597     2.282417     2.271238     2.260058     2.248879
      2.237700     2.226520     2.215341     2.204161     2.192982     2.181802     2.170623     2.159443     2.148264     2.137084
      2.125905     2.114726     2.103546     2.092367     2.081187     2.070008     2.058828     2.047649     2.036469     2.025290
      2.014111     2.002931     1.991752     1.980572     1.969393     1.958213     1.947034     1.935854     1.924675     1.913496
      1.902316     1.891137     1.879957     1.868778     1.857598     1.846419     1.835239     1.824060     1.812881     1.801701
      1.790522     1.779342     1.768163     1.756983     1.745804     1.734624     1.723445     1.712265     1.701086     1.689907
      1.678727     1.667548     1.656368     1.645189     1.634009     1.622830     1.611650     1.600471     1.589292     1.578112
      1.566933     1.555753     1.544574     1.533394     1.522215     1.511035     1.499856     1.488677     1.477497     1.466318
      1.455138     1.443959     1.432779     1.421600     1.410420     1.399241     1.388062     1.376882     1.365703     1.354523
      1.343344     1.332164     1.320985     1.309805     1.298626     1.287446     1.276267     1.265088     1.253908     1.242729
      1.231549     1.220370     1.209190     1.198011     1.186831     1.175652     1.164473     1.153293     1.142114     1.130934
      1.119755     1.108575     1.097396     1.086216     1.075037     1.063858     1.052678     1.041499     1.030319     1.019140
      1.007960     0.996781     0.985601     0.974422     0.963243     0.952063     0.940884     0.929704     0.918525     0.907345
      0.896166     0.884986     0.873807     0.862628     0.851448     0.840269     0.829089     0.817910     0.806730     0.795551
      0.784371     0.773192     0.762012     0.750833     0.739654     0.728474     0.717295     0.706115     0.694936     0.683756
      0.672577     0.661397     0.650218     0.639039     0.627859     0.616680     0.605500     0.594321     0.583141     0.571962
      0.560782     0.549603     0.538424     0.527244     0.516065     0.504885     0.493706     0.482526     0.471347     0.460167
      0.448988     0.437809     0.426629     0.415450     0.404270     0.393091     0.381911     0.370732     0.359552     0.348373
      0.337193     0.326014     0.314835     0.303655     0.292476     0.281296     0.270117     0.258937     0.247758     0.236578
      0.225399     0.214220     0.203040
 NY phased data points follow
   7.30185E-09  5.36767E-09  6.95831E-09  5.74498E-09  7.54976E-09  6.38391E-09  8.06827E-09  7.98463E-09  8.77499E-09  7.47132E-09
   8.98062E-09  7.04714E-09  7.74643E-09  6.92683E-09  7.92151E-09  6.38989E-09  7.17156E-09  6.30048E-09  7.25012E-09  7.28834E-09
   8.03511E-09  7.34913E-09  7.36435E-09  6.68957E-09  7.00770E-09  7.14214E-09  8.91646E-09  1.04097E-08  9.63144E-09  8.80349E-09
   7.67647E-09  6.75621E-09  6.00051E-09  5.70490E-09  5.79289E-09  5.48931E-09  5.47356E-09  5.40025E-09  5.54815E-09  5.17985E-09
   5.17240E-09  4.83392E-09  4.34288E-09  4.27327E-09  4.87537E-09  4.92028E-09  4.87070E-09  5.17004E-09  4.56376E-09  5.04562E-09
   4.23054E-09  4.77941E-09  4.30191E-09  5.79228E-09  5.62505E-09  6.54603E-09  6.11969E-09  8.59753E-09  1.01450E-08  1.14758E-08
   9.75888E-09  9.83538E-09  7.46165E-09  7.58363E-09  6.33110E-09  7.07174E-09  6.02288E-09  5.88283E-09  5.18266E-09  5.29086E-09
   5.11689E-09  5.80992E-09  4.92440E-09  7.28758E-09  9.39258E-09  1.44438E-08  1.42655E-08  1.38476E-08  1.12460E-08  1.20862E-08
   1.05779E-08  1.06388E-08  9.37827E-09  1.05156E-08  9.47829E-09  9.87848E-09  8.43039E-09  9.36317E-09  7.19562E-09  9.09513E-09
   6.65447E-09  8.06732E-09  5.89257E-09  6.99813E-09  5.55924E-09  6.43305E-09  5.23918E-09  6.69678E-09  5.39897E-09  6.41447E-09
   4.78535E-09  6.91457E-09  5.30991E-09  6.06782E-09  4.38295E-09  5.15495E-09  3.20499E-09  4.57763E-09  3.83895E-09  5.29140E-09
   4.07099E-09  5.30559E-09  4.71858E-09  6.19277E-09  4.40632E-09  6.14445E-09  4.46249E-09  6.31379E-09  4.43535E-09  5.93633E-09
   3.78872E-09  4.83215E-09  3.04969E-09  4.64050E-09  3.45526E-09  5.44436E-09  3.75379E-09  5.27040E-09  3.55515E-09  6.28157E-09
   4.53157E-09  4.95813E-09  3.76033E-09  5.12520E-09  3.85370E-09  6.68498E-09  6.22149E-09  7.73108E-09  5.90560E-09  7.12780E-09
   6.20840E-09  8.39864E-09  7.41087E-09  8.58644E-09  6.98197E-09  8.67777E-09  6.98776E-09  8.41913E-09  7.17468E-09  8.01127E-09
   7.15672E-09  8.19097E-09  6.59332E-09  7.69412E-09  6.09276E-09  7.30391E-09  5.94253E-09  7.46426E-09  6.23002E-09  7.29515E-09
   5.38016E-09  6.41889E-09  5.92817E-09  6.11801E-09  3.67479E-09  4.49131E-09  7.63281E-09  1.46373E-08  1.64691E-08  1.76438E-08
   1.65940E-08  1.73268E-08  1.59691E-08  1.67550E-08  1.58845E-08  1.61391E-08  1.47601E-08  1.53326E-08  1.34009E-08  1.34659E-08
   1.18723E-08  1.13761E-08  8.54368E-09  7.91371E-09  5.53798E-09  4.26269E-09  1.96965E-09  6.33633E-10 -1.96279E-09 -3.10346E-09
  -5.27676E-09 -5.71656E-09 -7.43183E-09 -7.67847E-09 -8.44400E-09 -8.11284E-09 -8.83698E-09 -7.73057E-09 -7.88461E-09 -6.51063E-09
  -6.39074E-09 -5.31979E-09 -5.07050E-09 -3.24467E-09 -4.00261E-09 -2.48298E-09 -2.74615E-09 -1.68493E-09 -2.61533E-09 -2.19089E-09
  -1.98226E-09 -1.63690E-09 -2.19404E-09 -1.44872E-09 -2.00197E-09 -1.42552E-09 -1.81515E-09 -1.54889E-09 -1.50925E-09 -1.62828E-09
  -1.44879E-09 -8.71096E-10 -1.17088E-09 -1.31058E-09 -1.96204E-09 -1.33647E-09 -1.21494E-09 -9.88097E-10 -1.07146E-09 -1.17912E-09
  -1.58974E-09 -1.54848E-09 -1.14560E-09 -4.65360E-10 -1.19434E-09 -1.23600E-09 -1.42955E-09 -1.07584E-09 -1.41007E-09 -1.50265E-09
  -1.29951E-09 -1.22905E-09 -1.60196E-09 -1.35263E-09 -1.62111E-09 -1.26816E-09 -1.24820E-09 -1.03230E-09 -1.13699E-09 -8.82219E-10
  -8.81429E-10 -1.16776E-09 -8.01173E-10 -1.43917E-09 -6.27601E-10 -1.06257E-09 -7.64136E-10 -1.52660E-09 -6.91706E-10 -1.49918E-09
  -9.32092E-10 -1.59941E-09 -1.48189E-09 -1.91101E-09 -2.03695E-09 -2.38771E-09 -1.81578E-09 -2.18165E-09 -2.08648E-09 -2.30557E-09
  -1.41465E-09 -2.20744E-09 -9.90391E-10 -1.35695E-09 -6.79629E-10 -1.37494E-09 -3.39978E-10 -5.92233E-10 -4.06836E-11 -7.44727E-10
   2.87176E-11 -5.71844E-10 -2.54239E-10 -9.35372E-10  1.89110E-10 -6.96082E-10  9.23666E-11 -8.93827E-10  9.05149E-11 -9.02504E-10
  -5.80705E-10 -2.75851E-10 -3.76213E-10 -1.17782E-09  3.26990E-10 -8.94558E-10 -4.01229E-10 -8.39185E-10 -3.37068E-10 -8.38463E-10
  -3.33522E-10 -9.15101E-10  9.20686E-12 -1.27003E-09 -5.39309E-10 -1.17404E-09 -3.35367E-10 -1.20251E-09 -5.06043E-10 -1.09857E-09
  -4.58423E-10 -1.25086E-09 -6.77514E-10 -1.15051E-09 -4.87291E-10 -1.08200E-09 -9.22671E-10 -1.36685E-09 -6.73492E-10 -1.57472E-09
  -1.51529E-10 -1.06492E-09 -4.88079E-10 -1.40742E-09 -1.01029E-09 -1.07009E-09 -5.58409E-10 -1.38890E-09 -4.21173E-10 -1.54906E-09
  -2.73361E-10 -1.42947E-09 -1.31480E-10 -1.43422E-09 -7.38783E-10 -1.47441E-09 -9.63405E-10 -1.11830E-09 -5.36938E-10 -1.29466E-09
  -6.48433E-10 -1.57640E-09 -6.67383E-10 -1.63808E-09 -5.86662E-10 -1.21935E-09 -6.36841E-10 -1.52808E-09 -9.78656E-10 -1.16848E-09
  -5.65239E-10 -1.94698E-09 -4.12760E-10 -1.62787E-09 -6.57627E-10 -1.82483E-09 -5.97391E-10 -1.72874E-09 -1.09398E-09 -1.70289E-09
  -4.66739E-10 -1.03578E-09 -9.31009E-10
 NY points of the fit to the data follow
   8.07214E-09  7.50716E-09  7.02644E-09  6.67316E-09  6.47653E-09  6.67299E-09  6.72839E-09  6.91858E-09  8.34550E-09  9.10788E-09
   8.51028E-09  8.02505E-09  7.58250E-09  7.28153E-09  7.14171E-09  6.76247E-09  6.59355E-09  7.48499E-09  8.45850E-09  6.99960E-09
   5.92301E-09  6.33645E-09  7.01810E-09  7.60705E-09  8.22349E-09  8.92324E-09  9.64085E-09  9.89895E-09  9.14036E-09  7.72462E-09
   7.47981E-09  7.31554E-09  6.69668E-09  6.33471E-09  6.05889E-09  5.54108E-09  5.18675E-09  4.88941E-09  4.85638E-09  4.78966E-09
   4.76154E-09  4.76865E-09  4.75905E-09  4.73275E-09  4.75882E-09  4.73983E-09  4.80951E-09  4.49008E-09  4.53291E-09  4.73241E-09
   5.07521E-09  5.43183E-09  5.72489E-09  6.09377E-09  6.79370E-09  7.38443E-09  7.52219E-09  8.27188E-09  9.06163E-09  9.08372E-09
   8.99231E-09  8.95044E-09  8.91082E-09  8.88782E-09  8.49332E-09  7.82850E-09  7.48212E-09  7.37746E-09  6.67897E-09  6.38190E-09
   6.72500E-09  7.24179E-09  7.72091E-09  8.10123E-09  8.86793E-09  1.00754E-08  1.12603E-08  1.19715E-08  1.22562E-08  1.22521E-08
   1.20926E-08  1.17607E-08  1.10510E-08  1.05670E-08  1.04554E-08  9.70338E-09  8.42338E-09  7.23363E-09  6.60699E-09  6.24573E-09
   5.99145E-09  5.83582E-09  5.75153E-09  5.67462E-09  5.56698E-09  5.52512E-09  5.48740E-09  5.43038E-09  5.41012E-09  5.37201E-09
   5.34940E-09  5.35268E-09  5.35255E-09  5.34999E-09  5.35372E-09  5.36189E-09  5.37235E-09  5.38452E-09  5.39697E-09  5.40966E-09
   5.42226E-09  5.43447E-09  5.44605E-09  5.45681E-09  5.46656E-09  5.47517E-09  5.48252E-09  5.48845E-09  5.49287E-09  5.49567E-09
   5.49676E-09  5.49606E-09  5.49349E-09  5.48897E-09  5.48244E-09  5.47382E-09  5.46304E-09  5.45006E-09  5.43481E-09  5.41723E-09
   5.39727E-09  5.37488E-09  5.35001E-09  5.32261E-09  5.29263E-09  5.26004E-09  5.22479E-09  5.18687E-09  5.14638E-09  5.10339E-09
   5.05798E-09  5.01027E-09  4.96035E-09  4.90832E-09  4.85429E-09  4.79839E-09  4.74076E-09  4.68154E-09  4.62091E-09  4.55904E-09
   4.49618E-09  4.43256E-09  4.36854E-09  4.30450E-09  4.24095E-09  4.17856E-09  4.11824E-09  4.06123E-09  4.00935E-09  3.96535E-09
   3.93362E-09  3.92154E-09  3.94273E-09  4.02514E-09  4.23577E-09  4.78019E-09  6.60320E-09  1.30429E-08  1.69689E-08  1.78252E-08
   1.73341E-08  1.69812E-08  1.64627E-08  1.60893E-08  1.57199E-08  1.60258E-08  1.62824E-08  1.39396E-08  6.14364E-09  3.61341E-09
   2.77636E-09  2.34963E-09  2.07309E-09  1.86649E-09  1.69771E-09  1.55160E-09  1.42018E-09  1.29881E-09  1.18474E-09  1.07616E-09
   9.71888E-10  8.71102E-10  7.73265E-10  6.77949E-10  5.84878E-10  4.93839E-10  4.04691E-10  3.17318E-10  2.31652E-10  1.47631E-10
   6.52304E-11 -1.55698E-11 -9.47822E-11 -1.72398E-10 -2.48413E-10 -3.22820E-10 -3.95594E-10 -4.66713E-10 -5.36152E-10 -6.03878E-10
  -6.69862E-10 -7.34070E-10 -7.96481E-10 -8.57057E-10 -9.15736E-10 -9.72505E-10 -1.02732E-09 -1.08014E-09 -1.13093E-09 -1.17964E-09
  -1.22625E-09 -1.27069E-09 -1.31292E-09 -1.35294E-09 -1.39067E-09 -1.42606E-09 -1.45911E-09 -1.48975E-09 -1.51802E-09 -1.54397E-09
  -1.56768E-09 -1.58920E-09 -1.60859E-09 -1.62592E-09 -1.64124E-09 -1.65462E-09 -1.66611E-09 -1.67579E-09 -1.68371E-09 -1.68992E-09
  -1.69450E-09 -1.69751E-09 -1.69899E-09 -1.69902E-09 -1.69765E-09 -1.69494E-09 -1.69097E-09 -1.68577E-09 -1.67943E-09 -1.67198E-09
  -1.66351E-09 -1.65406E-09 -1.64371E-09 -1.63250E-09 -1.62050E-09 -1.60776E-09 -1.59436E-09 -1.58035E-09 -1.56578E-09 -1.55073E-09
  -1.53525E-09 -1.51940E-09 -1.50324E-09 -1.48683E-09 -1.47023E-09 -1.45351E-09 -1.43671E-09 -1.41991E-09 -1.40316E-09 -1.38653E-09
  -1.37006E-09 -1.35383E-09 -1.33790E-09 -1.32228E-09 -1.30699E-09 -1.29201E-09 -1.27736E-09 -1.26302E-09 -1.24900E-09 -1.23529E-09
  -1.22191E-09 -1.20883E-09 -1.19606E-09 -1.18361E-09 -1.17147E-09 -1.15963E-09 -1.14810E-09 -1.13687E-09 -1.12595E-09 -1.11533E-09
  -1.10502E-09 -1.09500E-09 -1.08529E-09 -1.07587E-09 -1.06675E-09 -1.05792E-09 -1.04939E-09 -1.04115E-09 -1.03321E-09 -1.02555E-09
  -1.01818E-09 -1.01111E-09 -1.00431E-09 -9.97803E-10 -9.91579E-10 -9.85642E-10 -9.79977E-10 -9.74601E-10 -9.69495E-10 -9.64678E-10
  -9.60133E-10 -9.55857E-10 -9.51854E-10 -9.48139E-10 -9.44683E-10 -9.41495E-10 -9.38585E-10 -9.35923E-10 -9.33539E-10 -9.31412E-10
  -9.29537E-10 -9.27904E-10 -9.26505E-10 -9.25335E-10 -9.24390E-10 -9.23656E-10 -9.23132E-10 -9.22806E-10 -9.22675E-10 -9.22728E-10
  -9.22960E-10 -9.23362E-10 -9.23931E-10 -9.24655E-10 -9.25531E-10 -9.26547E-10 -9.27702E-10 -9.28983E-10 -9.30386E-10 -9.31905E-10
  -9.33528E-10 -9.35252E-10 -9.37069E-10 -9.38967E-10 -9.40947E-10 -9.43002E-10 -9.45117E-10 -9.47288E-10 -9.49513E-10 -9.51776E-10
  -9.54073E-10 -9.56403E-10 -9.58751E-10 -9.61116E-10 -9.63485E-10 -9.65852E-10 -9.68211E-10 -9.70563E-10 -9.72882E-10 -9.75179E-10
  -9.77436E-10 -9.79651E-10 -9.81807E-10
 NY background values follow
    -2.888E-09   -2.807E-09   -2.726E-09   -2.645E-09   -2.564E-09   -2.483E-09   -2.402E-09   -2.321E-09   -2.240E-09   -2.159E-09
    -2.079E-09   -1.998E-09   -1.917E-09   -1.836E-09   -1.755E-09   -1.675E-09   -1.594E-09   -1.514E-09   -1.433E-09   -1.353E-09
    -1.273E-09   -1.193E-09   -1.113E-09   -1.033E-09   -9.531E-10   -8.734E-10   -7.939E-10   -7.144E-10   -6.351E-10   -5.560E-10
    -4.770E-10   -3.981E-10   -3.194E-10   -2.409E-10   -1.625E-10   -8.427E-11   -6.241E-12    7.162E-11    1.493E-10    2.267E-10
     3.040E-10    3.811E-10    4.580E-10    5.346E-10    6.111E-10    6.873E-10    7.632E-10    8.389E-10    9.144E-10    9.896E-10
     1.065E-09    1.139E-09    1.213E-09    1.287E-09    1.361E-09    1.434E-09    1.507E-09    1.580E-09    1.652E-09    1.724E-09
     1.795E-09    1.866E-09    1.936E-09    2.006E-09    2.076E-09    2.145E-09    2.213E-09    2.281E-09    2.348E-09    2.415E-09
     2.481E-09    2.547E-09    2.612E-09    2.676E-09    2.740E-09    2.803E-09    2.866E-09    2.928E-09    2.989E-09    3.049E-09
     3.109E-09    3.168E-09    3.226E-09    3.284E-09    3.341E-09    3.397E-09    3.452E-09    3.506E-09    3.560E-09    3.612E-09
     3.664E-09    3.715E-09    3.765E-09    3.814E-09    3.862E-09    3.909E-09    3.955E-09    4.000E-09    4.044E-09    4.086E-09
     4.128E-09    4.167E-09    4.206E-09    4.243E-09    4.279E-09    4.313E-09    4.346E-09    4.377E-09    4.406E-09    4.434E-09
     4.460E-09    4.484E-09    4.507E-09    4.527E-09    4.546E-09    4.563E-09    4.578E-09    4.591E-09    4.601E-09    4.610E-09
     4.616E-09    4.620E-09    4.622E-09    4.622E-09    4.619E-09    4.614E-09    4.607E-09    4.597E-09    4.584E-09    4.569E-09
     4.551E-09    4.530E-09    4.507E-09    4.481E-09    4.453E-09    4.421E-09    4.387E-09    4.349E-09    4.309E-09    4.266E-09
     4.220E-09    4.172E-09    4.121E-09    4.068E-09    4.012E-09    3.954E-09    3.894E-09    3.831E-09    3.766E-09    3.700E-09
     3.631E-09    3.561E-09    3.488E-09    3.414E-09    3.339E-09    3.261E-09    3.182E-09    3.102E-09    3.020E-09    2.937E-09
     2.853E-09    2.768E-09    2.681E-09    2.594E-09    2.505E-09    2.416E-09    2.326E-09    2.235E-09    2.144E-09    2.051E-09
     1.959E-09    1.866E-09    1.773E-09    1.679E-09    1.585E-09    1.491E-09    1.397E-09    1.303E-09    1.209E-09    1.115E-09
     1.022E-09    9.284E-10    8.355E-10    7.430E-10    6.509E-10    5.594E-10    4.684E-10    3.780E-10    2.882E-10    1.992E-10
     1.108E-10    2.326E-11   -6.348E-11   -1.494E-10   -2.343E-10   -3.184E-10   -4.014E-10   -4.834E-10   -5.643E-10   -6.441E-10
    -7.226E-10   -8.000E-10   -8.761E-10   -9.509E-10   -1.024E-09   -1.096E-09   -1.167E-09   -1.236E-09   -1.304E-09   -1.370E-09
    -1.434E-09   -1.497E-09   -1.558E-09   -1.617E-09   -1.674E-09   -1.730E-09   -1.784E-09   -1.836E-09   -1.885E-09   -1.933E-09
    -1.979E-09   -2.022E-09   -2.064E-09   -2.103E-09   -2.140E-09   -2.175E-09   -2.207E-09   -2.237E-09   -2.264E-09   -2.290E-09
    -2.313E-09   -2.334E-09   -2.353E-09   -2.369E-09   -2.384E-09   -2.397E-09   -2.408E-09   -2.417E-09   -2.425E-09   -2.430E-09
    -2.434E-09   -2.437E-09   -2.438E-09   -2.438E-09   -2.436E-09   -2.433E-09   -2.428E-09   -2.423E-09   -2.416E-09   -2.408E-09
    -2.399E-09   -2.389E-09   -2.379E-09   -2.367E-09   -2.355E-09   -2.342E-09   -2.328E-09   -2.313E-09   -2.299E-09   -2.283E-09
    -2.267E-09   -2.251E-09   -2.235E-09   -2.218E-09   -2.201E-09   -2.184E-09   -2.167E-09   -2.150E-09   -2.133E-09   -2.116E-09
    -2.099E-09   -2.082E-09   -2.066E-09   -2.050E-09   -2.035E-09   -2.019E-09   -2.004E-09   -1.990E-09   -1.975E-09   -1.961E-09
    -1.948E-09   -1.934E-09   -1.921E-09   -1.909E-09   -1.896E-09   -1.884E-09   -1.872E-09   -1.861E-09   -1.849E-09   -1.839E-09
    -1.828E-09   -1.818E-09   -1.808E-09   -1.798E-09   -1.789E-09   -1.779E-09   -1.771E-09   -1.762E-09   -1.754E-09   -1.746E-09
    -1.738E-09   -1.731E-09   -1.724E-09   -1.717E-09   -1.710E-09   -1.704E-09   -1.698E-09   -1.693E-09   -1.687E-09   -1.682E-09
    -1.677E-09   -1.673E-09   -1.668E-09   -1.664E-09   -1.661E-09   -1.657E-09   -1.654E-09   -1.651E-09   -1.648E-09   -1.646E-09
    -1.644E-09   -1.642E-09   -1.640E-09   -1.639E-09   -1.637E-09   -1.636E-09   -1.636E-09   -1.635E-09   -1.635E-09   -1.634E-09
    -1.634E-09   -1.634E-09   -1.635E-09   -1.635E-09   -1.636E-09   -1.636E-09   -1.637E-09   -1.638E-09   -1.639E-09   -1.640E-09
    -1.642E-09   -1.643E-09   -1.645E-09   -1.646E-09   -1.648E-09   -1.650E-09   -1.651E-09   -1.653E-09   -1.655E-09   -1.657E-09
    -1.659E-09   -1.661E-09   -1.663E-09   -1.665E-09   -1.667E-09   -1.669E-09   -1.671E-09   -1.673E-09   -1.675E-09   -1.677E-09
    -1.679E-09   -1.681E-09   -1.683E-09
 Asp      Conc. = 8.79E-10
  -1.93499E-09 -2.00602E-09 -2.01840E-09 -2.06820E-09 -2.03494E-09 -2.06402E-09 -2.08050E-09 -2.12138E-09 -2.09280E-09 -2.03981E-09
  -1.97611E-09 -1.90682E-09 -1.83378E-09 -1.75690E-09 -1.67892E-09 -1.60050E-09 -1.52147E-09 -1.44192E-09 -1.36191E-09 -1.28152E-09
  -1.20077E-09 -1.11970E-09 -1.03828E-09 -9.56517E-10 -8.74371E-10 -7.91769E-10 -7.08625E-10 -6.24810E-10 -5.40149E-10 -4.54351E-10
  -3.67029E-10 -2.77571E-10 -1.84944E-10 -8.73481E-11  1.89214E-11  1.43032E-10  3.08874E-10  4.45842E-10  5.97048E-10  6.86049E-10
   7.49457E-10  8.25455E-10  9.80026E-10  1.23866E-09  1.54878E-09  1.92386E-09  2.05748E-09  2.01950E-09  2.15320E-09  2.26205E-09
   2.38784E-09  2.53461E-09  2.65375E-09  2.65120E-09  2.51713E-09  2.38434E-09  2.18358E-09  2.28808E-09  2.38144E-09  2.26527E-09
   2.24021E-09  2.26778E-09  2.24989E-09  2.28427E-09  2.38239E-09  2.46557E-09  2.45465E-09  2.47744E-09  2.51656E-09  2.56365E-09
   2.61519E-09  2.66940E-09  2.72527E-09  2.78217E-09  2.83969E-09  2.89752E-09  2.95546E-09  3.01333E-09  3.07103E-09  3.12844E-09
   3.18548E-09  3.24210E-09  3.29821E-09  3.35379E-09  3.40879E-09  3.46316E-09  3.51687E-09  3.56990E-09  3.62220E-09  3.67377E-09
   3.72456E-09  3.77456E-09  3.82373E-09  3.87202E-09  3.91937E-09  3.96574E-09  4.01107E-09  4.05532E-09  4.09843E-09  4.14036E-09
   4.18106E-09  4.22048E-09  4.25858E-09  4.29530E-09  4.33061E-09  4.36444E-09  4.39676E-09  4.42752E-09  4.45667E-09  4.48416E-09
   4.50996E-09  4.53401E-09  4.55626E-09  4.57668E-09  4.59520E-09  4.61180E-09  4.62642E-09  4.63902E-09  4.64955E-09  4.65796E-09
   4.66422E-09  4.66827E-09  4.67006E-09  4.66956E-09  4.66672E-09  4.66149E-09  4.65382E-09  4.64368E-09  4.63102E-09  4.61578E-09
   4.59794E-09  4.57743E-09  4.55422E-09  4.52826E-09  4.49951E-09  4.46792E-09  4.43345E-09  4.39609E-09  4.35591E-09  4.31298E-09
   4.26738E-09  4.21918E-09  4.16846E-09  4.11530E-09  4.05976E-09  4.00194E-09  3.94190E-09  3.87974E-09  3.81552E-09  3.74934E-09
   3.68128E-09  3.61144E-09  3.53990E-09  3.46679E-09  3.39219E-09  3.31626E-09  3.23915E-09  3.16104E-09  3.08217E-09  3.00288E-09
   2.92368E-09  2.84537E-09  2.76938E-09  2.69865E-09  2.64019E-09  2.61593E-09  2.72983E-09  3.30343E-09  3.59517E-09  3.58502E-09
   3.44994E-09  3.33284E-09  3.19770E-09  3.07782E-09  2.95886E-09  2.90909E-09  2.84726E-09  2.50894E-09  1.63713E-09  1.32732E-09
   1.16445E-09  1.03916E-09  9.28268E-10  8.24443E-10  7.24699E-10  6.27631E-10  5.32519E-10  4.38936E-10  3.46670E-10  2.55565E-10
   1.65563E-10  7.65985E-11 -1.13129E-11 -9.81994E-11 -1.84038E-10 -2.68815E-10 -3.52496E-10 -4.35061E-10 -5.16471E-10 -5.96701E-10
  -6.75706E-10 -7.53447E-10 -8.29892E-10 -9.04991E-10 -9.78708E-10 -1.05101E-09 -1.12185E-09 -1.19117E-09 -1.25895E-09 -1.32514E-09
  -1.38969E-09 -1.45255E-09 -1.51370E-09 -1.57309E-09 -1.63066E-09 -1.68638E-09 -1.74019E-09 -1.79207E-09 -1.84197E-09 -1.88982E-09
  -1.93561E-09 -1.97927E-09 -2.02077E-09 -2.06007E-09 -2.09712E-09 -2.13184E-09 -2.16426E-09 -2.19429E-09 -2.22197E-09 -2.24735E-09
  -2.27050E-09 -2.29148E-09 -2.31036E-09 -2.32718E-09 -2.34201E-09 -2.35491E-09 -2.36594E-09 -2.37517E-09 -2.38264E-09 -2.38842E-09
  -2.39258E-09 -2.39517E-09 -2.39624E-09 -2.39588E-09 -2.39412E-09 -2.39103E-09 -2.38668E-09 -2.38111E-09 -2.37440E-09 -2.36660E-09
  -2.35778E-09 -2.34798E-09 -2.33729E-09 -2.32574E-09 -2.31341E-09 -2.30034E-09 -2.28662E-09 -2.27228E-09 -2.25740E-09 -2.24203E-09
  -2.22624E-09 -2.21008E-09 -2.19361E-09 -2.17691E-09 -2.16001E-09 -2.14298E-09 -2.12590E-09 -2.10880E-09 -2.09176E-09 -2.07484E-09
  -2.05809E-09 -2.04158E-09 -2.02536E-09 -2.00946E-09 -1.99388E-09 -1.97863E-09 -1.96370E-09 -1.94909E-09 -1.93479E-09 -1.92081E-09
  -1.90715E-09 -1.89380E-09 -1.88076E-09 -1.86804E-09 -1.85563E-09 -1.84352E-09 -1.83172E-09 -1.82023E-09 -1.80904E-09 -1.79816E-09
  -1.78758E-09 -1.77729E-09 -1.76731E-09 -1.75763E-09 -1.74824E-09 -1.73915E-09 -1.73035E-09 -1.72185E-09 -1.71364E-09 -1.70572E-09
  -1.69809E-09 -1.69074E-09 -1.68368E-09 -1.67691E-09 -1.67042E-09 -1.66422E-09 -1.65829E-09 -1.65264E-09 -1.64727E-09 -1.64219E-09
  -1.63737E-09 -1.63283E-09 -1.62856E-09 -1.62457E-09 -1.62085E-09 -1.61739E-09 -1.61421E-09 -1.61127E-09 -1.60862E-09 -1.60622E-09
  -1.60407E-09 -1.60216E-09 -1.60049E-09 -1.59904E-09 -1.59782E-09 -1.59680E-09 -1.59600E-09 -1.59540E-09 -1.59498E-09 -1.59475E-09
  -1.59470E-09 -1.59482E-09 -1.59511E-09 -1.59554E-09 -1.59613E-09 -1.59686E-09 -1.59772E-09 -1.59871E-09 -1.59982E-09 -1.60105E-09
  -1.60238E-09 -1.60381E-09 -1.60532E-09 -1.60692E-09 -1.60860E-09 -1.61036E-09 -1.61217E-09 -1.61403E-09 -1.61595E-09 -1.61791E-09
  -1.61989E-09 -1.62191E-09 -1.62395E-09 -1.62600E-09 -1.62805E-09 -1.63010E-09 -1.63213E-09 -1.63417E-09 -1.63616E-09 -1.63813E-09
  -1.64006E-09 -1.64195E-09 -1.64377E-09
 GABA     Conc. = 1.60E-10
  -2.87158E-09 -2.79032E-09 -2.70905E-09 -2.62776E-09 -2.54645E-09 -2.46514E-09 -2.38381E-09 -2.30249E-09 -2.22115E-09 -2.13980E-09
  -2.05845E-09 -1.97709E-09 -1.89573E-09 -1.81435E-09 -1.73293E-09 -1.65149E-09 -1.57002E-09 -1.48847E-09 -1.40680E-09 -1.32502E-09
  -1.24304E-09 -1.16076E-09 -1.07807E-09 -9.94759E-10 -9.10512E-10 -8.24813E-10 -7.36551E-10 -6.43370E-10 -5.38905E-10 -4.05955E-10
  -3.06242E-10 -2.16228E-10 -6.04639E-11  6.96440E-11  1.49194E-10  2.51883E-10  3.56073E-10  4.44341E-10  5.15209E-10  5.61611E-10
   5.85621E-10  6.70721E-10  7.27116E-10  7.01012E-10  7.52514E-10  8.31176E-10  8.56641E-10  9.05459E-10  9.68421E-10  1.03688E-09
   1.10807E-09  1.18072E-09  1.25427E-09  1.32855E-09  1.40348E-09  1.47902E-09  1.55538E-09  1.63297E-09  1.71254E-09  1.79584E-09
   1.88685E-09  1.99775E-09  2.11850E-09  2.20195E-09  2.30727E-09  2.43988E-09  2.52452E-09  2.58766E-09  2.66367E-09  2.73675E-09
   2.79931E-09  2.84422E-09  2.86147E-09  2.88531E-09  2.95159E-09  2.95669E-09  2.95041E-09  3.01520E-09  3.06632E-09  3.11225E-09
   3.18306E-09  3.23715E-09  3.30270E-09  3.40477E-09  3.47868E-09  3.54020E-09  3.62719E-09  3.70423E-09  3.76981E-09  3.83616E-09
   3.88228E-09  3.92421E-09  3.99328E-09  4.02466E-09  4.02395E-09  4.07734E-09  4.11379E-09  4.11470E-09  4.14458E-09  4.17767E-09
   4.20186E-09  4.23021E-09  4.26070E-09  4.29188E-09  4.32298E-09  4.35348E-09  4.38311E-09  4.41167E-09  4.43900E-09  4.46498E-09
   4.48952E-09  4.51247E-09  4.53377E-09  4.55334E-09  4.57113E-09  4.58709E-09  4.60115E-09  4.61325E-09  4.62333E-09  4.63134E-09
   4.63723E-09  4.64094E-09  4.64244E-09  4.64165E-09  4.63855E-09  4.63308E-09  4.62519E-09  4.61484E-09  4.60197E-09  4.58655E-09
   4.56851E-09  4.54783E-09  4.52444E-09  4.49831E-09  4.46938E-09  4.43762E-09  4.40298E-09  4.36544E-09  4.32507E-09  4.28195E-09
   4.23614E-09  4.18773E-09  4.13678E-09  4.08336E-09  4.02755E-09  3.96943E-09  3.90906E-09  3.84653E-09  3.78190E-09  3.71524E-09
   3.64665E-09  3.57618E-09  3.50392E-09  3.42995E-09  3.35434E-09  3.27719E-09  3.19857E-09  3.11857E-09  3.03732E-09  2.95491E-09
   2.87152E-09  2.78734E-09  2.70269E-09  2.61820E-09  2.53526E-09  2.45821E-09  2.40826E-09  2.43876E-09  2.41466E-09  2.33607E-09
   2.23567E-09  2.13841E-09  2.03760E-09  1.93933E-09  1.84141E-09  1.75595E-09  1.66679E-09  1.52425E-09  1.28968E-09  1.15922E-09
   1.05346E-09  9.54412E-10  8.58201E-10  7.63595E-10  6.70101E-10  5.77506E-10  4.85726E-10  3.94703E-10  3.04455E-10  2.14973E-10
   1.26299E-10  3.84369E-11 -4.85479E-11 -1.34647E-10 -2.19810E-10 -3.04002E-10 -3.87173E-10 -4.69290E-10 -5.50305E-10 -6.30183E-10
  -7.08873E-10 -7.86333E-10 -8.62523E-10 -9.37391E-10 -1.01090E-09 -1.08301E-09 -1.15367E-09 -1.22284E-09 -1.29047E-09 -1.35652E-09
  -1.42094E-09 -1.48368E-09 -1.54472E-09 -1.60401E-09 -1.66148E-09 -1.71711E-09 -1.77084E-09 -1.82264E-09 -1.87246E-09 -1.92024E-09
  -1.96597E-09 -2.00956E-09 -2.05100E-09 -2.09024E-09 -2.12724E-09 -2.16191E-09 -2.19427E-09 -2.22426E-09 -2.25189E-09 -2.27723E-09
  -2.30034E-09 -2.32128E-09 -2.34012E-09 -2.35690E-09 -2.37170E-09 -2.38456E-09 -2.39556E-09 -2.40475E-09 -2.41219E-09 -2.41795E-09
