 LCModel (Version 6.3-1R) Copyright: S.W. Provencher.          Ref.: Magn. Reson. Med. 30:672-679 (1993).                
 onepulse 27x18_ftSpec_smooth_lcm
 26 lines in following concentration table = NCONC+1
    Conc.  %SD /Cr+PCr  Metabolite                                         
    0.000 999%   0.000 Ala                                                 
    0.000 999%   0.000 Asp                                                 
 1.90E-10 333%   1.000 Cr                                                  
 1.96E-10 792%   1.030 GABA                                                
 7.75E-10 159%   4.066 Glc                                                 
 8.06E-10 162%   4.230 Gln                                                 
 8.89E-10 181%   4.667 Glu                                                 
    0.000 999%   0.000 Glyc                                                
    0.000 999%   0.000 GPC                                                 
    0.000 999%   0.000 GSH                                                 
 1.11E-09  66%   5.850 Ins                                                 
    0.000 999%   0.000 Lac                                                 
    0.000 999%   0.000 NAAG                                                
 7.33E-10  65%   3.848 NAA                                                 
 2.04E-10  66%   1.068 PCh                                                 
    0.000 999%   0.000 PCr                                                 
    0.000 999%   0.000 PE                                                  
 1.16E-10 253%   0.611 Scyllo                                              
 4.33E-09  30%  22.755 Ser                                                 
    0.000 999%   0.000 Tau                                                 
 2.04E-10  66%   1.068 GPC+PCh                                             
 7.33E-10  65%   3.848 NAA+NAAG                                            
 1.11E-09  66%   5.850 Ins+Glyc                                            
 1.90E-10 333%   1.000 Cr+PCr                                              
 1.69E-09  68%   8.897 Glu+Gln                                             
   6 lines in following misc. output table
  FWHM = 0.112 ppm    S/N =   2                                            
  Data shift = 0.347 ppm                                                   
  Ph: -45 deg     -28.4 deg/ppm                                            
  alphaB,S = 9.8E-01,   1.5E+01                                            
    8 spline knots.   Ns = 5(1)                                            
  (10) 2 infls.   ( 5) 1 extrs.                                            
  363 points on ppm-axis = NY
      4.250000     4.238821     4.227641     4.216462     4.205282     4.194103     4.182923     4.171744     4.160564     4.149385
      4.138206     4.127026     4.115847     4.104667     4.093488     4.082308     4.071129     4.059949     4.048770     4.037591
      4.026411     4.015232     4.004052     3.992873     3.981693     3.970514     3.959334     3.948155     3.936975     3.925796
      3.914617     3.903437     3.892258     3.881078     3.869899     3.858719     3.847540     3.836360     3.825181     3.814002
      3.802822     3.791643     3.780463     3.769284     3.758104     3.746925     3.735745     3.724566     3.713387     3.702207
      3.691028     3.679848     3.668669     3.657489     3.646310     3.635130     3.623951     3.612772     3.601592     3.590413
      3.579233     3.568054     3.556874     3.545695     3.534515     3.523336     3.512156     3.500977     3.489798     3.478618
      3.467439     3.456259     3.445080     3.433900     3.422721     3.411541     3.400362     3.389183     3.378003     3.366824
      3.355644     3.344465     3.333285     3.322106     3.310926     3.299747     3.288568     3.277388     3.266209     3.255029
      3.243850     3.232670     3.221491     3.210311     3.199132     3.187953     3.176773     3.165594     3.154414     3.143235
      3.132055     3.120876     3.109696     3.098517     3.087337     3.076158     3.064979     3.053799     3.042620     3.031440
      3.020261     3.009081     2.997902     2.986722     2.975543     2.964364     2.953184     2.942005     2.930825     2.919646
      2.908466     2.897287     2.886107     2.874928     2.863749     2.852569     2.841390     2.830210     2.819031     2.807851
      2.796672     2.785492     2.774313     2.763134     2.751954     2.740775     2.729595     2.718416     2.707236     2.696057
      2.684877     2.673698     2.662519     2.651339     2.640160     2.628980     2.617801     2.606621     2.595442     2.584262
      2.573083     2.561903     2.550724     2.539545     2.528365     2.517186     2.506006     2.494827     2.483647     2.472468
      2.461288     2.450109     2.438930     2.427750     2.416571     2.405391     2.394212     2.383032     2.371853     2.360673
      2.349494     2.338315     2.327135     2.315956     2.304776     2.293597     2.282417     2.271238     2.260058     2.248879
      2.237700     2.226520     2.215341     2.204161     2.192982     2.181802     2.170623     2.159443     2.148264     2.137084
      2.125905     2.114726     2.103546     2.092367     2.081187     2.070008     2.058828     2.047649     2.036469     2.025290
      2.014111     2.002931     1.991752     1.980572     1.969393     1.958213     1.947034     1.935854     1.924675     1.913496
      1.902316     1.891137     1.879957     1.868778     1.857598     1.846419     1.835239     1.824060     1.812881     1.801701
      1.790522     1.779342     1.768163     1.756983     1.745804     1.734624     1.723445     1.712265     1.701086     1.689907
      1.678727     1.667548     1.656368     1.645189     1.634009     1.622830     1.611650     1.600471     1.589292     1.578112
      1.566933     1.555753     1.544574     1.533394     1.522215     1.511035     1.499856     1.488677     1.477497     1.466318
      1.455138     1.443959     1.432779     1.421600     1.410420     1.399241     1.388062     1.376882     1.365703     1.354523
      1.343344     1.332164     1.320985     1.309805     1.298626     1.287446     1.276267     1.265088     1.253908     1.242729
      1.231549     1.220370     1.209190     1.198011     1.186831     1.175652     1.164473     1.153293     1.142114     1.130934
      1.119755     1.108575     1.097396     1.086216     1.075037     1.063858     1.052678     1.041499     1.030319     1.019140
      1.007960     0.996781     0.985601     0.974422     0.963243     0.952063     0.940884     0.929704     0.918525     0.907345
      0.896166     0.884986     0.873807     0.862628     0.851448     0.840269     0.829089     0.817910     0.806730     0.795551
      0.784371     0.773192     0.762012     0.750833     0.739654     0.728474     0.717295     0.706115     0.694936     0.683756
      0.672577     0.661397     0.650218     0.639039     0.627859     0.616680     0.605500     0.594321     0.583141     0.571962
      0.560782     0.549603     0.538424     0.527244     0.516065     0.504885     0.493706     0.482526     0.471347     0.460167
      0.448988     0.437809     0.426629     0.415450     0.404270     0.393091     0.381911     0.370732     0.359552     0.348373
      0.337193     0.326014     0.314835     0.303655     0.292476     0.281296     0.270117     0.258937     0.247758     0.236578
      0.225399     0.214220     0.203040
 NY phased data points follow
   1.70688E-08  1.64260E-08  1.95314E-08  1.72029E-08  1.79626E-08  1.63013E-08  1.68207E-08  1.50274E-08  1.63497E-08  1.37424E-08
   1.48940E-08  1.37147E-08  1.46985E-08  1.36789E-08  1.54865E-08  1.37761E-08  1.54217E-08  1.39755E-08  1.50252E-08  1.34086E-08
   1.50471E-08  1.34997E-08  1.40811E-08  1.30483E-08  1.34583E-08  1.28302E-08  1.50189E-08  1.33865E-08  1.40200E-08  1.25735E-08
   1.47350E-08  1.32349E-08  1.53018E-08  1.51115E-08  1.64940E-08  1.49886E-08  1.50785E-08  1.35080E-08  1.35578E-08  1.18158E-08
   1.29963E-08  1.09410E-08  1.15862E-08  1.04887E-08  1.14825E-08  9.89116E-09  1.07556E-08  9.09358E-09  1.01727E-08  9.03367E-09
   9.58647E-09  8.48307E-09  9.54940E-09  8.15393E-09  9.41060E-09  7.69713E-09  8.75383E-09  7.35385E-09  8.68044E-09  7.67517E-09
   8.47709E-09  8.62728E-09  1.01936E-08  1.08543E-08  1.33214E-08  1.39068E-08  1.38335E-08  1.30938E-08  1.23640E-08  1.11478E-08
   1.06323E-08  9.72968E-09  9.48202E-09  8.40775E-09  8.47896E-09  7.67262E-09  8.59275E-09  7.25732E-09  9.54086E-09  1.13168E-08
   1.38295E-08  1.43756E-08  1.53671E-08  1.54362E-08  1.54829E-08  1.48667E-08  1.40791E-08  1.31587E-08  1.32926E-08  1.23878E-08
   1.25459E-08  1.14299E-08  1.11088E-08  1.06747E-08  1.05902E-08  9.32824E-09  9.98043E-09  8.39775E-09  8.92659E-09  8.68831E-09
   8.13855E-09  8.43095E-09  8.23874E-09  7.91205E-09  8.31926E-09  7.51574E-09  7.91114E-09  7.44477E-09  6.67382E-09  6.25396E-09
   6.50068E-09  5.14925E-09  5.61398E-09  5.58893E-09  5.66897E-09  5.71467E-09  5.52669E-09  5.52081E-09  5.78837E-09  6.52959E-09
   6.51885E-09  6.13105E-09  5.55153E-09  5.56645E-09  5.19550E-09  4.90268E-09  3.75514E-09  4.11448E-09  4.22190E-09  4.71570E-09
   4.71416E-09  4.29708E-09  4.10325E-09  4.42116E-09  4.83519E-09  3.56947E-09  4.08680E-09  4.16157E-09  4.15090E-09  4.34826E-09
   5.14677E-09  5.18781E-09  5.77621E-09  5.45615E-09  6.53673E-09  6.15015E-09  7.09124E-09  7.27054E-09  7.60725E-09  6.90098E-09
   7.38574E-09  7.58904E-09  7.79212E-09  6.98529E-09  7.41160E-09  7.24808E-09  7.16370E-09  7.77618E-09  8.15014E-09  7.09667E-09
   8.02716E-09  6.80770E-09  8.16818E-09  7.25746E-09  7.56427E-09  7.19670E-09  8.30282E-09  8.81049E-09  1.03169E-08  1.15735E-08
   1.36244E-08  1.60042E-08  1.72294E-08  1.76852E-08  1.69069E-08  1.57856E-08  1.47514E-08  1.27849E-08  1.19514E-08  1.06523E-08
   9.96228E-09  8.68763E-09  7.95011E-09  6.82557E-09  6.38623E-09  4.53417E-09  4.11199E-09  3.02829E-09  2.11969E-09 -2.47939E-10
  -7.50799E-10 -2.73615E-09 -5.00710E-09 -6.26104E-09 -8.30511E-09 -1.11258E-08 -1.23530E-08 -1.52236E-08 -1.75043E-08 -1.99148E-08
  -2.13609E-08 -2.33244E-08 -2.44357E-08 -2.56371E-08 -2.54808E-08 -2.54332E-08 -2.38074E-08 -2.31217E-08 -2.13091E-08 -1.92630E-08
  -1.64301E-08 -1.38851E-08 -1.13853E-08 -9.25174E-09 -5.99115E-09 -4.72048E-09 -2.56203E-09 -1.35619E-09  1.05224E-10 -1.91635E-10
   7.42431E-10 -7.06370E-10 -2.33207E-10 -8.54579E-10 -6.55121E-10 -1.20607E-09 -5.72408E-10 -1.36858E-09 -1.02912E-09 -7.15795E-10
  -1.79954E-10 -5.81050E-10 -2.60599E-10 -6.12763E-10 -2.37083E-10 -1.01091E-09 -9.84418E-10 -1.11083E-09 -1.46916E-10 -5.04106E-10
  -1.66649E-10 -6.55730E-10  4.40604E-11  5.20861E-11 -2.65126E-11 -1.09658E-10 -7.33793E-10 -7.94192E-10 -1.31174E-10 -7.96643E-10
  -5.09821E-11 -4.67508E-10  5.53038E-10  4.51308E-10  8.01413E-10  4.33420E-11  1.05392E-10  6.82751E-10  9.48272E-10 -2.96885E-10
  -7.83737E-11 -1.31866E-10 -1.13175E-10 -6.80370E-10 -4.70958E-10 -5.22331E-10 -8.68145E-10 -1.83662E-10 -9.23320E-11  1.82410E-10
   7.18505E-10  8.31384E-10  7.34641E-10  5.63579E-10  1.44186E-09  7.50899E-10  1.02791E-09  1.00522E-09  1.86857E-09  9.35790E-10
   7.65035E-10  5.27872E-10  1.18498E-09 -9.61090E-11  4.71549E-10 -1.54296E-10  2.05162E-10  6.22044E-10  2.82625E-11  2.24545E-10
   4.08008E-10  1.79347E-10 -1.59898E-10  5.84298E-10 -3.88681E-11  3.65546E-10  7.06477E-10  1.44265E-10  6.73117E-11  3.51804E-10
   3.21107E-10 -3.42093E-10  5.24704E-10 -2.53587E-10  6.80855E-10  1.66573E-10  1.13923E-10  2.56660E-10  4.55662E-10  3.75072E-11
   3.90414E-10  6.07956E-11  5.18745E-10  2.48168E-12  4.47423E-10  2.03820E-10  6.83305E-10  2.31480E-10  7.69038E-10  6.69711E-10
   3.22005E-10  8.80295E-11  5.70388E-10  6.49466E-10  3.88205E-10  7.28761E-10  4.79612E-10  4.79094E-10  8.17606E-10  1.03672E-09
   9.73466E-10  4.96393E-11  1.01694E-09  7.14502E-10  1.05636E-09  5.14207E-10  7.96373E-10  8.20071E-10  1.24756E-09  5.32634E-10
   9.33923E-10  1.31762E-09  8.88871E-10  4.10066E-10  1.08799E-09  9.43046E-10  1.03069E-09  7.21102E-10  1.20147E-09  1.40291E-09
   1.27679E-09  1.11994E-09  1.11348E-09  5.90293E-10  1.52286E-09  1.51163E-09  1.73334E-09  1.13240E-09  1.58612E-09  1.36605E-09
   8.88819E-10  1.56763E-09  1.25744E-09
 NY points of the fit to the data follow
   1.71960E-08  1.81398E-08  1.75376E-08  1.67901E-08  1.71676E-08  1.77709E-08  1.72582E-08  1.61604E-08  1.51932E-08  1.45494E-08
   1.42273E-08  1.39107E-08  1.37736E-08  1.38936E-08  1.43281E-08  1.45985E-08  1.45512E-08  1.49070E-08  1.52460E-08  1.47108E-08
   1.39522E-08  1.34986E-08  1.32160E-08  1.29691E-08  1.30853E-08  1.32499E-08  1.35298E-08  1.39073E-08  1.41561E-08  1.41440E-08
   1.43792E-08  1.46720E-08  1.51417E-08  1.54946E-08  1.51157E-08  1.39028E-08  1.32457E-08  1.28499E-08  1.25769E-08  1.23775E-08
   1.22219E-08  1.20761E-08  1.17250E-08  1.10822E-08  1.06851E-08  1.04352E-08  1.01850E-08  9.94573E-09  9.74284E-09  9.59370E-09
   9.47701E-09  9.39157E-09  9.33386E-09  9.24227E-09  9.14276E-09  9.11557E-09  9.11557E-09  9.27035E-09  9.57743E-09  9.90296E-09
   1.01300E-08  1.03471E-08  1.07371E-08  1.11061E-08  1.14408E-08  1.17571E-08  1.20191E-08  1.21373E-08  1.19446E-08  1.15703E-08
   1.12960E-08  1.11427E-08  1.07713E-08  1.01724E-08  9.94459E-09  9.77792E-09  9.60549E-09  1.02855E-08  1.13273E-08  1.23025E-08
   1.32100E-08  1.40134E-08  1.46374E-08  1.51625E-08  1.54880E-08  1.55893E-08  1.55139E-08  1.47761E-08  1.28825E-08  1.16024E-08
   1.08893E-08  1.03959E-08  1.00509E-08  9.72826E-09  9.42597E-09  9.20463E-09  8.98683E-09  8.75289E-09  8.55847E-09  8.38278E-09
   8.20925E-09  8.04861E-09  7.89891E-09  7.75786E-09  7.62361E-09  7.49478E-09  7.37041E-09  7.24978E-09  7.13230E-09  7.01743E-09
   6.90489E-09  6.79418E-09  6.68506E-09  6.57729E-09  6.47065E-09  6.36499E-09  6.26015E-09  6.15595E-09  6.05226E-09  5.94904E-09
   5.84606E-09  5.74337E-09  5.64080E-09  5.53832E-09  5.43587E-09  5.33337E-09  5.23075E-09  5.12805E-09  5.02516E-09  4.92206E-09
   4.81874E-09  4.71513E-09  4.61127E-09  4.50710E-09  4.40263E-09  4.29779E-09  4.19270E-09  4.08724E-09  3.98147E-09  3.87537E-09
   3.76899E-09  3.66234E-09  3.55546E-09  3.44834E-09  3.34109E-09  3.23374E-09  3.12640E-09  3.01920E-09  2.91233E-09  2.80601E-09
   2.70047E-09  2.59600E-09  2.49296E-09  2.39177E-09  2.29298E-09  2.19729E-09  2.10561E-09  2.01918E-09  1.93975E-09  1.86985E-09
   1.81329E-09  1.77633E-09  1.76975E-09  1.81444E-09  1.95728E-09  2.33246E-09  3.51795E-09  7.37590E-09  1.08343E-08  1.32054E-08
   1.50301E-08  1.66395E-08  1.78031E-08  1.83505E-08  1.83297E-08  1.77483E-08  1.55412E-08  1.00020E-08  2.46118E-09  2.79482E-10
  -4.32894E-10 -7.93601E-10 -1.02724E-09 -1.20267E-09 -1.34709E-09 -1.47313E-09 -1.58724E-09 -1.69303E-09 -1.79268E-09 -1.88746E-09
  -1.97817E-09 -2.06541E-09 -2.14948E-09 -2.23064E-09 -2.30900E-09 -2.38468E-09 -2.45777E-09 -2.52821E-09 -2.59607E-09 -2.66135E-09
  -2.72403E-09 -2.78408E-09 -2.84146E-09 -2.89616E-09 -2.94817E-09 -2.99740E-09 -3.04385E-09 -3.08749E-09 -3.12828E-09 -3.16615E-09
  -3.20113E-09 -3.23312E-09 -3.26212E-09 -3.28809E-09 -3.31103E-09 -3.33084E-09 -3.34754E-09 -3.36111E-09 -3.37149E-09 -3.37875E-09
  -3.38295E-09 -3.38416E-09 -3.38245E-09 -3.37789E-09 -3.37055E-09 -3.36051E-09 -3.34782E-09 -3.33257E-09 -3.31482E-09 -3.29464E-09
  -3.27211E-09 -3.24729E-09 -3.22025E-09 -3.19108E-09 -3.15983E-09 -3.12658E-09 -3.09141E-09 -3.05437E-09 -3.01555E-09 -2.97500E-09
  -2.93281E-09 -2.88905E-09 -2.84378E-09 -2.79707E-09 -2.74899E-09 -2.69961E-09 -2.64900E-09 -2.59724E-09 -2.54438E-09 -2.49049E-09
  -2.43566E-09 -2.37992E-09 -2.32337E-09 -2.26605E-09 -2.20804E-09 -2.14942E-09 -2.09022E-09 -2.03052E-09 -1.97039E-09 -1.90989E-09
  -1.84907E-09 -1.78801E-09 -1.72676E-09 -1.66538E-09 -1.60392E-09 -1.54246E-09 -1.48104E-09 -1.41972E-09 -1.35857E-09 -1.29763E-09
  -1.23695E-09 -1.17659E-09 -1.11662E-09 -1.05706E-09 -9.97982E-10 -9.39426E-10 -8.81445E-10 -8.24092E-10 -7.67399E-10 -7.11423E-10
  -6.56209E-10 -6.01795E-10 -5.48229E-10 -4.95542E-10 -4.43783E-10 -3.92991E-10 -3.43204E-10 -2.94443E-10 -2.46766E-10 -2.00196E-10
  -1.54761E-10 -1.10490E-10 -6.73691E-11 -2.53975E-11  1.54340E-11  5.51206E-11  9.36823E-11  1.31111E-10  1.67418E-10  2.02607E-10
   2.36680E-10  2.69648E-10  3.01506E-10  3.32267E-10  3.61934E-10  3.90509E-10  4.17995E-10  4.44396E-10  4.69722E-10  4.93974E-10
   5.17153E-10  5.39268E-10  5.60314E-10  5.80306E-10  5.99238E-10  6.17119E-10  6.33948E-10  6.49735E-10  6.64476E-10  6.78176E-10
   6.90836E-10  7.02469E-10  7.13064E-10  7.22629E-10  7.31168E-10  7.38686E-10  7.45173E-10  7.50641E-10  7.55086E-10  7.58518E-10
   7.60930E-10  7.62326E-10  7.62712E-10  7.62084E-10  7.60441E-10  7.57787E-10  7.54122E-10  7.49449E-10  7.43760E-10  7.37071E-10
   7.29363E-10  7.20650E-10  7.10923E-10  7.00185E-10  6.88443E-10  6.75679E-10  6.61906E-10  6.47114E-10  6.31311E-10  6.14488E-10
   5.96646E-10  5.77785E-10  5.57899E-10  5.36990E-10  5.15052E-10  4.92086E-10  4.68083E-10  4.43049E-10  4.16976E-10  3.89859E-10
   3.61700E-10  3.32492E-10  3.02229E-10
 NY background values follow
     5.327E-09    5.388E-09    5.449E-09    5.508E-09    5.566E-09    5.623E-09    5.678E-09    5.733E-09    5.786E-09    5.838E-09
     5.888E-09    5.937E-09    5.985E-09    6.032E-09    6.078E-09    6.122E-09    6.165E-09    6.207E-09    6.248E-09    6.287E-09
     6.326E-09    6.363E-09    6.398E-09    6.433E-09    6.466E-09    6.498E-09    6.529E-09    6.559E-09    6.587E-09    6.614E-09
     6.641E-09    6.665E-09    6.689E-09    6.712E-09    6.733E-09    6.753E-09    6.772E-09    6.790E-09    6.806E-09    6.822E-09
     6.836E-09    6.849E-09    6.861E-09    6.871E-09    6.881E-09    6.890E-09    6.897E-09    6.903E-09    6.908E-09    6.912E-09
     6.915E-09    6.917E-09    6.917E-09    6.917E-09    6.915E-09    6.912E-09    6.909E-09    6.904E-09    6.898E-09    6.891E-09
     6.883E-09    6.874E-09    6.863E-09    6.852E-09    6.840E-09    6.827E-09    6.812E-09    6.797E-09    6.781E-09    6.763E-09
     6.745E-09    6.726E-09    6.705E-09    6.684E-09    6.662E-09    6.639E-09    6.614E-09    6.589E-09    6.563E-09    6.536E-09
     6.508E-09    6.479E-09    6.449E-09    6.418E-09    6.386E-09    6.353E-09    6.318E-09    6.283E-09    6.247E-09    6.210E-09
     6.172E-09    6.133E-09    6.093E-09    6.052E-09    6.010E-09    5.967E-09    5.923E-09    5.878E-09    5.831E-09    5.784E-09
     5.736E-09    5.687E-09    5.636E-09    5.585E-09    5.533E-09    5.479E-09    5.425E-09    5.369E-09    5.313E-09    5.255E-09
     5.196E-09    5.137E-09    5.076E-09    5.014E-09    4.951E-09    4.887E-09    4.822E-09    4.756E-09    4.688E-09    4.620E-09
     4.551E-09    4.480E-09    4.409E-09    4.336E-09    4.262E-09    4.187E-09    4.111E-09    4.034E-09    3.956E-09    3.877E-09
     3.797E-09    3.716E-09    3.633E-09    3.550E-09    3.465E-09    3.379E-09    3.292E-09    3.204E-09    3.115E-09    3.025E-09
     2.934E-09    2.842E-09    2.748E-09    2.654E-09    2.558E-09    2.462E-09    2.364E-09    2.265E-09    2.166E-09    2.065E-09
     1.964E-09    1.862E-09    1.759E-09    1.656E-09    1.552E-09    1.448E-09    1.343E-09    1.238E-09    1.133E-09    1.027E-09
     9.219E-10    8.163E-10    7.107E-10    6.052E-10    4.999E-10    3.948E-10    2.900E-10    1.856E-10    8.161E-11   -2.185E-11
    -1.247E-10   -2.270E-10   -3.285E-10   -4.293E-10   -5.291E-10   -6.281E-10   -7.261E-10   -8.230E-10   -9.188E-10   -1.013E-09
    -1.107E-09   -1.199E-09   -1.290E-09   -1.379E-09   -1.467E-09   -1.553E-09   -1.637E-09   -1.720E-09   -1.801E-09   -1.880E-09
    -1.958E-09   -2.033E-09   -2.107E-09   -2.178E-09   -2.247E-09   -2.315E-09   -2.380E-09   -2.442E-09   -2.503E-09   -2.561E-09
    -2.616E-09   -2.669E-09   -2.720E-09   -2.768E-09   -2.813E-09   -2.856E-09   -2.896E-09   -2.933E-09   -2.968E-09   -3.000E-09
    -3.028E-09   -3.054E-09   -3.077E-09   -3.097E-09   -3.114E-09   -3.128E-09   -3.139E-09   -3.147E-09   -3.152E-09   -3.153E-09
    -3.152E-09   -3.148E-09   -3.140E-09   -3.130E-09   -3.118E-09   -3.102E-09   -3.084E-09   -3.064E-09   -3.041E-09   -3.015E-09
    -2.988E-09   -2.958E-09   -2.926E-09   -2.891E-09   -2.855E-09   -2.817E-09   -2.777E-09   -2.735E-09   -2.691E-09   -2.646E-09
    -2.599E-09   -2.551E-09   -2.501E-09   -2.449E-09   -2.397E-09   -2.343E-09   -2.288E-09   -2.231E-09   -2.174E-09   -2.116E-09
    -2.057E-09   -1.997E-09   -1.936E-09   -1.874E-09   -1.812E-09   -1.749E-09   -1.686E-09   -1.622E-09   -1.558E-09   -1.493E-09
    -1.428E-09   -1.363E-09   -1.298E-09   -1.233E-09   -1.168E-09   -1.102E-09   -1.037E-09   -9.721E-10   -9.073E-10   -8.426E-10
    -7.783E-10   -7.143E-10   -6.508E-10   -5.877E-10   -5.251E-10   -4.630E-10   -4.016E-10   -3.408E-10   -2.807E-10   -2.214E-10
    -1.628E-10   -1.051E-10   -4.827E-11    7.655E-12    6.262E-11    1.166E-10    1.695E-10    2.214E-10    2.722E-10    3.218E-10
     3.703E-10    4.176E-10    4.637E-10    5.086E-10    5.523E-10    5.949E-10    6.363E-10    6.766E-10    7.157E-10    7.537E-10
     7.905E-10    8.262E-10    8.608E-10    8.942E-10    9.265E-10    9.577E-10    9.878E-10    1.017E-09    1.045E-09    1.071E-09
     1.097E-09    1.122E-09    1.145E-09    1.167E-09    1.189E-09    1.209E-09    1.228E-09    1.246E-09    1.263E-09    1.279E-09
     1.294E-09    1.308E-09    1.321E-09    1.333E-09    1.343E-09    1.353E-09    1.361E-09    1.369E-09    1.375E-09    1.381E-09
     1.385E-09    1.389E-09    1.391E-09    1.392E-09    1.393E-09    1.392E-09    1.390E-09    1.387E-09    1.383E-09    1.378E-09
     1.372E-09    1.365E-09    1.357E-09    1.348E-09    1.338E-09    1.327E-09    1.315E-09    1.302E-09    1.288E-09    1.272E-09
     1.256E-09    1.239E-09    1.220E-09    1.201E-09    1.181E-09    1.159E-09    1.136E-09    1.113E-09    1.088E-09    1.062E-09
     1.035E-09    1.008E-09    9.786E-10
 Cr       Conc. = 1.90E-10
   5.79516E-09  6.00265E-09  6.11714E-09  6.00704E-09  5.90610E-09  5.87420E-09  5.87178E-09  5.88411E-09  5.90469E-09  5.93013E-09
   5.95848E-09  5.98852E-09  6.01940E-09  6.05056E-09  6.08155E-09  6.11203E-09  6.14170E-09  6.17035E-09  6.19772E-09  6.22359E-09
   6.24773E-09  6.26986E-09  6.28966E-09  6.30675E-09  6.32060E-09  6.33055E-09  6.33561E-09  6.33432E-09  6.32441E-09  6.30221E-09
   6.26325E-09  6.24026E-09  6.40267E-09  6.61090E-09  6.80369E-09  6.99111E-09  7.19124E-09  7.39389E-09  7.58719E-09  7.77494E-09
   7.97040E-09  8.10817E-09  8.00785E-09  7.63418E-09  7.45933E-09  7.36366E-09  7.30241E-09  7.25921E-09  7.22663E-09  7.20076E-09
   7.17923E-09  7.16065E-09  7.14398E-09  7.12861E-09  7.11407E-09  7.09993E-09  7.08599E-09  7.07207E-09  7.05788E-09  7.04342E-09
   7.02858E-09  7.01320E-09  6.99730E-09  6.98077E-09  6.96363E-09  6.94577E-09  6.92720E-09  6.90787E-09  6.88778E-09  6.86693E-09
   6.84526E-09  6.82278E-09  6.79954E-09  6.77542E-09  6.75050E-09  6.72474E-09  6.69811E-09  6.67064E-09  6.64228E-09  6.61304E-09
   6.58290E-09  6.55187E-09  6.51993E-09  6.48706E-09  6.45329E-09  6.41859E-09  6.38294E-09  6.34637E-09  6.30885E-09  6.27037E-09
   6.23093E-09  6.19056E-09  6.14918E-09  6.10687E-09  6.06357E-09  6.01927E-09  5.97400E-09  5.92775E-09  5.88049E-09  5.83224E-09
   5.78299E-09  5.73273E-09  5.68147E-09  5.62920E-09  5.57589E-09  5.52158E-09  5.46623E-09  5.40988E-09  5.35249E-09  5.29403E-09
   5.23458E-09  5.17407E-09  5.11250E-09  5.04989E-09  4.98622E-09  4.92151E-09  4.85575E-09  4.78894E-09  4.72104E-09  4.65212E-09
   4.58209E-09  4.51102E-09  4.43887E-09  4.36566E-09  4.29138E-09  4.21601E-09  4.13954E-09  4.06204E-09  3.98345E-09  3.90377E-09
   3.82302E-09  3.74117E-09  3.65826E-09  3.57427E-09  3.48919E-09  3.40300E-09  3.31579E-09  3.22746E-09  3.13807E-09  3.04757E-09
   2.95602E-09  2.86339E-09  2.76970E-09  2.67490E-09  2.57906E-09  2.48215E-09  2.38420E-09  2.28526E-09  2.18541E-09  2.08473E-09
   1.98326E-09  1.88110E-09  1.77831E-09  1.67497E-09  1.57115E-09  1.46694E-09  1.36242E-09  1.25768E-09  1.15284E-09  1.04801E-09
   9.43309E-10  8.38978E-10  7.35283E-10  6.32759E-10  5.32512E-10  4.37737E-10  3.63011E-10  3.42131E-10  3.08814E-10  2.54143E-10
   1.90107E-10  1.22479E-10  4.60374E-11 -4.22555E-11 -1.41011E-10 -2.51310E-10 -3.97228E-10 -6.11472E-10 -8.54001E-10 -9.83488E-10
  -1.08831E-09 -1.18568E-09 -1.27936E-09 -1.37048E-09 -1.45951E-09 -1.54663E-09 -1.63190E-09 -1.71530E-09 -1.79688E-09 -1.87658E-09
  -1.95432E-09 -2.03012E-09 -2.10390E-09 -2.17562E-09 -2.24519E-09 -2.31260E-09 -2.37782E-09 -2.44072E-09 -2.50130E-09 -2.55951E-09
  -2.61530E-09 -2.66862E-09 -2.71940E-09 -2.76761E-09 -2.81323E-09 -2.85616E-09 -2.89640E-09 -2.93390E-09 -2.96862E-09 -3.00048E-09
  -3.02951E-09 -3.05562E-09 -3.07878E-09 -3.09897E-09 -3.11618E-09 -3.13031E-09 -3.14138E-09 -3.14937E-09 -3.15421E-09 -3.15598E-09
  -3.15473E-09 -3.15055E-09 -3.14349E-09 -3.13362E-09 -3.12101E-09 -3.10574E-09 -3.08788E-09 -3.06749E-09 -3.04464E-09 -3.01941E-09
  -2.99187E-09 -2.96208E-09 -2.93012E-09 -2.89605E-09 -2.85996E-09 -2.82191E-09 -2.78197E-09 -2.74020E-09 -2.69669E-09 -2.65150E-09
  -2.60470E-09 -2.55637E-09 -2.50657E-09 -2.45537E-09 -2.40283E-09 -2.34904E-09 -2.29405E-09 -2.23795E-09 -2.18079E-09 -2.12263E-09
  -2.06357E-09 -2.00364E-09 -1.94293E-09 -1.88150E-09 -1.81940E-09 -1.75672E-09 -1.69351E-09 -1.62984E-09 -1.56576E-09 -1.50134E-09
  -1.43665E-09 -1.37175E-09 -1.30669E-09 -1.24153E-09 -1.17634E-09 -1.11117E-09 -1.04608E-09 -9.81118E-10 -9.16351E-10 -8.51834E-10
  -7.87612E-10 -7.23744E-10 -6.60286E-10 -5.97276E-10 -5.34784E-10 -4.72841E-10 -4.11504E-10 -3.50827E-10 -2.90840E-10 -2.31598E-10
  -1.73149E-10 -1.15531E-10 -5.87900E-11 -2.95722E-12  5.19175E-11  1.05798E-10  1.58643E-10  2.10433E-10  2.61111E-10  3.10653E-10
   3.59033E-10  4.06220E-10  4.52229E-10  4.97061E-10  5.40726E-10  5.83217E-10  6.24557E-10  6.64737E-10  7.03768E-10  7.41654E-10
   7.78398E-10  8.14009E-10  8.48486E-10  8.81838E-10  9.14070E-10  9.45185E-10  9.75185E-10  1.00407E-09  1.03186E-09  1.05855E-09
   1.08414E-09  1.10864E-09  1.13205E-09  1.15438E-09  1.17563E-09  1.19580E-09  1.21489E-09  1.23291E-09  1.24987E-09  1.26576E-09
   1.28059E-09  1.29436E-09  1.30708E-09  1.31874E-09  1.32935E-09  1.33892E-09  1.34743E-09  1.35490E-09  1.36132E-09  1.36671E-09
   1.37105E-09  1.37436E-09  1.37663E-09  1.37787E-09  1.37807E-09  1.37724E-09  1.37537E-09  1.37247E-09  1.36854E-09  1.36358E-09
   1.35758E-09  1.35056E-09  1.34250E-09  1.33340E-09  1.32328E-09  1.31212E-09  1.29993E-09  1.28670E-09  1.27243E-09  1.25712E-09
   1.24078E-09  1.22339E-09  1.20495E-09  1.18548E-09  1.16495E-09  1.14337E-09  1.12074E-09  1.09705E-09  1.07231E-09  1.04650E-09
   1.01963E-09  9.91686E-10  9.62669E-10
 GABA     Conc. = 1.96E-10
   5.24265E-09  5.30303E-09  5.36211E-09  5.41987E-09  5.47631E-09  5.53143E-09  5.58522E-09  5.63766E-09  5.68877E-09  5.73850E-09
   5.78688E-09  5.83387E-09  5.87947E-09  5.92366E-09  5.96643E-09  6.00775E-09  6.04758E-09  6.08590E-09  6.12270E-09  6.15790E-09
   6.19145E-09  6.22331E-09  6.25336E-09  6.28154E-09  6.30772E-09  6.33179E-09  6.35371E-09  6.37381E-09  6.39427E-09  6.43172E-09
   6.47505E-09  6.50439E-09  6.56274E-09  6.64838E-09  6.72273E-09  6.80076E-09  6.89170E-09  6.98565E-09  7.06822E-09  7.12174E-09
   7.14472E-09  7.18814E-09  7.21680E-09  7.16160E-09  7.12372E-09  7.12036E-09  7.08121E-09  7.03907E-09  7.01063E-09  6.98959E-09
   6.97264E-09  6.95805E-09  6.94463E-09  6.93181E-09  6.91916E-09  6.90624E-09  6.89289E-09  6.87903E-09  6.86455E-09  6.85010E-09
   6.83732E-09  6.83430E-09  6.85562E-09  6.86691E-09  6.87968E-09  6.93287E-09  6.98305E-09  7.01653E-09  7.05459E-09  7.09354E-09
   7.12220E-09  7.12395E-09  7.08621E-09  7.03470E-09  7.01489E-09  6.93705E-09  6.81966E-09  6.77093E-09  6.72031E-09  6.65088E-09
   6.60682E-09  6.56260E-09  6.51935E-09  6.50606E-09  6.49333E-09  6.47089E-09  6.46518E-09  6.46578E-09  6.46457E-09  6.46240E-09
   6.44243E-09  6.41858E-09  6.41426E-09  6.37235E-09  6.29373E-09  6.25638E-09  6.20399E-09  6.11367E-09  6.04509E-09  5.98155E-09
   5.90927E-09  5.84077E-09  5.77542E-09  5.71196E-09  5.64952E-09  5.58755E-09  5.52569E-09  5.46372E-09  5.40146E-09  5.33875E-09
   5.27556E-09  5.21170E-09  5.14711E-09  5.08177E-09  5.01563E-09  4.94869E-09  4.88090E-09  4.81223E-09  4.74262E-09  4.67213E-09
   4.60064E-09  4.52823E-09  4.45483E-09  4.38047E-09  4.30511E-09  4.22874E-09  4.15133E-09  4.07296E-09  3.99354E-09  3.91309E-09
   3.83162E-09  3.74908E-09  3.66553E-09  3.58094E-09  3.49529E-09  3.40856E-09  3.32085E-09  3.23204E-09  3.14220E-09  3.05128E-09
   2.95932E-09  2.86631E-09  2.77225E-09  2.67711E-09  2.58094E-09  2.48373E-09  2.38548E-09  2.28627E-09  2.18616E-09  2.08522E-09
   1.98352E-09  1.88114E-09  1.77813E-09  1.67459E-09  1.57058E-09  1.46619E-09  1.36151E-09  1.25661E-09  1.15163E-09  1.04667E-09
   9.41853E-10  8.37425E-10  7.33660E-10  6.31104E-10  5.30899E-10  4.36350E-10  3.62587E-10  3.44097E-10  3.12691E-10  2.59321E-10
   1.96336E-10  1.29633E-10  5.38249E-11 -3.42001E-11 -1.33007E-10 -2.43779E-10 -3.91383E-10 -6.09351E-10 -8.55899E-10 -9.86275E-10
  -1.09145E-09 -1.18902E-09 -1.28283E-09 -1.37404E-09 -1.46315E-09 -1.55033E-09 -1.63566E-09 -1.71910E-09 -1.80073E-09 -1.88046E-09
  -1.95824E-09 -2.03408E-09 -2.10788E-09 -2.17963E-09 -2.24923E-09 -2.31666E-09 -2.38190E-09 -2.44482E-09 -2.50541E-09 -2.56364E-09
  -2.61944E-09 -2.67277E-09 -2.72356E-09 -2.77179E-09 -2.81741E-09 -2.86035E-09 -2.90059E-09 -2.93809E-09 -2.97282E-09 -3.00468E-09
  -3.03371E-09 -3.05982E-09 -3.08298E-09 -3.10317E-09 -3.12037E-09 -3.13451E-09 -3.14557E-09 -3.15355E-09 -3.15839E-09 -3.16015E-09
  -3.15890E-09 -3.15470E-09 -3.14763E-09 -3.13775E-09 -3.12514E-09 -3.10986E-09 -3.09198E-09 -3.07158E-09 -3.04872E-09 -3.02348E-09
