 LCModel (Version 6.3-1R) Copyright: S.W. Provencher.          Ref.: Magn. Reson. Med. 30:672-679 (1993).                
 onepulse 27x10_ftSpec_smooth_lcm
 26 lines in following concentration table = NCONC+1
    Conc.  %SD /Cr+PCr  Metabolite                                         
    0.000 999%   0.000 Ala                                                 
 5.63E-10  87%   6.407 Asp                                                 
    0.000 999%   0.000 Cr                                                  
 1.05E-10 421%   1.195 GABA                                                
 1.86E-10 308%   2.117 Glc                                                 
 1.94E-09  26%  22.098 Gln                                                 
    0.000 999%   0.000 Glu                                                 
    0.000 999%   0.000 Glyc                                                
    0.000 999%   0.000 GPC                                                 
 8.11E-10  55%   9.229 GSH                                                 
 1.61E-09  23%  18.340 Ins                                                 
    0.000 999%   0.000 Lac                                                 
 4.46E-10  35%   5.070 NAAG                                                
    0.000 999%   0.000 NAA                                                 
    0.000 999%   0.000 PCh                                                 
 8.79E-11 320%   1.000 PCr                                                 
 1.92E-09  22%  21.784 PE                                                  
 2.93E-10  51%   3.329 Scyllo                                              
    0.000 999%   0.000 Ser                                                 
    0.000 999%   0.000 Tau                                                 
    0.000 999%   0.000 GPC+PCh                                             
 4.46E-10  35%   5.070 NAA+NAAG                                            
 1.61E-09  23%  18.340 Ins+Glyc                                            
 8.79E-11 320%   1.000 Cr+PCr                                              
 1.94E-09  26%  22.098 Glu+Gln                                             
   6 lines in following misc. output table
  FWHM = 0.123 ppm    S/N =   4                                            
  Data shift = 0.402 ppm                                                   
  Ph: -38 deg     -49.1 deg/ppm                                            
  alphaB,S = 3.0E-01,   2.6E+01                                            
   10 spline knots.   Ns = 5(1)                                            
  (12) 4 infls.   ( 9) 3 extrs.                                            
  363 points on ppm-axis = NY
      4.250000     4.238821     4.227641     4.216462     4.205282     4.194103     4.182923     4.171744     4.160564     4.149385
      4.138206     4.127026     4.115847     4.104667     4.093488     4.082308     4.071129     4.059949     4.048770     4.037591
      4.026411     4.015232     4.004052     3.992873     3.981693     3.970514     3.959334     3.948155     3.936975     3.925796
      3.914617     3.903437     3.892258     3.881078     3.869899     3.858719     3.847540     3.836360     3.825181     3.814002
      3.802822     3.791643     3.780463     3.769284     3.758104     3.746925     3.735745     3.724566     3.713387     3.702207
      3.691028     3.679848     3.668669     3.657489     3.646310     3.635130     3.623951     3.612772     3.601592     3.590413
      3.579233     3.568054     3.556874     3.545695     3.534515     3.523336     3.512156     3.500977     3.489798     3.478618
      3.467439     3.456259     3.445080     3.433900     3.422721     3.411541     3.400362     3.389183     3.378003     3.366824
      3.355644     3.344465     3.333285     3.322106     3.310926     3.299747     3.288568     3.277388     3.266209     3.255029
      3.243850     3.232670     3.221491     3.210311     3.199132     3.187953     3.176773     3.165594     3.154414     3.143235
      3.132055     3.120876     3.109696     3.098517     3.087337     3.076158     3.064979     3.053799     3.042620     3.031440
      3.020261     3.009081     2.997902     2.986722     2.975543     2.964364     2.953184     2.942005     2.930825     2.919646
      2.908466     2.897287     2.886107     2.874928     2.863749     2.852569     2.841390     2.830210     2.819031     2.807851
      2.796672     2.785492     2.774313     2.763134     2.751954     2.740775     2.729595     2.718416     2.707236     2.696057
      2.684877     2.673698     2.662519     2.651339     2.640160     2.628980     2.617801     2.606621     2.595442     2.584262
      2.573083     2.561903     2.550724     2.539545     2.528365     2.517186     2.506006     2.494827     2.483647     2.472468
      2.461288     2.450109     2.438930     2.427750     2.416571     2.405391     2.394212     2.383032     2.371853     2.360673
      2.349494     2.338315     2.327135     2.315956     2.304776     2.293597     2.282417     2.271238     2.260058     2.248879
      2.237700     2.226520     2.215341     2.204161     2.192982     2.181802     2.170623     2.159443     2.148264     2.137084
      2.125905     2.114726     2.103546     2.092367     2.081187     2.070008     2.058828     2.047649     2.036469     2.025290
      2.014111     2.002931     1.991752     1.980572     1.969393     1.958213     1.947034     1.935854     1.924675     1.913496
      1.902316     1.891137     1.879957     1.868778     1.857598     1.846419     1.835239     1.824060     1.812881     1.801701
      1.790522     1.779342     1.768163     1.756983     1.745804     1.734624     1.723445     1.712265     1.701086     1.689907
      1.678727     1.667548     1.656368     1.645189     1.634009     1.622830     1.611650     1.600471     1.589292     1.578112
      1.566933     1.555753     1.544574     1.533394     1.522215     1.511035     1.499856     1.488677     1.477497     1.466318
      1.455138     1.443959     1.432779     1.421600     1.410420     1.399241     1.388062     1.376882     1.365703     1.354523
      1.343344     1.332164     1.320985     1.309805     1.298626     1.287446     1.276267     1.265088     1.253908     1.242729
      1.231549     1.220370     1.209190     1.198011     1.186831     1.175652     1.164473     1.153293     1.142114     1.130934
      1.119755     1.108575     1.097396     1.086216     1.075037     1.063858     1.052678     1.041499     1.030319     1.019140
      1.007960     0.996781     0.985601     0.974422     0.963243     0.952063     0.940884     0.929704     0.918525     0.907345
      0.896166     0.884986     0.873807     0.862628     0.851448     0.840269     0.829089     0.817910     0.806730     0.795551
      0.784371     0.773192     0.762012     0.750833     0.739654     0.728474     0.717295     0.706115     0.694936     0.683756
      0.672577     0.661397     0.650218     0.639039     0.627859     0.616680     0.605500     0.594321     0.583141     0.571962
      0.560782     0.549603     0.538424     0.527244     0.516065     0.504885     0.493706     0.482526     0.471347     0.460167
      0.448988     0.437809     0.426629     0.415450     0.404270     0.393091     0.381911     0.370732     0.359552     0.348373
      0.337193     0.326014     0.314835     0.303655     0.292476     0.281296     0.270117     0.258937     0.247758     0.236578
      0.225399     0.214220     0.203040
 NY phased data points follow
   7.26391E-09  6.96726E-09  6.68116E-09  7.31301E-09  7.10894E-09  7.53850E-09  7.22693E-09  8.70314E-09  8.05488E-09  8.61510E-09
   8.66893E-09  8.39386E-09  7.64373E-09  8.03723E-09  7.48695E-09  7.62016E-09  6.79430E-09  7.36772E-09  6.68298E-09  8.30237E-09
   7.59942E-09  8.35672E-09  6.91109E-09  7.23955E-09  6.57670E-09  7.83517E-09  8.15642E-09  1.09284E-08  9.41826E-09  9.95844E-09
   7.90202E-09  7.79997E-09  6.11245E-09  6.58195E-09  5.95516E-09  6.39249E-09  5.64110E-09  6.25558E-09  5.32260E-09  6.06998E-09
   5.16578E-09  5.66863E-09  4.19820E-09  4.65041E-09  4.18920E-09  5.47160E-09  4.47555E-09  5.54426E-09  4.46898E-09  5.30333E-09
   3.72050E-09  5.02574E-09  3.90413E-09  5.53439E-09  5.12500E-09  5.95350E-09  5.06144E-09  7.93813E-09  9.26188E-09  1.11557E-08
   9.37453E-09  9.64390E-09  7.15394E-09  7.84468E-09  6.13654E-09  7.05367E-09  5.68435E-09  5.83567E-09  5.02831E-09  5.35728E-09
   4.64276E-09  5.39314E-09  4.50866E-09  6.43811E-09  8.16937E-09  1.32985E-08  1.37362E-08  1.32080E-08  1.06586E-08  1.14722E-08
   1.02106E-08  1.05305E-08  8.97541E-09  9.98786E-09  9.03761E-09  9.89394E-09  8.36464E-09  9.28569E-09  7.20220E-09  8.54988E-09
   6.74386E-09  7.63372E-09  5.84997E-09  7.02192E-09  5.69251E-09  6.33996E-09  5.16143E-09  6.42530E-09  5.21402E-09  6.14284E-09
   4.43912E-09  6.77621E-09  5.20664E-09  5.89975E-09  4.08204E-09  4.85948E-09  2.98222E-09  4.25239E-09  3.61484E-09  4.90224E-09
   4.02822E-09  4.98353E-09  4.26451E-09  5.93687E-09  4.17933E-09  5.64440E-09  4.22477E-09  5.90417E-09  4.17478E-09  5.18187E-09
   3.71578E-09  4.26079E-09  2.89411E-09  4.12209E-09  3.44735E-09  4.83667E-09  3.45369E-09  4.91569E-09  3.78625E-09  5.63437E-09
   4.56773E-09  4.66257E-09  4.02676E-09  4.52606E-09  3.75686E-09  6.14490E-09  6.17159E-09  7.03899E-09  5.96201E-09  6.47612E-09
   5.94971E-09  7.34259E-09  7.22741E-09  8.00044E-09  6.87892E-09  8.00438E-09  6.96505E-09  7.53594E-09  6.79604E-09  7.43194E-09
   6.67558E-09  7.50769E-09  6.18753E-09  6.94750E-09  6.11794E-09  6.23406E-09  5.59922E-09  6.42050E-09  5.51289E-09  6.51754E-09
   4.93220E-09  5.98182E-09  5.27777E-09  5.27128E-09  3.29560E-09  4.03692E-09  7.22091E-09  1.37967E-08  1.57550E-08  1.62206E-08
   1.48161E-08  1.52726E-08  1.40919E-08  1.46394E-08  1.37798E-08  1.35026E-08  1.28395E-08  1.28875E-08  1.13962E-08  1.07854E-08
   9.71692E-09  8.86862E-09  6.46416E-09  5.64030E-09  3.60120E-09  2.51424E-09  7.94997E-10 -8.48041E-10 -2.69444E-09 -4.16440E-09
  -5.98617E-09 -6.32723E-09 -7.96898E-09 -8.36918E-09 -8.88749E-09 -8.78686E-09 -8.86590E-09 -8.15565E-09 -8.15281E-09 -7.11365E-09
  -6.52185E-09 -5.79046E-09 -5.18559E-09 -3.72306E-09 -3.95901E-09 -2.85067E-09 -2.85940E-09 -2.11640E-09 -2.57678E-09 -2.53125E-09
  -2.01450E-09 -1.68199E-09 -2.41688E-09 -1.66006E-09 -2.00728E-09 -1.67519E-09 -1.95473E-09 -1.74844E-09 -1.58795E-09 -1.68480E-09
  -1.34686E-09 -1.13731E-09 -1.36820E-09 -1.65390E-09 -1.80743E-09 -1.42160E-09 -1.46443E-09 -1.44326E-09 -1.04785E-09 -1.23156E-09
  -1.78417E-09 -1.75267E-09 -1.00538E-09 -6.89563E-10 -1.35920E-09 -1.44310E-09 -1.36932E-09 -1.48256E-09 -1.41412E-09 -1.87861E-09
  -1.40104E-09 -1.53448E-09 -1.75250E-09 -1.62676E-09 -1.74998E-09 -1.39231E-09 -1.18253E-09 -1.21543E-09 -9.52750E-10 -8.99902E-10
  -9.54324E-10 -1.09878E-09 -8.09050E-10 -1.41165E-09 -9.07238E-10 -1.42235E-09 -9.57284E-10 -1.69119E-09 -8.32836E-10 -1.83996E-09
  -1.48107E-09 -2.02329E-09 -1.88029E-09 -2.26265E-09 -2.06712E-09 -2.50414E-09 -2.05102E-09 -2.40630E-09 -2.04455E-09 -2.14903E-09
  -1.29756E-09 -1.89723E-09 -9.97257E-10 -1.35427E-09 -6.60210E-10 -1.22493E-09 -4.93564E-10 -7.95867E-10 -2.32087E-10 -1.02157E-09
  -3.77094E-10 -8.59353E-10 -5.38106E-10 -1.28213E-09 -2.87098E-10 -7.92435E-10 -6.63033E-10 -1.22053E-09 -6.70401E-10 -1.14557E-09
  -8.37249E-10 -8.17007E-10 -9.51491E-10 -1.59770E-09 -3.16548E-10 -1.50630E-09 -9.95926E-10 -1.38966E-09 -1.01468E-09 -1.47345E-09
  -8.31088E-10 -1.56787E-09 -6.70127E-10 -1.75205E-09 -1.24791E-09 -1.64877E-09 -1.19048E-09 -1.91166E-09 -1.08657E-09 -1.75440E-09
  -1.11661E-09 -1.94831E-09 -1.31948E-09 -1.86517E-09 -1.27253E-09 -1.76017E-09 -1.71297E-09 -2.09769E-09 -1.58640E-09 -2.20448E-09
  -1.08870E-09 -2.08593E-09 -1.40661E-09 -2.05537E-09 -1.85925E-09 -1.86493E-09 -1.61076E-09 -2.31363E-09 -1.68858E-09 -2.15989E-09
  -1.21739E-09 -2.18977E-09 -1.25098E-09 -2.58527E-09 -1.61422E-09 -2.39711E-09 -1.80616E-09 -2.06087E-09 -1.80317E-09 -2.14034E-09
  -1.87516E-09 -2.82093E-09 -1.89226E-09 -2.85485E-09 -1.85036E-09 -2.68858E-09 -1.95697E-09 -2.53209E-09 -1.99596E-09 -2.36581E-09
  -2.14581E-09 -3.01715E-09 -1.58253E-09 -2.81625E-09 -2.02937E-09 -3.09247E-09 -2.06935E-09 -3.19921E-09 -2.10904E-09 -2.87349E-09
  -1.77148E-09 -2.09675E-09 -2.67976E-09
 NY points of the fit to the data follow
   7.41152E-09  7.40900E-09  7.20625E-09  6.91893E-09  6.75866E-09  7.36042E-09  7.78574E-09  7.90329E-09  8.55055E-09  8.98178E-09
   8.67353E-09  8.37870E-09  7.85665E-09  7.75807E-09  7.79233E-09  7.37112E-09  6.80780E-09  7.28512E-09  8.07251E-09  7.45038E-09
   6.57226E-09  6.63076E-09  7.23028E-09  7.73199E-09  8.17022E-09  8.80375E-09  9.57074E-09  9.84720E-09  9.18104E-09  8.08278E-09
   7.82959E-09  7.60822E-09  7.06104E-09  6.62254E-09  6.49604E-09  6.10441E-09  5.72294E-09  5.47312E-09  5.42367E-09  5.33738E-09
   5.25624E-09  5.18142E-09  5.08952E-09  4.99103E-09  4.83461E-09  4.61485E-09  4.55798E-09  4.18694E-09  4.06308E-09  4.18339E-09
   4.48032E-09  4.83472E-09  5.07885E-09  5.41209E-09  6.13803E-09  6.77981E-09  7.07552E-09  7.74462E-09  8.44486E-09  8.57760E-09
   8.50199E-09  8.40918E-09  8.38493E-09  8.29356E-09  7.77530E-09  7.14940E-09  6.91736E-09  6.65831E-09  6.01247E-09  5.84463E-09
   6.17294E-09  6.60405E-09  7.13939E-09  7.61973E-09  8.30362E-09  9.36172E-09  1.05924E-08  1.14546E-08  1.18185E-08  1.18429E-08
   1.16411E-08  1.12381E-08  1.06861E-08  1.03145E-08  1.00600E-08  9.29692E-09  8.15232E-09  7.08702E-09  6.50679E-09  6.16455E-09
   5.92277E-09  5.76323E-09  5.65715E-09  5.56705E-09  5.47381E-09  5.41940E-09  5.37189E-09  5.32412E-09  5.29460E-09  5.25687E-09
   5.23722E-09  5.23594E-09  5.23293E-09  5.22996E-09  5.23328E-09  5.24131E-09  5.25238E-09  5.26575E-09  5.28033E-09  5.29594E-09
   5.31223E-09  5.32889E-09  5.34566E-09  5.36230E-09  5.37860E-09  5.39439E-09  5.40950E-09  5.42377E-09  5.43705E-09  5.44921E-09
   5.46012E-09  5.46968E-09  5.47775E-09  5.48424E-09  5.48904E-09  5.49206E-09  5.49319E-09  5.49234E-09  5.48942E-09  5.48435E-09
   5.47704E-09  5.46739E-09  5.45534E-09  5.44081E-09  5.42370E-09  5.40396E-09  5.38151E-09  5.35626E-09  5.32817E-09  5.29716E-09
   5.26316E-09  5.22612E-09  5.18598E-09  5.14270E-09  5.09622E-09  5.04650E-09  4.99353E-09  4.93728E-09  4.87774E-09  4.81495E-09
   4.74892E-09  4.67974E-09  4.60753E-09  4.53245E-09  4.45480E-09  4.37495E-09  4.29353E-09  4.21158E-09  4.13073E-09  4.05332E-09
   3.98307E-09  3.92621E-09  3.89420E-09  3.91043E-09  4.03100E-09  4.42718E-09  5.88129E-09  1.13135E-08  1.56206E-08  1.68763E-08
   1.63182E-08  1.54973E-08  1.48197E-08  1.43934E-08  1.42950E-08  1.45860E-08  1.42071E-08  1.10000E-08  4.97537E-09  2.86929E-09
   2.09481E-09  1.65652E-09  1.34576E-09  1.09635E-09  8.81202E-10  6.87393E-10  5.07972E-10  3.38953E-10  1.77966E-10  2.34827E-11
  -1.25468E-10 -2.69491E-10 -4.09010E-10 -5.44233E-10 -6.75338E-10 -8.02367E-10 -9.25334E-10 -1.04419E-09 -1.15889E-09 -1.26934E-09
  -1.37542E-09 -1.47703E-09 -1.57402E-09 -1.66626E-09 -1.75360E-09 -1.83588E-09 -1.91293E-09 -1.98463E-09 -2.05084E-09 -2.11171E-09
  -2.16738E-09 -2.21801E-09 -2.26373E-09 -2.30469E-09 -2.34104E-09 -2.37292E-09 -2.40047E-09 -2.42383E-09 -2.44315E-09 -2.45857E-09
  -2.47020E-09 -2.47822E-09 -2.48274E-09 -2.48392E-09 -2.48188E-09 -2.47676E-09 -2.46869E-09 -2.45784E-09 -2.44432E-09 -2.42827E-09
  -2.40982E-09 -2.38912E-09 -2.36629E-09 -2.34149E-09 -2.31483E-09 -2.28647E-09 -2.25654E-09 -2.22516E-09 -2.19247E-09 -2.15862E-09
  -2.12373E-09 -2.08794E-09 -2.05139E-09 -2.01421E-09 -1.97654E-09 -1.93851E-09 -1.90026E-09 -1.86193E-09 -1.82363E-09 -1.78550E-09
  -1.74770E-09 -1.71036E-09 -1.67360E-09 -1.63755E-09 -1.60237E-09 -1.56816E-09 -1.53509E-09 -1.50327E-09 -1.47284E-09 -1.44395E-09
  -1.41664E-09 -1.39088E-09 -1.36668E-09 -1.34397E-09 -1.32275E-09 -1.30299E-09 -1.28465E-09 -1.26772E-09 -1.25216E-09 -1.23794E-09
  -1.22505E-09 -1.21345E-09 -1.20312E-09 -1.19402E-09 -1.18612E-09 -1.17942E-09 -1.17387E-09 -1.16945E-09 -1.16612E-09 -1.16388E-09
  -1.16267E-09 -1.16249E-09 -1.16329E-09 -1.16506E-09 -1.16777E-09 -1.17140E-09 -1.17589E-09 -1.18124E-09 -1.18743E-09 -1.19442E-09
  -1.20217E-09 -1.21067E-09 -1.21988E-09 -1.22980E-09 -1.24037E-09 -1.25159E-09 -1.26340E-09 -1.27580E-09 -1.28875E-09 -1.30223E-09
  -1.31622E-09 -1.33066E-09 -1.34556E-09 -1.36087E-09 -1.37657E-09 -1.39264E-09 -1.40905E-09 -1.42574E-09 -1.44275E-09 -1.45998E-09
  -1.47746E-09 -1.49514E-09 -1.51300E-09 -1.53104E-09 -1.54926E-09 -1.56765E-09 -1.58621E-09 -1.60493E-09 -1.62381E-09 -1.64285E-09
  -1.66203E-09 -1.68135E-09 -1.70081E-09 -1.72041E-09 -1.74013E-09 -1.75997E-09 -1.77994E-09 -1.80001E-09 -1.82020E-09 -1.84048E-09
  -1.86087E-09 -1.88135E-09 -1.90191E-09 -1.92257E-09 -1.94329E-09 -1.96409E-09 -1.98496E-09 -2.00590E-09 -2.02689E-09 -2.04794E-09
  -2.06903E-09 -2.09017E-09 -2.11134E-09 -2.13255E-09 -2.15379E-09 -2.17505E-09 -2.19634E-09 -2.21763E-09 -2.23894E-09 -2.26024E-09
  -2.28155E-09 -2.30285E-09 -2.32414E-09 -2.34542E-09 -2.36667E-09 -2.38790E-09 -2.40910E-09 -2.43026E-09 -2.45138E-09 -2.47245E-09
  -2.49348E-09 -2.51445E-09 -2.53536E-09
 NY background values follow
    -2.918E-09   -2.843E-09   -2.769E-09   -2.694E-09   -2.619E-09   -2.545E-09   -2.470E-09   -2.396E-09   -2.321E-09   -2.246E-09
    -2.172E-09   -2.097E-09   -2.023E-09   -1.948E-09   -1.874E-09   -1.799E-09   -1.725E-09   -1.651E-09   -1.576E-09   -1.502E-09
    -1.428E-09   -1.354E-09   -1.280E-09   -1.206E-09   -1.132E-09   -1.059E-09   -9.851E-10   -9.116E-10   -8.382E-10   -7.649E-10
    -6.917E-10   -6.187E-10   -5.457E-10   -4.729E-10   -4.003E-10   -3.278E-10   -2.554E-10   -1.832E-10   -1.111E-10   -3.923E-11
     3.251E-11    1.041E-10    1.755E-10    2.467E-10    3.177E-10    3.885E-10    4.591E-10    5.295E-10    5.998E-10    6.697E-10
     7.395E-10    8.091E-10    8.785E-10    9.476E-10    1.016E-09    1.085E-09    1.153E-09    1.221E-09    1.289E-09    1.357E-09
     1.424E-09    1.491E-09    1.557E-09    1.623E-09    1.689E-09    1.755E-09    1.820E-09    1.885E-09    1.949E-09    2.013E-09
     2.076E-09    2.140E-09    2.202E-09    2.264E-09    2.326E-09    2.388E-09    2.448E-09    2.509E-09    2.569E-09    2.628E-09
     2.687E-09    2.745E-09    2.803E-09    2.860E-09    2.917E-09    2.973E-09    3.029E-09    3.084E-09    3.138E-09    3.192E-09
     3.245E-09    3.298E-09    3.350E-09    3.401E-09    3.451E-09    3.501E-09    3.550E-09    3.599E-09    3.647E-09    3.694E-09
     3.740E-09    3.786E-09    3.831E-09    3.875E-09    3.919E-09    3.961E-09    4.003E-09    4.044E-09    4.083E-09    4.122E-09
     4.160E-09    4.196E-09    4.231E-09    4.265E-09    4.297E-09    4.327E-09    4.356E-09    4.384E-09    4.410E-09    4.434E-09
     4.456E-09    4.476E-09    4.494E-09    4.510E-09    4.524E-09    4.536E-09    4.545E-09    4.552E-09    4.557E-09    4.559E-09
     4.559E-09    4.556E-09    4.550E-09    4.541E-09    4.530E-09    4.516E-09    4.499E-09    4.478E-09    4.455E-09    4.428E-09
     4.398E-09    4.365E-09    4.329E-09    4.289E-09    4.245E-09    4.198E-09    4.147E-09    4.092E-09    4.034E-09    3.971E-09
     3.905E-09    3.834E-09    3.760E-09    3.681E-09    3.598E-09    3.511E-09    3.419E-09    3.324E-09    3.224E-09    3.120E-09
     3.012E-09    2.902E-09    2.787E-09    2.670E-09    2.550E-09    2.427E-09    2.301E-09    2.173E-09    2.043E-09    1.911E-09
     1.777E-09    1.642E-09    1.505E-09    1.367E-09    1.228E-09    1.088E-09    9.471E-10    8.060E-10    6.645E-10    5.230E-10
     3.816E-10    2.404E-10    9.968E-11   -4.037E-11   -1.796E-10   -3.178E-10   -4.548E-10   -5.903E-10   -7.243E-10   -8.565E-10
    -9.867E-10   -1.115E-09   -1.241E-09   -1.364E-09   -1.484E-09   -1.602E-09   -1.716E-09   -1.827E-09   -1.935E-09   -2.039E-09
    -2.139E-09   -2.235E-09   -2.327E-09   -2.415E-09   -2.498E-09   -2.576E-09   -2.649E-09   -2.717E-09   -2.780E-09   -2.837E-09
    -2.890E-09   -2.937E-09   -2.980E-09   -3.018E-09   -3.052E-09   -3.081E-09   -3.106E-09   -3.127E-09   -3.144E-09   -3.157E-09
    -3.167E-09   -3.173E-09   -3.175E-09   -3.174E-09   -3.170E-09   -3.163E-09   -3.154E-09   -3.141E-09   -3.126E-09   -3.108E-09
    -3.088E-09   -3.065E-09   -3.041E-09   -3.015E-09   -2.986E-09   -2.957E-09   -2.925E-09   -2.892E-09   -2.858E-09   -2.823E-09
    -2.787E-09   -2.750E-09   -2.712E-09   -2.673E-09   -2.634E-09   -2.595E-09   -2.556E-09   -2.516E-09   -2.477E-09   -2.437E-09
    -2.398E-09   -2.360E-09   -2.322E-09   -2.285E-09   -2.249E-09   -2.213E-09   -2.179E-09   -2.146E-09   -2.115E-09   -2.085E-09
    -2.057E-09   -2.030E-09   -2.005E-09   -1.981E-09   -1.959E-09   -1.938E-09   -1.919E-09   -1.901E-09   -1.884E-09   -1.869E-09
    -1.856E-09   -1.843E-09   -1.832E-09   -1.822E-09   -1.813E-09   -1.806E-09   -1.799E-09   -1.794E-09   -1.790E-09   -1.787E-09
    -1.785E-09   -1.784E-09   -1.784E-09   -1.785E-09   -1.787E-09   -1.790E-09   -1.793E-09   -1.798E-09   -1.803E-09   -1.810E-09
    -1.817E-09   -1.824E-09   -1.833E-09   -1.842E-09   -1.852E-09   -1.862E-09   -1.874E-09   -1.885E-09   -1.898E-09   -1.910E-09
    -1.924E-09   -1.937E-09   -1.952E-09   -1.966E-09   -1.981E-09   -1.997E-09   -2.013E-09   -2.029E-09   -2.045E-09   -2.062E-09
    -2.079E-09   -2.096E-09   -2.113E-09   -2.130E-09   -2.148E-09   -2.166E-09   -2.184E-09   -2.202E-09   -2.220E-09   -2.239E-09
    -2.257E-09   -2.276E-09   -2.295E-09   -2.314E-09   -2.333E-09   -2.352E-09   -2.372E-09   -2.391E-09   -2.411E-09   -2.430E-09
    -2.450E-09   -2.470E-09   -2.490E-09   -2.510E-09   -2.531E-09   -2.551E-09   -2.571E-09   -2.592E-09   -2.612E-09   -2.633E-09
    -2.653E-09   -2.674E-09   -2.694E-09   -2.715E-09   -2.736E-09   -2.757E-09   -2.777E-09   -2.798E-09   -2.819E-09   -2.840E-09
    -2.861E-09   -2.881E-09   -2.902E-09   -2.923E-09   -2.944E-09   -2.965E-09   -2.985E-09   -3.006E-09   -3.027E-09   -3.047E-09
    -3.068E-09   -3.088E-09   -3.109E-09
 Asp      Conc. = 5.63E-10
  -2.30872E-09 -2.31559E-09 -2.30142E-09 -2.29599E-09 -2.25887E-09 -2.25272E-09 -2.24527E-09 -2.24418E-09 -2.20626E-09 -2.15370E-09
  -2.09409E-09 -2.03045E-09 -1.96388E-09 -1.89479E-09 -1.82470E-09 -1.75404E-09 -1.68285E-09 -1.61117E-09 -1.53913E-09 -1.46676E-09
  -1.39413E-09 -1.32126E-09 -1.24818E-09 -1.17489E-09 -1.10140E-09 -1.02767E-09 -9.53690E-10 -8.79378E-10 -8.04660E-10 -7.29381E-10
  -6.53316E-10 -5.76162E-10 -4.97286E-10 -4.15623E-10 -3.28878E-10 -2.31122E-10 -1.05446E-10  9.85177E-12  1.30370E-10  2.15902E-10
   2.74948E-10  3.35769E-10  4.42125E-10  6.24426E-10  8.53605E-10  1.13072E-09  1.27252E-09  1.28336E-09  1.36676E-09  1.47371E-09
   1.59969E-09  1.72808E-09  1.83227E-09  1.85112E-09  1.77927E-09  1.70005E-09  1.64063E-09  1.73175E-09  1.78921E-09  1.74780E-09
   1.75588E-09  1.78390E-09  1.79800E-09  1.84767E-09  1.92758E-09  1.98871E-09  2.00719E-09  2.04319E-09  2.08825E-09  2.13804E-09
   2.19059E-09  2.24485E-09  2.30022E-09  2.35629E-09  2.41280E-09  2.46955E-09  2.52639E-09  2.58321E-09  2.63993E-09  2.69647E-09
   2.75277E-09  2.80879E-09  2.86448E-09  2.91980E-09  2.97472E-09  3.02922E-09  3.08327E-09  3.13684E-09  3.18991E-09  3.24245E-09
   3.29447E-09  3.34592E-09  3.39680E-09  3.44709E-09  3.49677E-09  3.54584E-09  3.59427E-09  3.64206E-09  3.68918E-09  3.73562E-09
   3.78137E-09  3.82642E-09  3.87077E-09  3.91437E-09  3.95726E-09  3.99934E-09  4.04057E-09  4.08087E-09  4.12018E-09  4.15841E-09
   4.19550E-09  4.23139E-09  4.26598E-09  4.29922E-09  4.33104E-09  4.36136E-09  4.39012E-09  4.41723E-09  4.44264E-09  4.46627E-09
   4.48805E-09  4.50791E-09  4.52578E-09  4.54158E-09  4.55526E-09  4.56673E-09  4.57593E-09  4.58279E-09  4.58723E-09  4.58919E-09
   4.58859E-09  4.58537E-09  4.57946E-09  4.57078E-09  4.55926E-09  4.54484E-09  4.52744E-09  4.50700E-09  4.48345E-09  4.45671E-09
   4.42671E-09  4.39339E-09  4.35668E-09  4.31651E-09  4.27280E-09  4.22550E-09  4.17454E-09  4.11983E-09  4.06134E-09  3.99898E-09
   3.93269E-09  3.86241E-09  3.78810E-09  3.70968E-09  3.62712E-09  3.54037E-09  3.44944E-09  3.35451E-09  3.25587E-09  3.15386E-09
   3.04892E-09  2.94166E-09  2.83311E-09  2.72518E-09  2.62240E-09  2.53882E-09  2.54241E-09  2.82707E-09  2.99758E-09  2.94657E-09
   2.77604E-09  2.59307E-09  2.42036E-09  2.26498E-09  2.13291E-09  2.02569E-09  1.85863E-09  1.47746E-09  9.17117E-10  6.59912E-10
   4.77974E-10  3.16879E-10  1.64435E-10  1.66901E-11 -1.27953E-10 -2.70138E-10 -4.10188E-10 -5.48208E-10 -6.84157E-10 -8.17985E-10
  -9.49590E-10 -1.07882E-09 -1.20557E-09 -1.32962E-09 -1.45087E-09 -1.56912E-09 -1.68419E-09 -1.79591E-09 -1.90412E-09 -2.00861E-09
  -2.10921E-09 -2.20574E-09 -2.29801E-09 -2.38584E-09 -2.46905E-09 -2.54745E-09 -2.62084E-09 -2.68907E-09 -2.75199E-09 -2.80973E-09
  -2.86241E-09 -2.91018E-09 -2.95317E-09 -2.99151E-09 -3.02533E-09 -3.05479E-09 -3.08000E-09 -3.10110E-09 -3.11823E-09 -3.13153E-09
  -3.14112E-09 -3.14715E-09 -3.14974E-09 -3.14904E-09 -3.14517E-09 -3.13827E-09 -3.12847E-09 -3.11592E-09 -3.10076E-09 -3.08309E-09
  -3.06306E-09 -3.04082E-09 -3.01649E-09 -2.99021E-09 -2.96210E-09 -2.93233E-09 -2.90100E-09 -2.86825E-09 -2.83423E-09 -2.79906E-09
  -2.76288E-09 -2.72582E-09 -2.68803E-09 -2.64962E-09 -2.61074E-09 -2.57152E-09 -2.53210E-09 -2.49262E-09 -2.45319E-09 -2.41395E-09
  -2.37505E-09 -2.33663E-09 -2.29880E-09 -2.26169E-09 -2.22548E-09 -2.19025E-09 -2.15616E-09 -2.12334E-09 -2.09194E-09 -2.06207E-09
  -2.03380E-09 -2.00710E-09 -1.98196E-09 -1.95833E-09 -1.93619E-09 -1.91553E-09 -1.89630E-09 -1.87849E-09 -1.86206E-09 -1.84698E-09
  -1.83324E-09 -1.82079E-09 -1.80963E-09 -1.79970E-09 -1.79099E-09 -1.78348E-09 -1.77713E-09 -1.77192E-09 -1.76781E-09 -1.76479E-09
  -1.76282E-09 -1.76189E-09 -1.76194E-09 -1.76296E-09 -1.76493E-09 -1.76783E-09 -1.77160E-09 -1.77623E-09 -1.78171E-09 -1.78799E-09
  -1.79505E-09 -1.80286E-09 -1.81138E-09 -1.82062E-09 -1.83052E-09 -1.84106E-09 -1.85222E-09 -1.86396E-09 -1.87625E-09 -1.88909E-09
  -1.90244E-09 -1.91624E-09 -1.93051E-09 -1.94519E-09 -1.96027E-09 -1.97573E-09 -1.99152E-09 -2.00761E-09 -2.02401E-09 -2.04065E-09
  -2.05753E-09 -2.07462E-09 -2.09190E-09 -2.10936E-09 -2.12700E-09 -2.14481E-09 -2.16280E-09 -2.18096E-09 -2.19927E-09 -2.21775E-09
  -2.23637E-09 -2.25514E-09 -2.27405E-09 -2.29310E-09 -2.31228E-09 -2.33159E-09 -2.35102E-09 -2.37056E-09 -2.39021E-09 -2.40997E-09
  -2.42984E-09 -2.44979E-09 -2.46984E-09 -2.48998E-09 -2.51019E-09 -2.53048E-09 -2.55085E-09 -2.57128E-09 -2.59177E-09 -2.61231E-09
  -2.63291E-09 -2.65355E-09 -2.67423E-09 -2.69495E-09 -2.71570E-09 -2.73647E-09 -2.75727E-09 -2.77808E-09 -2.79891E-09 -2.81973E-09
  -2.84056E-09 -2.86139E-09 -2.88221E-09 -2.90301E-09 -2.92379E-09 -2.94455E-09 -2.96528E-09 -2.98597E-09 -3.00663E-09 -3.02725E-09
  -3.04781E-09 -3.06832E-09 -3.08877E-09
 GABA     Conc. = 1.05E-10
  -2.91585E-09 -2.84130E-09 -2.76673E-09 -2.69215E-09 -2.61753E-09 -2.54292E-09 -2.46829E-09 -2.39366E-09 -2.31903E-09 -2.24439E-09
  -2.16977E-09 -2.09515E-09 -2.02053E-09 -1.94592E-09 -1.87132E-09 -1.79671E-09 -1.72214E-09 -1.64755E-09 -1.57294E-09 -1.49829E-09
  -1.42360E-09 -1.34879E-09 -1.27381E-09 -1.19855E-09 -1.12285E-09 -1.04640E-09 -9.68555E-10 -8.87895E-10 -8.00340E-10 -6.93387E-10
  -6.00881E-10 -5.20903E-10 -4.03292E-10 -2.88691E-10 -2.06442E-10 -1.19020E-10 -2.70628E-11  5.69323E-11  1.25955E-10  1.78108E-10
   2.25296E-10  2.98201E-10  3.48005E-10  3.63843E-10  4.19847E-10  4.84306E-10  5.24706E-10  5.77444E-10  6.38321E-10  7.02614E-10
   7.68729E-10  8.35842E-10  9.03584E-10  9.71803E-10  1.04042E-09  1.10941E-09  1.17887E-09  1.24902E-09  1.32032E-09  1.39383E-09
   1.47206E-09  1.56320E-09  1.66453E-09  1.74473E-09  1.83114E-09  1.93858E-09  2.02282E-09  2.08763E-09  2.15641E-09  2.22618E-09
   2.28863E-09  2.33689E-09  2.37115E-09  2.41222E-09  2.46698E-09  2.48938E-09  2.51321E-09  2.57204E-09  2.62207E-09  2.67126E-09
   2.73669E-09  2.79356E-09  2.85336E-09  2.93671E-09  3.00895E-09  3.06951E-09  3.14325E-09  3.21589E-09  3.28072E-09  3.34120E-09
   3.39197E-09  3.44388E-09  3.50392E-09  3.54097E-09  3.56767E-09  3.61917E-09  3.65799E-09  3.68201E-09  3.72083E-09  3.76038E-09
   3.79597E-09  3.83403E-09  3.87346E-09  3.91344E-09  3.95355E-09  3.99343E-09  4.03288E-09  4.07173E-09  4.10984E-09  4.14709E-09
   4.18338E-09  4.21856E-09  4.25256E-09  4.28528E-09  4.31666E-09  4.34660E-09  4.37504E-09  4.40189E-09  4.42706E-09  4.45048E-09
   4.47208E-09  4.49179E-09  4.50953E-09  4.52523E-09  4.53881E-09  4.55020E-09  4.55933E-09  4.56613E-09  4.57052E-09  4.57244E-09
   4.57181E-09  4.56856E-09  4.56262E-09  4.55392E-09  4.54239E-09  4.52795E-09  4.51055E-09  4.49009E-09  4.46652E-09  4.43977E-09
   4.40976E-09  4.37642E-09  4.33968E-09  4.29948E-09  4.25574E-09  4.20839E-09  4.15736E-09  4.10258E-09  4.04399E-09  3.98151E-09
   3.91507E-09  3.84461E-09  3.77005E-09  3.69133E-09  3.60839E-09  3.52116E-09  3.42960E-09  3.33385E-09  3.23411E-09  3.13061E-09
   3.02357E-09  2.91326E-09  2.80004E-09  2.68440E-09  2.56738E-09  2.45186E-09  2.35149E-09  2.30064E-09  2.22563E-09  2.10792E-09
   1.96704E-09  1.82279E-09  1.67934E-09  1.53814E-09  1.40050E-09  1.26657E-09  1.12028E-09  9.33287E-10  7.14533E-10  5.52232E-10
   4.03360E-10  2.58482E-10  1.15562E-10 -2.59544E-11 -1.66226E-10 -3.05185E-10 -4.42762E-10 -5.78831E-10 -7.13203E-10 -8.45732E-10
  -9.76251E-10 -1.10456E-09 -1.23051E-09 -1.35388E-09 -1.47453E-09 -1.59224E-09 -1.70684E-09 -1.81814E-09 -1.92596E-09 -2.03011E-09
  -2.13039E-09 -2.22663E-09 -2.31864E-09 -2.40623E-09 -2.48921E-09 -2.56740E-09 -2.64060E-09 -2.70864E-09 -2.77139E-09 -2.82897E-09
  -2.88151E-09 -2.92913E-09 -2.97198E-09 -3.01020E-09 -3.04390E-09 -3.07324E-09 -3.09834E-09 -3.11934E-09 -3.13637E-09 -3.14958E-09
  -3.15908E-09 -3.16501E-09 -3.16752E-09 -3.16674E-09 -3.16279E-09 -3.15582E-09 -3.14595E-09 -3.13333E-09 -3.11810E-09 -3.10036E-09
