 LCModel (Version 6.3-1R) Copyright: S.W. Provencher.          Ref.: Magn. Reson. Med. 30:672-679 (1993).                
 onepulse 27x17_ftSpec_smooth_lcm
 26 lines in following concentration table = NCONC+1
    Conc.  %SD /Cr+PCr  Metabolite                                         
    0.000 999%   0.000 Ala                                                 
    0.000 999%   0.000 Asp                                                 
    0.000 999%   0.000 Cr                                                  
    0.000 999%   0.000 GABA                                                
 5.79E-10 194%   3.708 Glc                                                 
 1.91E-09  42%  12.235 Gln                                                 
    0.000 999%   0.000 Glu                                                 
    0.000 999%   0.000 Glyc                                                
 1.83E-10 232%   1.173 GPC                                                 
    0.000 999%   0.000 GSH                                                 
 1.38E-09  48%   8.852 Ins                                                 
    0.000 999%   0.000 Lac                                                 
 3.80E-10 121%   2.431 NAAG                                                
 8.44E-11 739%   0.540 NAA                                                 
    0.000 999%   0.000 PCh                                                 
 1.56E-10 238%   1.000 PCr                                                 
 2.86E-10 983%   1.828 PE                                                  
 1.88E-10 189%   1.202 Scyllo                                              
 4.95E-09  50%  31.675 Ser                                                 
    0.000 999%   0.000 Tau                                                 
 1.83E-10 232%   1.173 GPC+PCh                                             
 4.64E-10  83%   2.971 NAA+NAAG                                            
 1.38E-09  48%   8.852 Ins+Glyc                                            
 1.56E-10 238%   1.000 Cr+PCr                                              
 1.91E-09  42%  12.235 Glu+Gln                                             
   6 lines in following misc. output table
  FWHM = 0.101 ppm    S/N =   2                                            
  Data shift = 0.391 ppm                                                   
  Ph: -33 deg     -34.7 deg/ppm                                            
  alphaB,S = 7.7E-01,   4.7E+01                                            
    8 spline knots.   Ns = 5(1)                                            
  ( 8) 4 infls.   ( 5) 1 extrs.                                            
  363 points on ppm-axis = NY
      4.250000     4.238821     4.227641     4.216462     4.205282     4.194103     4.182923     4.171744     4.160564     4.149385
      4.138206     4.127026     4.115847     4.104667     4.093488     4.082308     4.071129     4.059949     4.048770     4.037591
      4.026411     4.015232     4.004052     3.992873     3.981693     3.970514     3.959334     3.948155     3.936975     3.925796
      3.914617     3.903437     3.892258     3.881078     3.869899     3.858719     3.847540     3.836360     3.825181     3.814002
      3.802822     3.791643     3.780463     3.769284     3.758104     3.746925     3.735745     3.724566     3.713387     3.702207
      3.691028     3.679848     3.668669     3.657489     3.646310     3.635130     3.623951     3.612772     3.601592     3.590413
      3.579233     3.568054     3.556874     3.545695     3.534515     3.523336     3.512156     3.500977     3.489798     3.478618
      3.467439     3.456259     3.445080     3.433900     3.422721     3.411541     3.400362     3.389183     3.378003     3.366824
      3.355644     3.344465     3.333285     3.322106     3.310926     3.299747     3.288568     3.277388     3.266209     3.255029
      3.243850     3.232670     3.221491     3.210311     3.199132     3.187953     3.176773     3.165594     3.154414     3.143235
      3.132055     3.120876     3.109696     3.098517     3.087337     3.076158     3.064979     3.053799     3.042620     3.031440
      3.020261     3.009081     2.997902     2.986722     2.975543     2.964364     2.953184     2.942005     2.930825     2.919646
      2.908466     2.897287     2.886107     2.874928     2.863749     2.852569     2.841390     2.830210     2.819031     2.807851
      2.796672     2.785492     2.774313     2.763134     2.751954     2.740775     2.729595     2.718416     2.707236     2.696057
      2.684877     2.673698     2.662519     2.651339     2.640160     2.628980     2.617801     2.606621     2.595442     2.584262
      2.573083     2.561903     2.550724     2.539545     2.528365     2.517186     2.506006     2.494827     2.483647     2.472468
      2.461288     2.450109     2.438930     2.427750     2.416571     2.405391     2.394212     2.383032     2.371853     2.360673
      2.349494     2.338315     2.327135     2.315956     2.304776     2.293597     2.282417     2.271238     2.260058     2.248879
      2.237700     2.226520     2.215341     2.204161     2.192982     2.181802     2.170623     2.159443     2.148264     2.137084
      2.125905     2.114726     2.103546     2.092367     2.081187     2.070008     2.058828     2.047649     2.036469     2.025290
      2.014111     2.002931     1.991752     1.980572     1.969393     1.958213     1.947034     1.935854     1.924675     1.913496
      1.902316     1.891137     1.879957     1.868778     1.857598     1.846419     1.835239     1.824060     1.812881     1.801701
      1.790522     1.779342     1.768163     1.756983     1.745804     1.734624     1.723445     1.712265     1.701086     1.689907
      1.678727     1.667548     1.656368     1.645189     1.634009     1.622830     1.611650     1.600471     1.589292     1.578112
      1.566933     1.555753     1.544574     1.533394     1.522215     1.511035     1.499856     1.488677     1.477497     1.466318
      1.455138     1.443959     1.432779     1.421600     1.410420     1.399241     1.388062     1.376882     1.365703     1.354523
      1.343344     1.332164     1.320985     1.309805     1.298626     1.287446     1.276267     1.265088     1.253908     1.242729
      1.231549     1.220370     1.209190     1.198011     1.186831     1.175652     1.164473     1.153293     1.142114     1.130934
      1.119755     1.108575     1.097396     1.086216     1.075037     1.063858     1.052678     1.041499     1.030319     1.019140
      1.007960     0.996781     0.985601     0.974422     0.963243     0.952063     0.940884     0.929704     0.918525     0.907345
      0.896166     0.884986     0.873807     0.862628     0.851448     0.840269     0.829089     0.817910     0.806730     0.795551
      0.784371     0.773192     0.762012     0.750833     0.739654     0.728474     0.717295     0.706115     0.694936     0.683756
      0.672577     0.661397     0.650218     0.639039     0.627859     0.616680     0.605500     0.594321     0.583141     0.571962
      0.560782     0.549603     0.538424     0.527244     0.516065     0.504885     0.493706     0.482526     0.471347     0.460167
      0.448988     0.437809     0.426629     0.415450     0.404270     0.393091     0.381911     0.370732     0.359552     0.348373
      0.337193     0.326014     0.314835     0.303655     0.292476     0.281296     0.270117     0.258937     0.247758     0.236578
      0.225399     0.214220     0.203040
 NY phased data points follow
   1.43423E-08  1.35369E-08  1.35256E-08  1.24628E-08  1.30125E-08  1.15028E-08  1.19666E-08  1.11237E-08  1.16362E-08  1.12644E-08
   1.24456E-08  1.15155E-08  1.28133E-08  1.18935E-08  1.24979E-08  1.14674E-08  1.26333E-08  1.19314E-08  1.19390E-08  1.12684E-08
   1.12116E-08  1.08967E-08  1.27717E-08  1.19232E-08  1.20852E-08  1.08573E-08  1.22604E-08  1.13595E-08  1.27751E-08  1.35874E-08
   1.50994E-08  1.44398E-08  1.46675E-08  1.36227E-08  1.33065E-08  1.20407E-08  1.29816E-08  1.15378E-08  1.15935E-08  1.08053E-08
   1.13738E-08  1.01061E-08  1.05451E-08  9.54532E-09  9.91956E-09  9.24970E-09  9.29874E-09  8.37813E-09  9.06400E-09  7.98561E-09
   8.77473E-09  7.78481E-09  7.63384E-09  6.89738E-09  7.25176E-09  6.74791E-09  6.54001E-09  6.49987E-09  7.46736E-09  8.36840E-09
   1.08132E-08  1.26633E-08  1.26370E-08  1.28199E-08  1.20671E-08  1.13793E-08  1.04065E-08  9.97392E-09  9.36356E-09  8.42036E-09
   7.97630E-09  7.07508E-09  7.36397E-09  5.69893E-09  6.53373E-09  8.42829E-09  1.09236E-08  1.24599E-08  1.39758E-08  1.46354E-08
   1.50382E-08  1.50836E-08  1.48373E-08  1.40174E-08  1.41526E-08  1.37351E-08  1.37276E-08  1.34428E-08  1.28296E-08  1.24005E-08
   1.25037E-08  1.13383E-08  1.17790E-08  1.05106E-08  1.08080E-08  1.08468E-08  1.00320E-08  1.01613E-08  1.01940E-08  9.66047E-09
   1.03873E-08  9.49103E-09  9.62691E-09  9.92666E-09  8.78595E-09  8.22317E-09  8.39704E-09  7.41570E-09  7.17429E-09  7.32170E-09
   7.19184E-09  7.36943E-09  7.14286E-09  7.10135E-09  6.89807E-09  7.83869E-09  8.08980E-09  7.99315E-09  7.52750E-09  7.55353E-09
   7.27387E-09  7.01744E-09  5.65345E-09  5.64860E-09  5.57302E-09  6.05973E-09  6.28409E-09  5.76477E-09  5.46568E-09  5.49294E-09
   6.04392E-09  4.95866E-09  5.01547E-09  5.13216E-09  4.97499E-09  4.57575E-09  5.68809E-09  5.49301E-09  6.39666E-09  5.87496E-09
   6.77211E-09  6.67197E-09  7.23977E-09  7.60417E-09  8.39981E-09  7.88406E-09  8.25884E-09  8.48834E-09  8.84456E-09  8.08541E-09
   8.35319E-09  7.98365E-09  8.28992E-09  8.45993E-09  9.28810E-09  8.04232E-09  8.87969E-09  7.85311E-09  8.88122E-09  8.22155E-09
   8.22975E-09  7.62889E-09  7.85271E-09  8.33680E-09  9.21285E-09  1.01366E-08  1.22125E-08  1.55410E-08  1.81836E-08  2.01490E-08
   2.03500E-08  1.98970E-08  1.99509E-08  1.88380E-08  1.82266E-08  1.74966E-08  1.72892E-08  1.63418E-08  1.59938E-08  1.49629E-08
   1.49937E-08  1.36735E-08  1.31877E-08  1.22555E-08  1.18421E-08  1.00717E-08  9.28922E-09  8.12954E-09  5.90492E-09  4.40424E-09
   2.59603E-09 -4.07795E-10 -1.64860E-09 -4.48287E-09 -7.30512E-09 -1.02352E-08 -1.21483E-08 -1.48229E-08 -1.65118E-08 -1.84188E-08
  -1.94485E-08 -2.03966E-08 -1.98334E-08 -1.98620E-08 -1.90130E-08 -1.79049E-08 -1.60111E-08 -1.43014E-08 -1.22895E-08 -1.06297E-08
  -7.80287E-09 -6.56891E-09 -4.93291E-09 -4.00944E-09 -2.22866E-09 -2.38501E-09 -1.23308E-09 -2.33542E-09 -2.07808E-09 -1.97065E-09
  -1.99185E-09 -2.23055E-09 -1.57110E-09 -1.98248E-09 -1.74110E-09 -1.72043E-09 -1.15654E-09 -1.02146E-09 -1.13517E-09 -1.34063E-09
  -1.07186E-09 -1.48222E-09 -1.79076E-09 -1.74687E-09 -8.93562E-10 -9.84619E-10 -6.34445E-10 -1.27978E-09 -8.93507E-10 -4.97761E-10
  -7.20385E-10 -5.92953E-10 -1.16784E-09 -1.54616E-09 -9.12040E-10 -1.51439E-09 -5.60057E-10 -1.26697E-09 -4.79820E-10 -1.72521E-10
   4.59072E-10 -3.48868E-10 -3.95297E-10  4.69538E-11  4.16058E-10 -5.40369E-10 -7.41186E-10 -6.58097E-10 -6.24945E-10 -1.02925E-09
  -1.12575E-09 -1.10565E-09 -1.62985E-09 -1.00811E-09 -1.09138E-09 -1.09124E-09 -3.05081E-10 -4.11133E-10  5.21337E-11 -3.76635E-10
   3.92345E-10  1.47756E-10  3.80086E-10  2.69194E-10  1.13913E-09  7.11665E-10  6.84678E-10 -6.25767E-11  6.29577E-10 -1.36968E-10
  -2.12666E-10 -4.11604E-10 -4.97616E-10  1.28753E-10 -4.03666E-10 -5.60204E-10 -1.17554E-10 -3.72284E-10 -6.35201E-10 -3.60938E-10
  -4.93439E-10 -7.25507E-10 -8.32375E-11 -5.61782E-10 -6.97111E-10 -5.36945E-10 -2.14577E-10 -1.12776E-09 -4.66126E-10 -9.37993E-10
  -6.77070E-10 -6.22755E-10 -7.25652E-10 -6.52411E-10 -4.62793E-10 -7.18601E-10 -7.24940E-10 -9.85767E-10 -4.88209E-10 -9.63762E-10
  -6.32579E-10 -8.15728E-10 -5.36485E-10 -6.91973E-10 -6.02146E-10 -2.83661E-10 -7.54884E-10 -9.34357E-10 -7.33813E-10 -4.13293E-10
  -7.82209E-10 -4.33534E-10 -6.05420E-10 -8.48432E-10 -6.00124E-10 -3.25066E-10 -3.38262E-10 -9.95466E-10 -4.65759E-10 -6.12307E-10
  -2.18552E-10 -7.67870E-10 -5.87552E-10 -7.49789E-10 -2.04390E-10 -8.09375E-10 -6.15514E-10 -2.16153E-10 -4.55346E-10 -1.08619E-09
  -5.53688E-10 -3.39817E-10 -3.49670E-10 -7.12181E-10 -5.62379E-10 -5.94486E-11 -2.96635E-10 -3.47420E-10 -3.82022E-10 -1.19440E-09
  -7.46058E-10 -1.29424E-10 -1.05062E-10 -3.08302E-10 -4.63840E-10  5.62962E-11 -1.19324E-09 -1.34227E-10 -9.90603E-10 -1.55141E-11
   9.06030E-11 -1.33798E-10  4.78105E-11
 NY points of the fit to the data follow
   1.26448E-08  1.35381E-08  1.33211E-08  1.30784E-08  1.32029E-08  1.33114E-08  1.28018E-08  1.17909E-08  1.09449E-08  1.06761E-08
   1.08764E-08  1.12144E-08  1.15628E-08  1.18977E-08  1.22568E-08  1.24287E-08  1.24113E-08  1.24115E-08  1.23889E-08  1.19603E-08
   1.14539E-08  1.11064E-08  1.08045E-08  1.05827E-08  1.08660E-08  1.15784E-08  1.24757E-08  1.32286E-08  1.35759E-08  1.35626E-08
   1.36864E-08  1.38143E-08  1.39222E-08  1.38234E-08  1.33021E-08  1.25193E-08  1.19208E-08  1.14416E-08  1.10738E-08  1.07941E-08
   1.05581E-08  1.03013E-08  9.95274E-09  9.55784E-09  9.26742E-09  9.01673E-09  8.78659E-09  8.57873E-09  8.39026E-09  8.22822E-09
   8.07238E-09  7.92217E-09  7.76438E-09  7.60481E-09  7.60248E-09  7.87306E-09  8.15347E-09  8.56174E-09  9.20389E-09  9.87394E-09
   1.04289E-08  1.09279E-08  1.13355E-08  1.15887E-08  1.15954E-08  1.13581E-08  1.10471E-08  1.06642E-08  1.00523E-08  9.53559E-09
   9.19070E-09  9.04225E-09  9.09297E-09  9.20260E-09  9.43159E-09  9.85924E-09  1.07077E-08  1.18593E-08  1.30425E-08  1.40196E-08
   1.47036E-08  1.50608E-08  1.51392E-08  1.51943E-08  1.51179E-08  1.46323E-08  1.38524E-08  1.29184E-08  1.21790E-08  1.16490E-08
   1.12591E-08  1.09496E-08  1.06928E-08  1.04723E-08  1.02756E-08  1.00994E-08  9.94359E-09  9.80171E-09  9.66631E-09  9.53541E-09
   9.41741E-09  9.31168E-09  9.21005E-09  9.11026E-09  9.01604E-09  8.92680E-09  8.84150E-09  8.75942E-09  8.67976E-09  8.60213E-09
   8.52626E-09  8.45175E-09  8.37834E-09  8.30575E-09  8.23376E-09  8.16218E-09  8.09082E-09  8.01950E-09  7.94806E-09  7.87642E-09
   7.80435E-09  7.73182E-09  7.65867E-09  7.58483E-09  7.51019E-09  7.43464E-09  7.35810E-09  7.28053E-09  7.20182E-09  7.12190E-09
   7.04072E-09  6.95818E-09  6.87427E-09  6.78890E-09  6.70201E-09  6.61353E-09  6.52351E-09  6.43179E-09  6.33838E-09  6.24322E-09
   6.14630E-09  6.04759E-09  5.94705E-09  5.84463E-09  5.74037E-09  5.63423E-09  5.52625E-09  5.41653E-09  5.30520E-09  5.19240E-09
   5.07831E-09  4.96314E-09  4.84711E-09  4.73056E-09  4.61386E-09  4.49755E-09  4.38232E-09  4.26915E-09  4.15950E-09  4.05554E-09
   3.96076E-09  3.88113E-09  3.82759E-09  3.82259E-09  3.91969E-09  4.28223E-09  5.66438E-09  1.05909E-08  1.61405E-08  2.01603E-08
   2.21549E-08  2.26426E-08  2.23633E-08  2.17767E-08  2.08300E-08  1.89108E-08  1.52408E-08  9.84107E-09  4.70721E-09  3.05720E-09
   2.35061E-09  1.92022E-09  1.60659E-09  1.35369E-09  1.13673E-09  9.43046E-10  7.65522E-10  5.99887E-10  4.43335E-10  2.94088E-10
   1.50936E-10  1.29586E-11 -1.20425E-10 -2.49670E-10 -3.75058E-10 -4.96856E-10 -6.15241E-10 -7.30273E-10 -8.42059E-10 -9.50676E-10
  -1.05613E-09 -1.15843E-09 -1.25757E-09 -1.35356E-09 -1.44637E-09 -1.53596E-09 -1.62231E-09 -1.70540E-09 -1.78519E-09 -1.86159E-09
  -1.93463E-09 -2.00422E-09 -2.07032E-09 -2.13291E-09 -2.19195E-09 -2.24735E-09 -2.29910E-09 -2.34718E-09 -2.39151E-09 -2.43217E-09
  -2.46922E-09 -2.50277E-09 -2.53288E-09 -2.55964E-09 -2.58313E-09 -2.60343E-09 -2.62063E-09 -2.63480E-09 -2.64603E-09 -2.65439E-09
  -2.65999E-09 -2.66288E-09 -2.66315E-09 -2.66089E-09 -2.65619E-09 -2.64910E-09 -2.63973E-09 -2.62815E-09 -2.61444E-09 -2.59868E-09
  -2.58095E-09 -2.56134E-09 -2.53993E-09 -2.51678E-09 -2.49197E-09 -2.46560E-09 -2.43773E-09 -2.40846E-09 -2.37784E-09 -2.34596E-09
  -2.31290E-09 -2.27872E-09 -2.24352E-09 -2.20734E-09 -2.17027E-09 -2.13241E-09 -2.09379E-09 -2.05450E-09 -2.01460E-09 -1.97417E-09
  -1.93328E-09 -1.89200E-09 -1.85038E-09 -1.80851E-09 -1.76643E-09 -1.72421E-09 -1.68194E-09 -1.63964E-09 -1.59739E-09 -1.55525E-09
  -1.51328E-09 -1.47153E-09 -1.43006E-09 -1.38891E-09 -1.34817E-09 -1.30784E-09 -1.26802E-09 -1.22873E-09 -1.19002E-09 -1.15194E-09
  -1.11454E-09 -1.07786E-09 -1.04194E-09 -1.00681E-09 -9.72525E-10 -9.39117E-10 -9.06626E-10 -8.75059E-10 -8.44482E-10 -8.14913E-10
  -7.86369E-10 -7.58877E-10 -7.32410E-10 -7.06952E-10 -6.82482E-10 -6.58989E-10 -6.36444E-10 -6.14840E-10 -5.94154E-10 -5.74370E-10
  -5.55473E-10 -5.37442E-10 -5.20266E-10 -5.03925E-10 -4.88401E-10 -4.73680E-10 -4.59751E-10 -4.46596E-10 -4.34196E-10 -4.22538E-10
  -4.11611E-10 -4.01396E-10 -3.91885E-10 -3.83058E-10 -3.74907E-10 -3.67415E-10 -3.60573E-10 -3.54364E-10 -3.48781E-10 -3.43811E-10
  -3.39444E-10 -3.35660E-10 -3.32462E-10 -3.29833E-10 -3.27762E-10 -3.26237E-10 -3.25261E-10 -3.24814E-10 -3.24895E-10 -3.25488E-10
  -3.26594E-10 -3.28200E-10 -3.30300E-10 -3.32889E-10 -3.35963E-10 -3.39514E-10 -3.43538E-10 -3.48029E-10 -3.52987E-10 -3.58400E-10
  -3.64276E-10 -3.70601E-10 -3.77382E-10 -3.84612E-10 -3.92286E-10 -4.00413E-10 -4.08984E-10 -4.18003E-10 -4.27466E-10 -4.37378E-10
  -4.47740E-10 -4.58550E-10 -4.69813E-10 -4.81531E-10 -4.93707E-10 -5.06344E-10 -5.19448E-10 -5.33021E-10 -5.47068E-10 -5.61596E-10
  -5.76609E-10 -5.92114E-10 -6.08120E-10
 NY background values follow
     2.144E-09    2.236E-09    2.327E-09    2.416E-09    2.505E-09    2.593E-09    2.680E-09    2.766E-09    2.851E-09    2.934E-09
     3.017E-09    3.099E-09    3.179E-09    3.259E-09    3.338E-09    3.415E-09    3.492E-09    3.567E-09    3.642E-09    3.715E-09
     3.787E-09    3.859E-09    3.929E-09    3.998E-09    4.066E-09    4.133E-09    4.199E-09    4.264E-09    4.328E-09    4.391E-09
     4.453E-09    4.513E-09    4.573E-09    4.632E-09    4.690E-09    4.746E-09    4.802E-09    4.857E-09    4.910E-09    4.963E-09
     5.014E-09    5.065E-09    5.115E-09    5.163E-09    5.211E-09    5.258E-09    5.304E-09    5.348E-09    5.392E-09    5.435E-09
     5.477E-09    5.518E-09    5.558E-09    5.598E-09    5.636E-09    5.674E-09    5.710E-09    5.746E-09    5.781E-09    5.815E-09
     5.848E-09    5.881E-09    5.913E-09    5.943E-09    5.974E-09    6.003E-09    6.031E-09    6.059E-09    6.086E-09    6.113E-09
     6.138E-09    6.163E-09    6.188E-09    6.211E-09    6.234E-09    6.257E-09    6.278E-09    6.299E-09    6.319E-09    6.339E-09
     6.357E-09    6.375E-09    6.392E-09    6.409E-09    6.424E-09    6.439E-09    6.453E-09    6.466E-09    6.478E-09    6.489E-09
     6.499E-09    6.508E-09    6.516E-09    6.523E-09    6.529E-09    6.534E-09    6.538E-09    6.541E-09    6.543E-09    6.543E-09
     6.543E-09    6.541E-09    6.537E-09    6.533E-09    6.527E-09    6.520E-09    6.512E-09    6.502E-09    6.491E-09    6.478E-09
     6.464E-09    6.448E-09    6.431E-09    6.412E-09    6.392E-09    6.370E-09    6.346E-09    6.321E-09    6.293E-09    6.265E-09
     6.234E-09    6.202E-09    6.167E-09    6.131E-09    6.093E-09    6.053E-09    6.011E-09    5.968E-09    5.922E-09    5.874E-09
     5.824E-09    5.772E-09    5.717E-09    5.661E-09    5.603E-09    5.542E-09    5.479E-09    5.413E-09    5.346E-09    5.276E-09
     5.204E-09    5.129E-09    5.052E-09    4.972E-09    4.890E-09    4.806E-09    4.719E-09    4.630E-09    4.538E-09    4.445E-09
     4.349E-09    4.250E-09    4.150E-09    4.048E-09    3.945E-09    3.839E-09    3.732E-09    3.623E-09    3.513E-09    3.401E-09
     3.288E-09    3.174E-09    3.059E-09    2.943E-09    2.826E-09    2.708E-09    2.589E-09    2.470E-09    2.350E-09    2.229E-09
     2.109E-09    1.988E-09    1.866E-09    1.745E-09    1.624E-09    1.503E-09    1.382E-09    1.261E-09    1.141E-09    1.021E-09
     9.023E-10    7.839E-10    6.662E-10    5.494E-10    4.336E-10    3.189E-10    2.053E-10    9.293E-11   -1.809E-11   -1.277E-10
    -2.358E-10   -3.422E-10   -4.470E-10   -5.500E-10   -6.512E-10   -7.504E-10   -8.476E-10   -9.426E-10   -1.035E-09   -1.126E-09
    -1.214E-09   -1.300E-09   -1.383E-09   -1.464E-09   -1.542E-09   -1.617E-09   -1.690E-09   -1.759E-09   -1.826E-09   -1.889E-09
    -1.950E-09   -2.007E-09   -2.061E-09   -2.112E-09   -2.160E-09   -2.204E-09   -2.245E-09   -2.282E-09   -2.315E-09   -2.346E-09
    -2.372E-09   -2.396E-09   -2.416E-09   -2.433E-09   -2.447E-09   -2.457E-09   -2.465E-09   -2.470E-09   -2.472E-09   -2.472E-09
    -2.468E-09   -2.463E-09   -2.454E-09   -2.443E-09   -2.430E-09   -2.415E-09   -2.397E-09   -2.378E-09   -2.356E-09   -2.332E-09
    -2.307E-09   -2.279E-09   -2.250E-09   -2.219E-09   -2.187E-09   -2.153E-09   -2.118E-09   -2.082E-09   -2.044E-09   -2.005E-09
    -1.965E-09   -1.924E-09   -1.882E-09   -1.839E-09   -1.795E-09   -1.751E-09   -1.705E-09   -1.660E-09   -1.613E-09   -1.566E-09
    -1.519E-09   -1.472E-09   -1.424E-09   -1.376E-09   -1.328E-09   -1.280E-09   -1.232E-09   -1.183E-09   -1.135E-09   -1.087E-09
    -1.040E-09   -9.925E-10   -9.454E-10   -8.988E-10   -8.526E-10   -8.069E-10   -7.617E-10   -7.172E-10   -6.732E-10   -6.300E-10
    -5.874E-10   -5.457E-10   -5.048E-10   -4.647E-10   -4.255E-10   -3.872E-10   -3.499E-10   -3.136E-10   -2.783E-10   -2.441E-10
    -2.109E-10   -1.788E-10   -1.478E-10   -1.179E-10   -8.902E-11   -6.115E-11   -3.427E-11   -8.382E-12    1.655E-11    4.052E-11
     6.357E-11    8.571E-11    1.069E-10    1.273E-10    1.468E-10    1.655E-10    1.833E-10    2.003E-10    2.165E-10    2.319E-10
     2.465E-10    2.604E-10    2.736E-10    2.860E-10    2.977E-10    3.087E-10    3.190E-10    3.287E-10    3.376E-10    3.459E-10
     3.536E-10    3.607E-10    3.671E-10    3.729E-10    3.782E-10    3.828E-10    3.868E-10    3.903E-10    3.933E-10    3.956E-10
     3.974E-10    3.987E-10    3.995E-10    3.997E-10    3.994E-10    3.986E-10    3.973E-10    3.954E-10    3.931E-10    3.903E-10
     3.870E-10    3.832E-10    3.789E-10    3.741E-10    3.689E-10    3.631E-10    3.569E-10    3.502E-10    3.430E-10    3.353E-10
     3.272E-10    3.185E-10    3.094E-10    2.998E-10    2.897E-10    2.791E-10    2.680E-10    2.564E-10    2.443E-10    2.316E-10
     2.185E-10    2.048E-10    1.906E-10
 Glc      Conc. = 5.79E-10
   1.50643E-09  1.81412E-09  2.10399E-09  2.38643E-09  2.63823E-09  2.86839E-09  3.04196E-09  3.16693E-09  3.21747E-09  3.18499E-09
   3.14852E-09  3.12456E-09  3.10947E-09  3.14256E-09  3.30512E-09  3.59814E-09  3.96929E-09  4.36641E-09  4.71638E-09  5.00492E-09
   5.27847E-09  5.53143E-09  5.73154E-09  5.87120E-09  5.89997E-09  5.81209E-09  5.72214E-09  5.68303E-09  5.68993E-09  5.72086E-09
   5.74178E-09  5.75244E-09  5.77057E-09  5.77823E-09  5.76511E-09  5.75950E-09  5.76178E-09  5.75559E-09  5.74751E-09  5.74803E-09
   5.75539E-09  5.76727E-09  5.78263E-09  5.80052E-09  5.82039E-09  5.84176E-09  5.86431E-09  5.88771E-09  5.91176E-09  5.93628E-09
   5.96110E-09  5.98613E-09  6.01121E-09  6.03628E-09  6.06130E-09  6.08613E-09  6.11078E-09  6.13521E-09  6.15929E-09  6.18308E-09
   6.20653E-09  6.22958E-09  6.25226E-09  6.27452E-09  6.29637E-09  6.31777E-09  6.33874E-09  6.35923E-09  6.37927E-09  6.39887E-09
   6.41799E-09  6.43664E-09  6.45485E-09  6.47258E-09  6.48984E-09  6.50661E-09  6.52285E-09  6.53857E-09  6.55371E-09  6.56826E-09
   6.58220E-09  6.59551E-09  6.60815E-09  6.62011E-09  6.63137E-09  6.64189E-09  6.65165E-09  6.66063E-09  6.66881E-09  6.67615E-09
   6.68263E-09  6.68824E-09  6.69291E-09  6.69667E-09  6.69945E-09  6.70123E-09  6.70200E-09  6.70172E-09  6.70035E-09  6.69789E-09
   6.69429E-09  6.68952E-09  6.68356E-09  6.67639E-09  6.66796E-09  6.65824E-09  6.64721E-09  6.63486E-09  6.62113E-09  6.60597E-09
   6.58942E-09  6.57137E-09  6.55183E-09  6.53077E-09  6.50814E-09  6.48393E-09  6.45811E-09  6.43064E-09  6.40147E-09  6.37063E-09
   6.33800E-09  6.30362E-09  6.26743E-09  6.22940E-09  6.18952E-09  6.14773E-09  6.10398E-09  6.05832E-09  6.01066E-09  5.96097E-09
   5.90925E-09  5.85542E-09  5.79951E-09  5.74147E-09  5.68126E-09  5.61882E-09  5.55423E-09  5.48735E-09  5.41821E-09  5.34674E-09
   5.27297E-09  5.19684E-09  5.11835E-09  5.03742E-09  4.95409E-09  4.86831E-09  4.78009E-09  4.68949E-09  4.59661E-09  4.50152E-09
   4.40431E-09  4.30507E-09  4.20389E-09  4.10087E-09  3.99610E-09  3.88971E-09  3.78181E-09  3.67252E-09  3.56204E-09  3.45055E-09
   3.33833E-09  3.22582E-09  3.11371E-09  3.00341E-09  2.89818E-09  2.80805E-09  2.78117E-09  2.95940E-09  3.16495E-09  3.27800E-09
   3.27420E-09  3.18542E-09  3.05435E-09  2.90639E-09  2.73698E-09  2.50955E-09  2.17976E-09  1.75267E-09  1.34978E-09  1.14891E-09
   9.97355E-10  8.61246E-10  7.32248E-10  6.07477E-10  4.85637E-10  3.66111E-10  2.48600E-10  1.32977E-10  1.91043E-11 -9.30000E-11
  -2.03297E-10 -3.11807E-10 -4.18450E-10 -5.23186E-10 -6.25913E-10 -7.26604E-10 -8.25202E-10 -9.21577E-10 -1.01568E-09 -1.10748E-09
  -1.19686E-09 -1.28376E-09 -1.36809E-09 -1.44980E-09 -1.52883E-09 -1.60506E-09 -1.67846E-09 -1.74896E-09 -1.81650E-09 -1.88096E-09
  -1.94237E-09 -2.00058E-09 -2.05556E-09 -2.10726E-09 -2.15564E-09 -2.20060E-09 -2.24210E-09 -2.28011E-09 -2.31455E-09 -2.34550E-09
  -2.37301E-09 -2.39717E-09 -2.41804E-09 -2.43570E-09 -2.45022E-09 -2.46170E-09 -2.47020E-09 -2.47580E-09 -2.47858E-09 -2.47860E-09
  -2.47597E-09 -2.47075E-09 -2.46301E-09 -2.45285E-09 -2.44033E-09 -2.42554E-09 -2.40856E-09 -2.38946E-09 -2.36832E-09 -2.34522E-09
  -2.32024E-09 -2.29346E-09 -2.26496E-09 -2.23481E-09 -2.20308E-09 -2.16987E-09 -2.13523E-09 -2.09926E-09 -2.06203E-09 -2.02360E-09
  -1.98407E-09 -1.94349E-09 -1.90196E-09 -1.85951E-09 -1.81625E-09 -1.77225E-09 -1.72757E-09 -1.68227E-09 -1.63644E-09 -1.59013E-09
  -1.54342E-09 -1.49639E-09 -1.44908E-09 -1.40157E-09 -1.35392E-09 -1.30618E-09 -1.25845E-09 -1.21074E-09 -1.16314E-09 -1.11571E-09
  -1.06850E-09 -1.02156E-09 -9.74962E-10 -9.28735E-10 -8.82963E-10 -8.37667E-10 -7.92915E-10 -7.48755E-10 -7.05218E-10 -6.62364E-10
  -6.20242E-10 -5.78882E-10 -5.38336E-10 -4.98627E-10 -4.59809E-10 -4.21914E-10 -3.84983E-10 -3.49023E-10 -3.14099E-10 -2.80227E-10
  -2.47425E-10 -2.15720E-10 -1.85085E-10 -1.55502E-10 -1.26950E-10 -9.94200E-11 -7.28804E-11 -4.73239E-11 -2.27279E-11  9.24445E-13
   2.36479E-11  4.54640E-11  6.63838E-11  8.64284E-11  1.05615E-10  1.23958E-10  1.41469E-10  1.58167E-10  1.74070E-10  1.89192E-10
   2.03544E-10  2.17145E-10  2.30003E-10  2.42140E-10  2.53562E-10  2.64287E-10  2.74325E-10  2.83692E-10  2.92396E-10  3.00450E-10
   3.07864E-10  3.14658E-10  3.20831E-10  3.26398E-10  3.31372E-10  3.35762E-10  3.39570E-10  3.42811E-10  3.45491E-10  3.47624E-10
   3.49209E-10  3.50258E-10  3.50780E-10  3.50778E-10  3.50256E-10  3.49224E-10  3.47683E-10  3.45643E-10  3.43102E-10  3.40073E-10
   3.36548E-10  3.32540E-10  3.28044E-10  3.23065E-10  3.17610E-10  3.11669E-10  3.05252E-10  2.98354E-10  2.90980E-10  2.83124E-10
   2.74788E-10  2.65970E-10  2.56668E-10  2.46879E-10  2.36600E-10  2.25830E-10  2.14561E-10  2.02792E-10  1.90518E-10  1.77731E-10
   1.64429E-10  1.50604E-10  1.36249E-10
 Gln      Conc. = 1.91E-09
   5.79477E-10  9.23388E-10  1.38221E-09  1.92961E-09  2.50555E-09  3.05265E-09  3.52277E-09  3.87998E-09  4.12737E-09  4.34257E-09
   4.36759E-09  4.30796E-09  4.26155E-09  4.11032E-09  4.00488E-09  3.94159E-09  3.90570E-09  3.88810E-09  3.88330E-09  3.88772E-09
   3.89891E-09  3.91510E-09  3.93498E-09  3.95767E-09  3.98258E-09  4.00918E-09  4.03671E-09  4.06495E-09  4.09353E-09  4.12200E-09
   4.15010E-09  4.17758E-09  4.20421E-09  4.22980E-09  4.25415E-09  4.27708E-09  4.29836E-09  4.31777E-09  4.33506E-09  4.34999E-09
   4.36233E-09  4.37181E-09  4.37827E-09  4.38135E-09  4.38052E-09  4.37536E-09  4.36523E-09  4.34867E-09  4.32573E-09  4.29644E-09
   4.25842E-09  4.21198E-09  4.16159E-09  4.12843E-09  4.25297E-09  4.62444E-09  4.99054E-09  5.46895E-09  6.18709E-09  6.96892E-09
   7.66367E-09  8.29509E-09  8.81292E-09  9.14140E-09  9.22148E-09  9.06723E-09  8.83163E-09  8.52572E-09  7.97078E-09  7.46673E-09
   7.11041E-09  6.91052E-09  6.88495E-09  6.95840E-09  7.23407E-09  7.71793E-09  8.22977E-09  8.76139E-09  9.28355E-09  9.74729E-09
   1.01095E-08  1.02970E-08  1.02784E-08  1.02096E-08  1.00456E-08  9.68337E-09  9.36860E-09  9.10497E-09  8.79637E-09  8.54748E-09
   8.35731E-09  8.20660E-09  8.08385E-09  7.98058E-09  7.89093E-09  7.81239E-09  7.74275E-09  7.67995E-09  7.62287E-09  7.57043E-09
   7.52152E-09  7.47533E-09  7.43138E-09  7.38930E-09  7.34872E-09  7.30927E-09  7.27059E-09  7.23247E-09  7.19464E-09  7.15689E-09
   7.11913E-09  7.08111E-09  7.04274E-09  7.00387E-09  6.96439E-09  6.92420E-09  6.88321E-09  6.84130E-09  6.79837E-09  6.75441E-09
   6.70925E-09  6.66290E-09  6.61524E-09  6.56623E-09  6.51580E-09  6.46388E-09  6.41041E-09  6.35539E-09  6.29871E-09  6.24034E-09
   6.18024E-09  6.11833E-09  6.05462E-09  5.98902E-09  5.92152E-09  5.85202E-09  5.78059E-09  5.70709E-09  5.63153E-09  5.55385E-09
   5.47404E-09  5.39207E-09  5.30790E-09  5.22147E-09  5.13280E-09  5.04185E-09  4.94862E-09  4.85318E-09  4.75561E-09  4.65601E-09
   4.55447E-09  4.45109E-09  4.34596E-09  4.23924E-09  4.13103E-09  4.02152E-09  3.91089E-09  3.79939E-09  3.68738E-09  3.57531E-09
   3.46389E-09  3.35435E-09  3.24880E-09  3.15162E-09  3.07326E-09  3.04598E-09  3.22294E-09  4.07829E-09  5.03262E-09  5.68638E-09
   5.95524E-09  5.94237E-09  5.78851E-09  5.57844E-09  5.29849E-09  4.82918E-09  4.02341E-09  2.89346E-09  1.83307E-09  1.43911E-09
   1.21122E-09  1.03371E-09  8.78236E-10  7.34778E-10  5.98840E-10  4.68153E-10  3.41478E-10  2.18112E-10  9.75454E-11 -2.04540E-11
  -1.36024E-10 -2.49310E-10 -3.60328E-10 -4.69107E-10 -5.75601E-10 -6.79823E-10 -7.81751E-10 -8.81282E-10 -9.78393E-10 -1.07306E-09
  -1.16519E-09 -1.25473E-09 -1.34161E-09 -1.42578E-09 -1.50719E-09 -1.58573E-09 -1.66138E-09 -1.73406E-09 -1.80373E-09 -1.87026E-09
  -1.93368E-09 -1.99387E-09 -2.05079E-09 -2.10438E-09 -2.15461E-09 -2.20137E-09 -2.24465E-09 -2.28441E-09 -2.32057E-09 -2.35319E-09
  -2.38235E-09 -2.40813E-09 -2.43060E-09 -2.44983E-09 -2.46590E-09 -2.47890E-09 -2.48890E-09 -2.49597E-09 -2.50020E-09 -2.50165E-09
