 LCModel (Version 6.3-1R) Copyright: S.W. Provencher.          Ref.: Magn. Reson. Med. 30:672-679 (1993).                
 onepulse 27x15_ftSpec_smooth_lcm
 26 lines in following concentration table = NCONC+1
    Conc.  %SD /Cr+PCr  Metabolite                                         
    0.000 999%   0.000 Ala                                                 
    0.000 999%   0.000 Asp                                                 
    0.000 999%   0.000 Cr                                                  
 5.84E-11 999%   0.200 GABA                                                
    0.000 999%   0.000 Glc                                                 
 8.37E-10 112%   2.870 Gln                                                 
    0.000 999%   0.000 Glu                                                 
 7.60E-10 278%   2.608 Glyc                                                
    0.000 999%   0.000 GPC                                                 
 1.64E-09  39%   5.634 GSH                                                 
 1.65E-09 116%   5.669 Ins                                                 
    0.000 999%   0.000 Lac                                                 
 4.73E-10  82%   1.624 NAAG                                                
 8.25E-11 646%   0.283 NAA                                                 
    0.000 999%   0.000 PCh                                                 
 2.92E-10 158%   1.000 PCr                                                 
 3.11E-09  42%  10.662 PE                                                  
 3.24E-10 107%   1.110 Scyllo                                              
 1.51E-09 120%   5.188 Ser                                                 
 3.50E-10 348%   1.202 Tau                                                 
    0.000 999%   0.000 GPC+PCh                                             
 5.56E-10  61%   1.907 NAA+NAAG                                            
 2.41E-09  24%   8.277 Ins+Glyc                                            
 2.92E-10 158%   1.000 Cr+PCr                                              
 8.37E-10 112%   2.870 Glu+Gln                                             
   6 lines in following misc. output table
  FWHM = 0.123 ppm    S/N =   3                                            
  Data shift = 0.447 ppm                                                   
  Ph:  58 deg      -9.4 deg/ppm                                            
  alphaB,S = 2.2E+00,   1.6E+01                                            
    9 spline knots.   Ns = 5(1)                                            
  (12) 4 infls.   (11) 3 extrs.                                            
  363 points on ppm-axis = NY
      4.250000     4.238821     4.227641     4.216462     4.205282     4.194103     4.182923     4.171744     4.160564     4.149385
      4.138206     4.127026     4.115847     4.104667     4.093488     4.082308     4.071129     4.059949     4.048770     4.037591
      4.026411     4.015232     4.004052     3.992873     3.981693     3.970514     3.959334     3.948155     3.936975     3.925796
      3.914617     3.903437     3.892258     3.881078     3.869899     3.858719     3.847540     3.836360     3.825181     3.814002
      3.802822     3.791643     3.780463     3.769284     3.758104     3.746925     3.735745     3.724566     3.713387     3.702207
      3.691028     3.679848     3.668669     3.657489     3.646310     3.635130     3.623951     3.612772     3.601592     3.590413
      3.579233     3.568054     3.556874     3.545695     3.534515     3.523336     3.512156     3.500977     3.489798     3.478618
      3.467439     3.456259     3.445080     3.433900     3.422721     3.411541     3.400362     3.389183     3.378003     3.366824
      3.355644     3.344465     3.333285     3.322106     3.310926     3.299747     3.288568     3.277388     3.266209     3.255029
      3.243850     3.232670     3.221491     3.210311     3.199132     3.187953     3.176773     3.165594     3.154414     3.143235
      3.132055     3.120876     3.109696     3.098517     3.087337     3.076158     3.064979     3.053799     3.042620     3.031440
      3.020261     3.009081     2.997902     2.986722     2.975543     2.964364     2.953184     2.942005     2.930825     2.919646
      2.908466     2.897287     2.886107     2.874928     2.863749     2.852569     2.841390     2.830210     2.819031     2.807851
      2.796672     2.785492     2.774313     2.763134     2.751954     2.740775     2.729595     2.718416     2.707236     2.696057
      2.684877     2.673698     2.662519     2.651339     2.640160     2.628980     2.617801     2.606621     2.595442     2.584262
      2.573083     2.561903     2.550724     2.539545     2.528365     2.517186     2.506006     2.494827     2.483647     2.472468
      2.461288     2.450109     2.438930     2.427750     2.416571     2.405391     2.394212     2.383032     2.371853     2.360673
      2.349494     2.338315     2.327135     2.315956     2.304776     2.293597     2.282417     2.271238     2.260058     2.248879
      2.237700     2.226520     2.215341     2.204161     2.192982     2.181802     2.170623     2.159443     2.148264     2.137084
      2.125905     2.114726     2.103546     2.092367     2.081187     2.070008     2.058828     2.047649     2.036469     2.025290
      2.014111     2.002931     1.991752     1.980572     1.969393     1.958213     1.947034     1.935854     1.924675     1.913496
      1.902316     1.891137     1.879957     1.868778     1.857598     1.846419     1.835239     1.824060     1.812881     1.801701
      1.790522     1.779342     1.768163     1.756983     1.745804     1.734624     1.723445     1.712265     1.701086     1.689907
      1.678727     1.667548     1.656368     1.645189     1.634009     1.622830     1.611650     1.600471     1.589292     1.578112
      1.566933     1.555753     1.544574     1.533394     1.522215     1.511035     1.499856     1.488677     1.477497     1.466318
      1.455138     1.443959     1.432779     1.421600     1.410420     1.399241     1.388062     1.376882     1.365703     1.354523
      1.343344     1.332164     1.320985     1.309805     1.298626     1.287446     1.276267     1.265088     1.253908     1.242729
      1.231549     1.220370     1.209190     1.198011     1.186831     1.175652     1.164473     1.153293     1.142114     1.130934
      1.119755     1.108575     1.097396     1.086216     1.075037     1.063858     1.052678     1.041499     1.030319     1.019140
      1.007960     0.996781     0.985601     0.974422     0.963243     0.952063     0.940884     0.929704     0.918525     0.907345
      0.896166     0.884986     0.873807     0.862628     0.851448     0.840269     0.829089     0.817910     0.806730     0.795551
      0.784371     0.773192     0.762012     0.750833     0.739654     0.728474     0.717295     0.706115     0.694936     0.683756
      0.672577     0.661397     0.650218     0.639039     0.627859     0.616680     0.605500     0.594321     0.583141     0.571962
      0.560782     0.549603     0.538424     0.527244     0.516065     0.504885     0.493706     0.482526     0.471347     0.460167
      0.448988     0.437809     0.426629     0.415450     0.404270     0.393091     0.381911     0.370732     0.359552     0.348373
      0.337193     0.326014     0.314835     0.303655     0.292476     0.281296     0.270117     0.258937     0.247758     0.236578
      0.225399     0.214220     0.203040
 NY phased data points follow
   8.70179E-09  8.06215E-09  8.93473E-09  8.85028E-09  9.82671E-09  9.10744E-09  1.05068E-08  9.17719E-09  9.27708E-09  8.64771E-09
   9.29816E-09  8.53382E-09  8.46401E-09  7.70385E-09  8.45347E-09  8.31925E-09  9.99044E-09  9.42926E-09  9.29942E-09  8.12383E-09
   8.60552E-09  8.77227E-09  1.01364E-08  1.07540E-08  1.16592E-08  1.03505E-08  1.01046E-08  8.30164E-09  7.64833E-09  6.41973E-09
   7.42186E-09  6.66285E-09  6.75825E-09  6.04841E-09  6.40079E-09  5.74884E-09  5.73700E-09  5.70111E-09  5.67799E-09  5.00267E-09
   5.73466E-09  4.86480E-09  6.03744E-09  5.36606E-09  5.90881E-09  5.48521E-09  5.31905E-09  4.68294E-09  5.96371E-09  5.38325E-09
   6.63029E-09  5.87698E-09  6.93213E-09  8.61530E-09  1.08938E-08  1.27824E-08  1.30911E-08  1.12958E-08  1.03917E-08  8.64990E-09
   8.41389E-09  7.20837E-09  7.68132E-09  6.10785E-09  6.67286E-09  5.58816E-09  6.54713E-09  5.70950E-09  6.09710E-09  7.15838E-09
   1.07109E-08  1.34094E-08  1.57791E-08  1.51811E-08  1.45485E-08  1.35015E-08  1.35201E-08  1.23740E-08  1.18864E-08  1.11326E-08
   1.12546E-08  1.06965E-08  1.12527E-08  9.95732E-09  9.75848E-09  9.29537E-09  8.69955E-09  8.52150E-09  8.15148E-09  8.38536E-09
   8.12239E-09  7.65363E-09  7.56713E-09  7.54602E-09  7.30185E-09  8.18904E-09  6.90318E-09  7.45735E-09  7.82181E-09  6.57363E-09
   6.09623E-09  5.71682E-09  5.35762E-09  4.96649E-09  5.86590E-09  5.51797E-09  5.84519E-09  5.63905E-09  5.94310E-09  5.86718E-09
   6.46730E-09  6.51377E-09  6.89933E-09  6.54411E-09  6.49804E-09  5.99205E-09  5.50731E-09  4.38015E-09  4.84412E-09  4.32275E-09
   5.46876E-09  5.15818E-09  5.27613E-09  4.75580E-09  4.90704E-09  4.80408E-09  4.66854E-09  4.79714E-09  4.96777E-09  4.33844E-09
   4.02590E-09  5.26995E-09  5.71492E-09  6.59518E-09  6.16157E-09  6.48959E-09  6.52745E-09  6.77883E-09  7.54529E-09  8.25924E-09
   7.90361E-09  8.15715E-09  8.41760E-09  8.80102E-09  7.68910E-09  8.22095E-09  7.35455E-09  7.85683E-09  7.55539E-09  8.47313E-09
   7.47170E-09  7.64726E-09  6.99464E-09  8.03792E-09  7.13405E-09  7.25022E-09  6.62385E-09  6.33454E-09  6.33365E-09  6.20565E-09
   5.21097E-09  6.72772E-09  1.05541E-08  1.55046E-08  1.90540E-08  1.99063E-08  1.92891E-08  1.95700E-08  1.93142E-08  1.94776E-08
   1.91115E-08  1.97255E-08  1.90335E-08  1.94941E-08  1.89616E-08  1.93478E-08  1.88299E-08  1.87185E-08  1.77876E-08  1.79404E-08
   1.73794E-08  1.66055E-08  1.60628E-08  1.52764E-08  1.35440E-08  1.23954E-08  9.91861E-09  9.15225E-09  7.16501E-09  4.46711E-09
   1.85813E-09  1.73439E-10 -2.57841E-09 -4.52026E-09 -6.19613E-09 -7.63095E-09 -9.41085E-09 -9.92041E-09 -1.09219E-08 -1.04186E-08
  -1.03409E-08 -9.57472E-09 -9.29205E-09 -8.24817E-09 -7.34945E-09 -5.94659E-09 -5.00073E-09 -3.63464E-09 -3.80496E-09 -2.09356E-09
  -2.32063E-09 -1.61272E-09 -2.11541E-09 -2.28985E-09 -2.00627E-09 -1.58814E-09 -2.05034E-09 -1.34944E-09 -1.82120E-09 -1.11535E-09
  -1.16401E-09 -9.77723E-10 -1.06795E-09 -7.69705E-10 -1.11213E-09 -7.27204E-10 -1.24377E-09 -1.40001E-09 -1.74326E-09 -8.34375E-10
  -1.10281E-09 -3.38514E-10 -5.60019E-10 -7.33484E-10 -8.37253E-10 -8.89839E-10 -8.92922E-10 -3.87912E-10 -1.50507E-09 -8.75688E-10
  -1.77035E-09 -8.52176E-10 -1.38766E-09 -1.22879E-09 -1.39088E-09 -3.91935E-10 -3.30211E-10 -5.72465E-10 -1.85850E-10  1.21893E-10
  -1.79924E-10 -1.88179E-10 -3.56835E-10 -1.48707E-10 -5.38858E-10 -6.55626E-10 -1.13531E-09 -1.20783E-09 -1.77963E-09 -1.03294E-09
  -1.98396E-09 -1.60859E-09 -1.90279E-09 -1.86153E-09 -1.47816E-09 -1.68330E-09 -1.68308E-09 -9.03316E-10 -1.34959E-09 -5.97566E-10
  -8.05260E-10  7.04873E-11  2.58442E-10 -1.23189E-10 -1.46925E-10 -9.02810E-11 -8.45408E-10 -4.26563E-10 -3.08581E-10  4.64802E-11
  -7.85775E-10 -2.62644E-10 -4.22128E-10 -4.30817E-10 -3.42320E-10 -2.52993E-10 -4.59175E-10 -3.68999E-10 -5.23738E-10 -3.81036E-10
  -4.51158E-10 -7.25228E-10 -2.94106E-10 -8.38982E-10 -2.48403E-10 -5.28960E-10 -1.07802E-09 -9.26621E-10 -8.29446E-10 -7.66208E-10
  -7.15972E-10 -8.36235E-10 -8.51990E-10 -8.47471E-10 -1.03335E-09 -1.29119E-09 -9.98403E-10 -8.06962E-10 -9.04836E-10 -1.05587E-09
  -9.80105E-10 -9.46054E-10 -1.00637E-09 -1.14771E-09 -1.36244E-09 -9.70758E-10 -1.36465E-09 -1.14392E-09 -1.17307E-09 -1.34285E-09
  -1.16645E-09 -1.02246E-09 -1.42858E-09 -9.60110E-10 -1.27261E-09 -1.33521E-09 -1.16578E-09 -1.41321E-09 -1.10215E-09 -1.36839E-09
  -9.16311E-10 -1.42567E-09 -9.82874E-10 -1.25641E-09 -8.44053E-10 -1.83906E-09 -1.75904E-09 -1.48979E-09 -1.15452E-09 -1.68801E-09
  -1.50516E-09 -1.42547E-09 -1.08515E-09 -9.98806E-10 -6.26728E-10 -1.26859E-09 -1.84205E-09 -1.64292E-09 -9.13813E-10 -1.61645E-09
  -1.26534E-09 -8.98688E-10 -1.32243E-09 -8.71909E-10 -1.78894E-09 -1.85598E-09 -1.43090E-09 -1.90942E-09 -1.21751E-09 -1.28914E-09
  -8.66655E-10 -1.26162E-09 -1.65258E-09
 NY points of the fit to the data follow
   9.85048E-09  8.31718E-09  8.09794E-09  8.65143E-09  9.58669E-09  9.58064E-09  9.74005E-09  1.06304E-08  1.04046E-08  7.74353E-09
   7.39295E-09  7.51582E-09  8.01766E-09  8.53185E-09  8.52909E-09  8.56244E-09  9.50863E-09  1.01893E-08  8.47687E-09  7.11418E-09
   8.62919E-09  1.01726E-08  1.07658E-08  1.09357E-08  1.10395E-08  1.09581E-08  1.00405E-08  8.57906E-09  7.16074E-09  7.09466E-09
   6.97489E-09  6.60226E-09  6.04885E-09  5.94893E-09  5.65956E-09  5.27112E-09  5.54372E-09  5.90359E-09  5.99137E-09  6.09149E-09
   6.13278E-09  5.85906E-09  5.37234E-09  5.16056E-09  4.82059E-09  4.88363E-09  5.09801E-09  5.08569E-09  5.80916E-09  6.63808E-09
   7.49762E-09  7.97470E-09  8.39498E-09  9.23643E-09  9.67790E-09  9.54679E-09  9.80497E-09  1.00067E-08  9.81727E-09  9.39052E-09
   9.11553E-09  8.81757E-09  8.77058E-09  8.48967E-09  7.99087E-09  8.19292E-09  8.61200E-09  8.51452E-09  8.78826E-09  9.69038E-09
   1.03499E-08  1.07284E-08  1.14405E-08  1.18514E-08  1.23180E-08  1.32334E-08  1.35768E-08  1.32744E-08  1.26958E-08  1.19622E-08
   1.10920E-08  1.05121E-08  9.91102E-09  9.24765E-09  8.85636E-09  8.01286E-09  6.74310E-09  6.08174E-09  5.94308E-09  6.02769E-09
   6.11837E-09  6.24082E-09  6.34163E-09  6.42364E-09  6.48490E-09  6.55662E-09  6.61508E-09  6.66509E-09  6.71342E-09  6.74051E-09
   6.78889E-09  6.84040E-09  6.87281E-09  6.90149E-09  6.93064E-09  6.95797E-09  6.98210E-09  7.00296E-09  7.02007E-09  7.03381E-09
   7.04434E-09  7.05169E-09  7.05604E-09  7.05740E-09  7.05595E-09  7.05174E-09  7.04489E-09  7.03546E-09  7.02353E-09  7.00927E-09
   6.99255E-09  6.97362E-09  6.95248E-09  6.92923E-09  6.90391E-09  6.87660E-09  6.84733E-09  6.81619E-09  6.78324E-09  6.74852E-09
   6.71208E-09  6.67400E-09  6.63430E-09  6.59307E-09  6.55032E-09  6.50613E-09  6.46054E-09  6.41362E-09  6.36542E-09  6.31598E-09
   6.26539E-09  6.21369E-09  6.16095E-09  6.10729E-09  6.05272E-09  5.99736E-09  5.94132E-09  5.88474E-09  5.82772E-09  5.77049E-09
   5.71324E-09  5.65620E-09  5.59975E-09  5.54437E-09  5.49056E-09  5.43918E-09  5.39140E-09  5.34885E-09  5.31401E-09  5.29084E-09
   5.28576E-09  5.31030E-09  5.38659E-09  5.56293E-09  5.96513E-09  7.02940E-09  1.10681E-08  1.93499E-08  2.21806E-08  2.15102E-08
   2.05104E-08  2.00788E-08  1.98919E-08  2.00213E-08  2.06666E-08  2.17643E-08  2.13648E-08  1.63446E-08  8.20740E-09  5.90818E-09
   5.00294E-09  4.50583E-09  4.17719E-09  3.93335E-09  3.73787E-09  3.57247E-09  3.42699E-09  3.29534E-09  3.17368E-09  3.05947E-09
   2.95094E-09  2.84688E-09  2.74639E-09  2.64882E-09  2.55366E-09  2.46052E-09  2.36914E-09  2.27929E-09  2.19076E-09  2.10345E-09
   2.01722E-09  1.93198E-09  1.84766E-09  1.76422E-09  1.68161E-09  1.59977E-09  1.51870E-09  1.43838E-09  1.35878E-09  1.27988E-09
   1.20169E-09  1.12420E-09  1.04742E-09  9.71333E-10  8.95934E-10  8.21241E-10  7.47269E-10  6.74008E-10  6.01455E-10  5.29641E-10
   4.58572E-10  3.88250E-10  3.18683E-10  2.49875E-10  1.81832E-10  1.14603E-10  4.81528E-11 -1.74925E-11 -8.23026E-11 -1.46286E-10
  -2.09430E-10 -2.71718E-10 -3.33138E-10 -3.93690E-10 -4.53351E-10 -5.12110E-10 -5.69966E-10 -6.26903E-10 -6.82912E-10 -7.37970E-10
  -7.92087E-10 -8.45239E-10 -8.97418E-10 -9.48620E-10 -9.98844E-10 -1.04809E-09 -1.09635E-09 -1.14362E-09 -1.18991E-09 -1.23521E-09
  -1.27952E-09 -1.32283E-09 -1.36516E-09 -1.40648E-09 -1.44681E-09 -1.48613E-09 -1.52446E-09 -1.56178E-09 -1.59810E-09 -1.63341E-09
  -1.66771E-09 -1.70101E-09 -1.73329E-09 -1.76455E-09 -1.79481E-09 -1.82404E-09 -1.85226E-09 -1.87946E-09 -1.90563E-09 -1.93079E-09
  -1.95492E-09 -1.97802E-09 -2.00010E-09 -2.02115E-09 -2.04116E-09 -2.06015E-09 -2.07810E-09 -2.09502E-09 -2.11090E-09 -2.12574E-09
  -2.13954E-09 -2.15230E-09 -2.16402E-09 -2.17469E-09 -2.18432E-09 -2.19289E-09 -2.20042E-09 -2.20690E-09 -2.21232E-09 -2.21669E-09
  -2.22000E-09 -2.22225E-09 -2.22344E-09 -2.22357E-09 -2.22263E-09 -2.22063E-09 -2.21756E-09 -2.21342E-09 -2.20820E-09 -2.20191E-09
  -2.19454E-09 -2.18609E-09 -2.17656E-09 -2.16595E-09 -2.15424E-09 -2.14143E-09 -2.12752E-09 -2.11251E-09 -2.09637E-09 -2.07912E-09
  -2.06074E-09 -2.04123E-09 -2.02059E-09 -1.99881E-09 -1.97588E-09 -1.95180E-09 -1.92657E-09 -1.90019E-09 -1.87265E-09 -1.84394E-09
  -1.81407E-09 -1.78302E-09 -1.75080E-09 -1.71741E-09 -1.68284E-09 -1.64708E-09 -1.61014E-09 -1.57202E-09 -1.53271E-09 -1.49220E-09
  -1.45051E-09 -1.40763E-09 -1.36354E-09 -1.31827E-09 -1.27180E-09 -1.22414E-09 -1.17527E-09 -1.12521E-09 -1.07395E-09 -1.02150E-09
  -9.67847E-10 -9.12997E-10 -8.56954E-10 -7.99714E-10 -7.41281E-10 -6.81656E-10 -6.20838E-10 -5.58832E-10 -4.95638E-10 -4.31259E-10
  -3.65695E-10 -2.98950E-10 -2.31026E-10 -1.61926E-10 -9.16528E-11 -2.02096E-11  5.23994E-11  1.26172E-10  2.01105E-10  2.77192E-10
   3.54432E-10  4.32819E-10  5.12349E-10
 NY background values follow
     4.331E-09    4.453E-09    4.574E-09    4.693E-09    4.810E-09    4.925E-09    5.039E-09    5.151E-09    5.261E-09    5.369E-09
     5.476E-09    5.581E-09    5.684E-09    5.785E-09    5.884E-09    5.982E-09    6.078E-09    6.172E-09    6.265E-09    6.355E-09
     6.444E-09    6.531E-09    6.616E-09    6.700E-09    6.782E-09    6.861E-09    6.940E-09    7.016E-09    7.090E-09    7.163E-09
     7.234E-09    7.303E-09    7.371E-09    7.436E-09    7.500E-09    7.562E-09    7.622E-09    7.681E-09    7.738E-09    7.793E-09
     7.846E-09    7.897E-09    7.947E-09    7.995E-09    8.041E-09    8.085E-09    8.128E-09    8.169E-09    8.208E-09    8.246E-09
     8.281E-09    8.315E-09    8.348E-09    8.378E-09    8.407E-09    8.434E-09    8.460E-09    8.484E-09    8.506E-09    8.526E-09
     8.545E-09    8.562E-09    8.578E-09    8.591E-09    8.604E-09    8.614E-09    8.623E-09    8.630E-09    8.636E-09    8.640E-09
     8.643E-09    8.644E-09    8.643E-09    8.641E-09    8.637E-09    8.631E-09    8.624E-09    8.616E-09    8.606E-09    8.594E-09
     8.581E-09    8.567E-09    8.551E-09    8.533E-09    8.514E-09    8.493E-09    8.471E-09    8.448E-09    8.423E-09    8.397E-09
     8.369E-09    8.340E-09    8.309E-09    8.278E-09    8.244E-09    8.210E-09    8.174E-09    8.136E-09    8.097E-09    8.057E-09
     8.016E-09    7.973E-09    7.929E-09    7.884E-09    7.838E-09    7.790E-09    7.741E-09    7.691E-09    7.639E-09    7.587E-09
     7.533E-09    7.478E-09    7.422E-09    7.365E-09    7.306E-09    7.246E-09    7.186E-09    7.124E-09    7.061E-09    6.997E-09
     6.932E-09    6.866E-09    6.799E-09    6.731E-09    6.662E-09    6.592E-09    6.521E-09    6.449E-09    6.376E-09    6.302E-09
     6.228E-09    6.152E-09    6.076E-09    5.998E-09    5.920E-09    5.842E-09    5.762E-09    5.682E-09    5.601E-09    5.519E-09
     5.436E-09    5.353E-09    5.270E-09    5.185E-09    5.100E-09    5.014E-09    4.928E-09    4.842E-09    4.754E-09    4.666E-09
     4.578E-09    4.489E-09    4.400E-09    4.311E-09    4.221E-09    4.130E-09    4.039E-09    3.948E-09    3.857E-09    3.765E-09
     3.673E-09    3.581E-09    3.488E-09    3.395E-09    3.302E-09    3.209E-09    3.116E-09    3.022E-09    2.929E-09    2.835E-09
     2.741E-09    2.647E-09    2.554E-09    2.460E-09    2.366E-09    2.272E-09    2.178E-09    2.084E-09    1.991E-09    1.897E-09
     1.804E-09    1.710E-09    1.617E-09    1.524E-09    1.432E-09    1.339E-09    1.247E-09    1.155E-09    1.063E-09    9.717E-10
     8.807E-10    7.899E-10    6.995E-10    6.096E-10    5.200E-10    4.308E-10    3.420E-10    2.538E-10    1.660E-10    7.866E-11
    -8.130E-12   -9.440E-11   -1.801E-10   -2.653E-10   -3.498E-10   -4.338E-10   -5.172E-10   -5.999E-10   -6.819E-10   -7.633E-10
    -8.440E-10   -9.240E-10   -1.003E-09   -1.082E-09   -1.160E-09   -1.237E-09   -1.313E-09   -1.388E-09   -1.463E-09   -1.537E-09
    -1.610E-09   -1.682E-09   -1.753E-09   -1.823E-09   -1.893E-09   -1.961E-09   -2.029E-09   -2.095E-09   -2.161E-09   -2.226E-09
    -2.289E-09   -2.352E-09   -2.414E-09   -2.475E-09   -2.534E-09   -2.593E-09   -2.650E-09   -2.707E-09   -2.762E-09   -2.816E-09
    -2.870E-09   -2.922E-09   -2.973E-09   -3.023E-09   -3.071E-09   -3.119E-09   -3.165E-09   -3.211E-09   -3.255E-09   -3.298E-09
    -3.340E-09   -3.381E-09   -3.420E-09   -3.459E-09   -3.496E-09   -3.532E-09   -3.567E-09   -3.601E-09   -3.634E-09   -3.666E-09
    -3.696E-09   -3.725E-09   -3.754E-09   -3.781E-09   -3.806E-09   -3.831E-09   -3.855E-09   -3.877E-09   -3.898E-09   -3.919E-09
    -3.937E-09   -3.955E-09   -3.972E-09   -3.987E-09   -4.002E-09   -4.015E-09   -4.027E-09   -4.038E-09   -4.047E-09   -4.056E-09
    -4.063E-09   -4.069E-09   -4.074E-09   -4.078E-09   -4.081E-09   -4.083E-09   -4.083E-09   -4.082E-09   -4.080E-09   -4.077E-09
    -4.073E-09   -4.067E-09   -4.061E-09   -4.053E-09   -4.044E-09   -4.034E-09   -4.022E-09   -4.010E-09   -3.996E-09   -3.981E-09
    -3.965E-09   -3.948E-09   -3.930E-09   -3.910E-09   -3.890E-09   -3.868E-09   -3.844E-09   -3.820E-09   -3.795E-09   -3.768E-09
    -3.740E-09   -3.711E-09   -3.680E-09   -3.649E-09   -3.616E-09   -3.582E-09   -3.546E-09   -3.510E-09   -3.472E-09   -3.433E-09
    -3.393E-09   -3.351E-09   -3.308E-09   -3.264E-09   -3.219E-09   -3.172E-09   -3.124E-09   -3.075E-09   -3.025E-09   -2.974E-09
    -2.921E-09   -2.867E-09   -2.811E-09   -2.755E-09   -2.697E-09   -2.638E-09   -2.577E-09   -2.516E-09   -2.453E-09   -2.389E-09
    -2.323E-09   -2.257E-09   -2.189E-09   -2.119E-09   -2.049E-09   -1.977E-09   -1.905E-09   -1.831E-09   -1.755E-09   -1.679E-09
    -1.601E-09   -1.522E-09   -1.442E-09   -1.360E-09   -1.277E-09   -1.194E-09   -1.108E-09   -1.022E-09   -9.347E-10   -8.460E-10
    -7.562E-10   -6.652E-10   -5.730E-10
 GABA     Conc. = 5.84E-11
   4.36150E-09  4.48445E-09  4.60570E-09  4.72525E-09  4.84308E-09  4.95921E-09  5.07363E-09  5.18634E-09  5.29734E-09  5.40664E-09
   5.51424E-09  5.62013E-09  5.72435E-09  5.82687E-09  5.92772E-09  6.02690E-09  6.12444E-09  6.22037E-09  6.31470E-09  6.40747E-09
   6.49872E-09  6.58852E-09  6.67696E-09  6.76416E-09  6.85029E-09  6.93564E-09  7.02063E-09  7.10608E-09  7.19327E-09  7.27757E-09
   7.34313E-09  7.42066E-09  7.50556E-09  7.55831E-09  7.60799E-09  7.67155E-09  7.72453E-09  7.76803E-09  7.80613E-09  7.84140E-09
   7.88177E-09  7.93006E-09  7.95591E-09  7.98414E-09  8.03937E-09  8.08198E-09  8.11473E-09  8.15914E-09  8.20337E-09  8.24579E-09
   8.28621E-09  8.32465E-09  8.36130E-09  8.39628E-09  8.42966E-09  8.46159E-09  8.49230E-09  8.52208E-09  8.55130E-09  8.58078E-09
   8.61178E-09  8.64629E-09  8.66637E-09  8.67830E-09  8.70907E-09  8.72214E-09  8.71503E-09  8.71691E-09  8.72035E-09  8.71692E-09
   8.70678E-09  8.69018E-09  8.67198E-09  8.66482E-09  8.65164E-09  8.62205E-09  8.61489E-09  8.61428E-09  8.60231E-09  8.59748E-09
   8.59183E-09  8.57854E-09  8.57622E-09  8.57384E-09  8.55310E-09  8.53735E-09  8.52624E-09  8.50391E-09  8.47867E-09  8.45060E-09
   8.41681E-09  8.38590E-09  8.35373E-09  8.30667E-09  8.26388E-09  8.23115E-09  8.18457E-09  8.13637E-09  8.09671E-09  8.05366E-09
   8.00880E-09  7.96483E-09  7.92049E-09  7.87529E-09  7.82904E-09  7.78166E-09  7.73306E-09  7.68331E-09  7.63239E-09  7.58024E-09
   7.52692E-09  7.47237E-09  7.41668E-09  7.35978E-09  7.30176E-09  7.24261E-09  7.18233E-09  7.12095E-09  7.05846E-09  6.99496E-09
   6.93027E-09  6.86457E-09  6.79782E-09  6.73007E-09  6.66130E-09  6.59156E-09  6.52083E-09  6.44916E-09  6.37656E-09  6.30305E-09
   6.22865E-09  6.15338E-09  6.07725E-09  6.00029E-09  5.92251E-09  5.84395E-09  5.76459E-09  5.68448E-09  5.60365E-09  5.52208E-09
   5.43984E-09  5.35691E-09  5.27332E-09  5.18913E-09  5.10429E-09  5.01884E-09  4.93283E-09  4.84628E-09  4.75917E-09  4.67157E-09
   4.58350E-09  4.49492E-09  4.40590E-09  4.31650E-09  4.22666E-09  4.13643E-09  4.04588E-09  3.95500E-09  3.86381E-09  3.77241E-09
   3.68077E-09  3.58903E-09  3.49728E-09  3.40579E-09  3.31510E-09  3.22709E-09  3.15121E-09  3.10639E-09  3.03138E-09  2.93501E-09
   2.83594E-09  2.74015E-09  2.64565E-09  2.55271E-09  2.46239E-09  2.37551E-09  2.28272E-09  2.16619E-09  2.02517E-09  1.91865E-09
   1.82064E-09  1.72510E-09  1.63068E-09  1.53693E-09  1.44364E-09  1.35074E-09  1.25820E-09  1.16599E-09  1.07412E-09  9.82599E-10
   8.91417E-10  8.00610E-10  7.10175E-10  6.20146E-10  5.30526E-10  4.41322E-10  3.52573E-10  2.64289E-10  1.76478E-10  8.91734E-11
   2.38625E-12 -8.38799E-11 -1.69594E-10 -2.54733E-10 -3.39293E-10 -4.23252E-10 -5.06596E-10 -5.89283E-10 -6.71331E-10 -7.52712E-10
  -8.33406E-10 -9.13387E-10 -9.92651E-10 -1.07117E-09 -1.14895E-09 -1.22597E-09 -1.30218E-09 -1.37761E-09 -1.45222E-09 -1.52600E-09
  -1.59893E-09 -1.67100E-09 -1.74220E-09 -1.81251E-09 -1.88193E-09 -1.95041E-09 -2.01797E-09 -2.08460E-09 -2.15025E-09 -2.21494E-09
  -2.27865E-09 -2.34135E-09 -2.40305E-09 -2.46373E-09 -2.52337E-09 -2.58197E-09 -2.63951E-09 -2.69599E-09 -2.75139E-09 -2.80569E-09
  -2.85890E-09 -2.91100E-09 -2.96197E-09 -3.01182E-09 -3.06055E-09 -3.10814E-09 -3.15460E-09 -3.19993E-09 -3.24413E-09 -3.28719E-09
  -3.32912E-09 -3.36990E-09 -3.40955E-09 -3.44805E-09 -3.48542E-09 -3.52164E-09 -3.55672E-09 -3.59065E-09 -3.62343E-09 -3.65507E-09
  -3.68556E-09 -3.71490E-09 -3.74310E-09 -3.77014E-09 -3.79603E-09 -3.82077E-09 -3.84435E-09 -3.86679E-09 -3.88807E-09 -3.90819E-09
  -3.92716E-09 -3.94498E-09 -3.96164E-09 -3.97714E-09 -3.99148E-09 -4.00467E-09 -4.01670E-09 -4.02757E-09 -4.03728E-09 -4.04583E-09
  -4.05322E-09 -4.05945E-09 -4.06451E-09 -4.06842E-09 -4.07115E-09 -4.07273E-09 -4.07314E-09 -4.07239E-09 -4.07047E-09 -4.06738E-09
  -4.06313E-09 -4.05770E-09 -4.05111E-09 -4.04335E-09 -4.03442E-09 -4.02432E-09 -4.01304E-09 -4.00059E-09 -3.98696E-09 -3.97216E-09
  -3.95618E-09 -3.93902E-09 -3.92068E-09 -3.90116E-09 -3.88046E-09 -3.85856E-09 -3.83546E-09 -3.81116E-09 -3.78566E-09 -3.75895E-09
  -3.73102E-09 -3.70188E-09 -3.67151E-09 -3.63992E-09 -3.60710E-09 -3.57305E-09 -3.53776E-09 -3.50124E-09 -3.46348E-09 -3.42448E-09
  -3.38423E-09 -3.34273E-09 -3.29998E-09 -3.25599E-09 -3.21074E-09 -3.16424E-09 -3.11649E-09 -3.06748E-09 -3.01721E-09 -2.96569E-09
  -2.91290E-09 -2.85887E-09 -2.80357E-09 -2.74702E-09 -2.68920E-09 -2.63014E-09 -2.56981E-09 -2.50823E-09 -2.44540E-09 -2.38131E-09
  -2.31597E-09 -2.24938E-09 -2.18154E-09 -2.11246E-09 -2.04213E-09 -1.97056E-09 -1.89775E-09 -1.82370E-09 -1.74842E-09 -1.67191E-09
  -1.59417E-09 -1.51521E-09 -1.43503E-09 -1.35364E-09 -1.27103E-09 -1.18721E-09 -1.10219E-09 -1.01597E-09 -9.28562E-10 -8.39962E-10
  -7.50178E-10 -6.59216E-10 -5.67082E-10
 Gln      Conc. = 8.37E-10
   5.20784E-09  5.30034E-09  5.32676E-09  5.31618E-09  5.31106E-09  5.30388E-09  5.27740E-09  5.26335E-09  5.31264E-09  5.25237E-09
   5.25427E-09  5.37703E-09  5.40969E-09  5.55810E-09  5.71761E-09  5.86627E-09  6.00480E-09  6.13544E-09  6.25972E-09  6.37866E-09
   6.49305E-09  6.60349E-09  6.71051E-09  6.81459E-09  6.91599E-09  7.01458E-09  7.11082E-09  7.20492E-09  7.29681E-09  7.38668E-09
   7.47473E-09  7.56105E-09  7.64576E-09  7.72903E-09  7.81092E-09  7.89157E-09  7.97114E-09  8.04978E-09  8.12771E-09  8.20515E-09
   8.28226E-09  8.35945E-09  8.43692E-09  8.51503E-09  8.59448E-09  8.67589E-09  8.75987E-09  8.84890E-09  8.94430E-09  9.04653E-09
   9.16211E-09  9.29801E-09  9.46526E-09  9.68629E-09  9.91634E-09  9.93725E-09  1.00255E-08  1.02372E-08  1.02067E-08  1.00276E-08
   9.97766E-09  9.89794E-09  9.75532E-09  9.55903E-09  9.31937E-09  9.14078E-09  9.11869E-09  8.94783E-09  8.75814E-09  8.81939E-09
   9.01908E-09  9.14781E-09  9.22153E-09  9.36596E-09  9.59174E-09  9.61371E-09  9.61125E-09  9.61691E-09  9.55931E-09  9.47235E-09
   9.36810E-09  9.15241E-09  8.96997E-09  8.87626E-09  8.65743E-09  8.41980E-09  8.36406E-09  8.24999E-09  8.14712E-09  8.10799E-09
   8.08570E-09  8.06889E-09  8.05327E-09  8.03577E-09  8.01654E-09  7.99584E-09  7.97323E-09  7.94864E-09  7.92229E-09  7.89404E-09
   7.86370E-09  7.83145E-09  7.79738E-09  7.76159E-09  7.72420E-09  7.68511E-09  7.64435E-09  7.60202E-09  7.55816E-09  7.51274E-09
   7.46588E-09  7.41751E-09  7.36776E-09  7.31658E-09  7.26406E-09  7.21019E-09  7.15502E-09  7.09856E-09  7.04084E-09  6.98195E-09
   6.92171E-09  6.86033E-09  6.79777E-09  6.73407E-09  6.66924E-09  6.60331E-09  6.53630E-09  6.46824E-09  6.39916E-09  6.32907E-09
   6.25799E-09  6.18597E-09  6.11299E-09  6.03912E-09  5.96434E-09  5.88871E-09  5.81222E-09  5.73492E-09  5.65683E-09  5.57795E-09
   5.49833E-09  5.41798E-09  5.33693E-09  5.25523E-09  5.17285E-09  5.08983E-09  5.00621E-09  4.92205E-09  4.83731E-09  4.75208E-09
   4.66639E-09  4.58022E-09  4.49367E-09  4.40681E-09  4.31963E-09  4.23223E-09  4.14475E-09  4.05730E-09  3.97005E-09  3.88336E-09
   3.79763E-09  3.71376E-09  3.63330E-09  3.55970E-09  3.50172E-09  3.48923E-09  3.67915E-09  4.24989E-09  4.39518E-09  4.25954E-09
   4.09496E-09  3.97582E-09  3.87480E-09  3.79727E-09  3.75795E-09  3.76004E-09  3.66197E-09  3.21721E-09  2.48061E-09  2.21623E-09
   2.05994E-09  1.93533E-09  1.82392E-09  1.71926E-09  1.61853E-09  1.52035E-09  1.42394E-09  1.32884E-09  1.23479E-09  1.14160E-09
   1.04914E-09  9.57356E-10  8.66176E-10  7.75587E-10  6.85552E-10  5.96051E-10  5.07100E-10  4.18691E-10  3.30818E-10  2.43501E-10
   1.56744E-10  7.05421E-11 -1.50811E-11 -1.00107E-10 -1.84538E-10 -2.68353E-10 -3.51545E-10 -4.34073E-10 -5.15955E-10 -5.97169E-10
  -6.77696E-10 -7.57511E-10 -8.36609E-10 -9.14968E-10 -9.92595E-10 -1.06946E-09 -1.14553E-09 -1.22081E-09 -1.29530E-09 -1.36895E-09
  -1.44177E-09 -1.51373E-09 -1.58483E-09 -1.65505E-09 -1.72440E-09 -1.79281E-09 -1.86031E-09 -1.92689E-09 -1.99251E-09 -2.05717E-09
