 LCModel (Version 6.3-1R) Copyright: S.W. Provencher.          Ref.: Magn. Reson. Med. 30:672-679 (1993).                
 onepulse 27x11_ftSpec_smooth_lcm
 26 lines in following concentration table = NCONC+1
    Conc.  %SD /Cr+PCr  Metabolite                                         
 5.04E-10  57%   3.692 Ala                                                 
 2.54E-09  23%  18.656 Asp                                                 
    0.000 999%   0.000 Cr                                                  
    0.000 999%   0.000 GABA                                                
 7.93E-10  57%   5.813 Glc                                                 
    0.000 999%   0.000 Gln                                                 
    0.000 999%   0.000 Glu                                                 
    0.000 999%   0.000 Glyc                                                
    0.000 999%   0.000 GPC                                                 
    0.000 999%   0.000 GSH                                                 
 1.27E-09  28%   9.330 Ins                                                 
 1.43E-10 194%   1.045 Lac                                                 
    0.000 999%   0.000 NAAG                                                
    0.000 999%   0.000 NAA                                                 
    0.000 999%   0.000 PCh                                                 
 1.36E-10 143%   1.000 PCr                                                 
    0.000 999%   0.000 PE                                                  
    0.000 999%   0.000 Scyllo                                              
 5.92E-09   9%  43.408 Ser                                                 
    0.000 999%   0.000 Tau                                                 
    0.000 999%   0.000 GPC+PCh                                             
    0.000 999%   0.000 NAA+NAAG                                            
 1.27E-09  28%   9.330 Ins+Glyc                                            
 1.36E-10 143%   1.000 Cr+PCr                                              
    0.000 999%   0.000 Glu+Gln                                             
   6 lines in following misc. output table
  FWHM = 0.123 ppm    S/N =   4                                            
  Data shift = 0.458 ppm                                                   
  Ph: -19 deg      95.6 deg/ppm                                            
  alphaB,S = 3.8E-01,   3.4E+01                                            
   10 spline knots.   Ns = 5(1)                                            
  ( 8) 6 infls.   ( 9) 5 extrs.                                            
  363 points on ppm-axis = NY
      4.250000     4.238821     4.227641     4.216462     4.205282     4.194103     4.182923     4.171744     4.160564     4.149385
      4.138206     4.127026     4.115847     4.104667     4.093488     4.082308     4.071129     4.059949     4.048770     4.037591
      4.026411     4.015232     4.004052     3.992873     3.981693     3.970514     3.959334     3.948155     3.936975     3.925796
      3.914617     3.903437     3.892258     3.881078     3.869899     3.858719     3.847540     3.836360     3.825181     3.814002
      3.802822     3.791643     3.780463     3.769284     3.758104     3.746925     3.735745     3.724566     3.713387     3.702207
      3.691028     3.679848     3.668669     3.657489     3.646310     3.635130     3.623951     3.612772     3.601592     3.590413
      3.579233     3.568054     3.556874     3.545695     3.534515     3.523336     3.512156     3.500977     3.489798     3.478618
      3.467439     3.456259     3.445080     3.433900     3.422721     3.411541     3.400362     3.389183     3.378003     3.366824
      3.355644     3.344465     3.333285     3.322106     3.310926     3.299747     3.288568     3.277388     3.266209     3.255029
      3.243850     3.232670     3.221491     3.210311     3.199132     3.187953     3.176773     3.165594     3.154414     3.143235
      3.132055     3.120876     3.109696     3.098517     3.087337     3.076158     3.064979     3.053799     3.042620     3.031440
      3.020261     3.009081     2.997902     2.986722     2.975543     2.964364     2.953184     2.942005     2.930825     2.919646
      2.908466     2.897287     2.886107     2.874928     2.863749     2.852569     2.841390     2.830210     2.819031     2.807851
      2.796672     2.785492     2.774313     2.763134     2.751954     2.740775     2.729595     2.718416     2.707236     2.696057
      2.684877     2.673698     2.662519     2.651339     2.640160     2.628980     2.617801     2.606621     2.595442     2.584262
      2.573083     2.561903     2.550724     2.539545     2.528365     2.517186     2.506006     2.494827     2.483647     2.472468
      2.461288     2.450109     2.438930     2.427750     2.416571     2.405391     2.394212     2.383032     2.371853     2.360673
      2.349494     2.338315     2.327135     2.315956     2.304776     2.293597     2.282417     2.271238     2.260058     2.248879
      2.237700     2.226520     2.215341     2.204161     2.192982     2.181802     2.170623     2.159443     2.148264     2.137084
      2.125905     2.114726     2.103546     2.092367     2.081187     2.070008     2.058828     2.047649     2.036469     2.025290
      2.014111     2.002931     1.991752     1.980572     1.969393     1.958213     1.947034     1.935854     1.924675     1.913496
      1.902316     1.891137     1.879957     1.868778     1.857598     1.846419     1.835239     1.824060     1.812881     1.801701
      1.790522     1.779342     1.768163     1.756983     1.745804     1.734624     1.723445     1.712265     1.701086     1.689907
      1.678727     1.667548     1.656368     1.645189     1.634009     1.622830     1.611650     1.600471     1.589292     1.578112
      1.566933     1.555753     1.544574     1.533394     1.522215     1.511035     1.499856     1.488677     1.477497     1.466318
      1.455138     1.443959     1.432779     1.421600     1.410420     1.399241     1.388062     1.376882     1.365703     1.354523
      1.343344     1.332164     1.320985     1.309805     1.298626     1.287446     1.276267     1.265088     1.253908     1.242729
      1.231549     1.220370     1.209190     1.198011     1.186831     1.175652     1.164473     1.153293     1.142114     1.130934
      1.119755     1.108575     1.097396     1.086216     1.075037     1.063858     1.052678     1.041499     1.030319     1.019140
      1.007960     0.996781     0.985601     0.974422     0.963243     0.952063     0.940884     0.929704     0.918525     0.907345
      0.896166     0.884986     0.873807     0.862628     0.851448     0.840269     0.829089     0.817910     0.806730     0.795551
      0.784371     0.773192     0.762012     0.750833     0.739654     0.728474     0.717295     0.706115     0.694936     0.683756
      0.672577     0.661397     0.650218     0.639039     0.627859     0.616680     0.605500     0.594321     0.583141     0.571962
      0.560782     0.549603     0.538424     0.527244     0.516065     0.504885     0.493706     0.482526     0.471347     0.460167
      0.448988     0.437809     0.426629     0.415450     0.404270     0.393091     0.381911     0.370732     0.359552     0.348373
      0.337193     0.326014     0.314835     0.303655     0.292476     0.281296     0.270117     0.258937     0.247758     0.236578
      0.225399     0.214220     0.203040
 NY phased data points follow
  -1.05614E-08 -9.08920E-09 -1.06573E-08 -1.03043E-08 -1.10196E-08 -1.11654E-08 -1.16720E-08 -1.06760E-08 -1.13407E-08 -1.04367E-08
  -1.09916E-08 -9.67311E-09 -1.01908E-08 -8.85284E-09 -1.06218E-08 -1.03157E-08 -1.11461E-08 -9.82166E-09 -9.61599E-09 -8.59534E-09
  -9.66113E-09 -9.98493E-09 -1.27762E-08 -1.21373E-08 -1.26919E-08 -1.14405E-08 -1.03683E-08 -8.93507E-09 -8.62117E-09 -8.31681E-09
  -8.26711E-09 -7.78217E-09 -7.59097E-09 -6.95794E-09 -7.17094E-09 -6.46474E-09 -6.54589E-09 -5.19055E-09 -5.08090E-09 -4.84665E-09
  -5.71351E-09 -5.22329E-09 -5.65414E-09 -4.93222E-09 -5.11705E-09 -3.95915E-09 -4.55550E-09 -4.14122E-09 -5.25129E-09 -5.41891E-09
  -5.28193E-09 -5.30719E-09 -8.17712E-09 -1.03959E-08 -1.12136E-08 -9.61610E-09 -8.46622E-09 -6.52099E-09 -6.44251E-09 -5.26233E-09
  -5.35603E-09 -4.49226E-09 -4.12792E-09 -4.15481E-09 -3.97856E-09 -3.96529E-09 -4.26619E-09 -4.76139E-09 -6.56641E-09 -1.00852E-08
  -1.33786E-08 -1.27712E-08 -9.63251E-09 -7.79515E-09 -7.35776E-09 -6.73341E-09 -5.65551E-09 -4.98054E-09 -4.65094E-09 -4.46231E-09
  -4.05370E-09 -3.14943E-09 -2.44381E-09 -1.66167E-09 -1.57232E-09 -7.51747E-10 -5.91454E-10  2.24160E-11 -2.05157E-10  3.34608E-10
   5.91716E-10  5.55627E-10  3.50344E-10  6.91529E-10  8.53721E-10  9.89657E-10  3.30894E-11  1.54168E-09  1.85865E-09  2.67131E-09
   2.41491E-09  2.70868E-09  1.32340E-09  1.12634E-09  6.69341E-10  9.79158E-10  9.79684E-10  4.14987E-10  7.45862E-10  1.42144E-09
   1.02647E-09  1.36632E-09  1.28449E-09  2.46520E-09  2.06688E-09  2.67017E-09  2.19206E-09  1.99723E-09  9.32037E-10  9.03092E-10
   1.02546E-09  1.18882E-09  4.71813E-10  8.16498E-10  3.60821E-10  1.50647E-09  9.15608E-10  1.24328E-09  7.05565E-10 -4.00872E-10
  -1.21813E-09 -4.55053E-12  8.26652E-10  1.47151E-09  1.22912E-09  9.89052E-10  1.05877E-09  1.59465E-09  2.69050E-09  2.85161E-09
   3.25540E-09  3.82071E-09  4.08801E-09  3.99525E-09  4.27200E-09  4.48232E-09  4.73396E-09  4.82678E-09  4.66964E-09  5.30415E-09
   4.89380E-09  4.28785E-09  4.73210E-09  4.41852E-09  4.74768E-09  4.31637E-09  4.14654E-09  4.27594E-09  3.68315E-09  1.56345E-09
  -1.64338E-09 -1.81362E-09  3.56062E-09  9.51249E-09  1.24896E-08  1.33411E-08  1.42107E-08  1.49305E-08  1.56156E-08  1.66011E-08
   1.65886E-08  1.72598E-08  1.79292E-08  1.81764E-08  1.76913E-08  1.79217E-08  1.77167E-08  1.65240E-08  1.54767E-08  1.44792E-08
   1.29870E-08  1.20270E-08  1.00714E-08  8.05767E-09  5.97001E-09  3.33259E-09  2.06311E-09 -1.02434E-10 -2.14543E-09 -3.73661E-09
  -4.91469E-09 -5.87803E-09 -6.52058E-09 -7.01982E-09 -7.20045E-09 -6.83211E-09 -6.62958E-09 -6.08413E-09 -4.88796E-09 -4.55795E-09
  -3.65902E-09 -3.47527E-09 -2.77392E-09 -2.62674E-09 -2.84897E-09 -2.23775E-09 -1.55189E-09 -2.44625E-09 -1.80584E-09 -2.19589E-09
  -1.84250E-09 -2.19943E-09 -1.99111E-09 -1.81236E-09 -1.71854E-09 -1.44788E-09 -1.24650E-09 -1.75763E-09 -1.70327E-09 -2.03540E-09
  -1.41280E-09 -1.92722E-09 -1.70352E-09 -1.42362E-09 -1.50335E-09 -2.12617E-09 -1.73058E-09 -1.08941E-09 -1.01588E-09 -1.86160E-09
  -1.54261E-09 -1.77147E-09 -1.72028E-09 -1.96397E-09 -2.02679E-09 -1.83220E-09 -1.79461E-09 -2.05167E-09 -1.52839E-09 -1.91786E-09
  -1.01944E-09 -1.29669E-09 -9.02801E-10 -1.11009E-09 -8.80560E-10 -1.44094E-09 -9.00634E-10 -1.54795E-09 -1.46220E-09 -1.73384E-09
  -1.49823E-09 -1.63854E-09 -1.67930E-09 -1.65653E-09 -2.37282E-09 -2.32730E-09 -2.17838E-09 -2.48396E-09 -1.96337E-09 -2.15203E-09
  -1.79804E-09 -1.87039E-09 -1.10513E-09 -1.03880E-09 -7.15935E-10 -6.39036E-10 -3.98393E-10 -2.92592E-10 -2.12396E-12 -3.80774E-10
  -4.17003E-10 -5.44094E-10 -5.34779E-10 -9.14365E-10 -1.04328E-09 -1.00695E-09 -1.02463E-09 -1.37104E-09 -1.10169E-09 -1.03527E-09
  -1.41299E-09 -1.65699E-09 -1.35427E-09 -1.65856E-09 -1.29184E-09 -1.56407E-09 -1.32706E-09 -2.23567E-09 -1.22757E-09 -1.85896E-09
  -1.80744E-09 -1.79092E-09 -1.47164E-09 -1.90373E-09 -1.48800E-09 -1.89775E-09 -1.45403E-09 -1.87715E-09 -2.05181E-09 -1.81041E-09
  -1.74581E-09 -1.96326E-09 -1.33953E-09 -1.63430E-09 -1.55550E-09 -1.66383E-09 -1.70636E-09 -1.73399E-09 -1.55729E-09 -1.57812E-09
  -1.73035E-09 -1.71691E-09 -1.38562E-09 -1.53880E-09 -9.83343E-10 -1.53172E-09 -1.28847E-09 -1.25791E-09 -1.26445E-09 -1.28193E-09
  -9.82809E-10 -1.43152E-09 -9.14908E-10 -9.97045E-10 -5.72548E-10 -1.25656E-09 -6.67751E-10 -1.28573E-09 -7.29029E-10 -7.92994E-10
  -6.71969E-10 -6.81037E-10 -6.98524E-10 -7.34790E-10 -5.25569E-10 -7.94814E-10  1.01864E-10 -3.08489E-10  3.01377E-10 -1.15451E-10
   2.93315E-10  6.92544E-11  2.55567E-10  1.40146E-12  2.59144E-10  1.71059E-10  1.09887E-09 -1.39378E-10  7.43821E-10  5.33213E-10
   1.13842E-09  5.75607E-10  1.45059E-09  9.71857E-10  1.40360E-09  9.46129E-10  4.11898E-10  1.58166E-09  1.50187E-09  9.07199E-10
   1.68800E-09  1.48633E-09  1.91233E-09
 NY points of the fit to the data follow
  -6.84961E-09 -1.04896E-08 -1.19405E-08 -1.08825E-08 -1.06690E-08 -1.19137E-08 -1.29243E-08 -1.21134E-08 -1.09102E-08 -1.04380E-08
  -9.97157E-09 -9.41236E-09 -8.76863E-09 -8.54342E-09 -8.79445E-09 -9.21103E-09 -9.56089E-09 -1.04299E-08 -1.12739E-08 -1.11404E-08
  -1.05338E-08 -1.01687E-08 -1.01374E-08 -1.01581E-08 -9.96928E-09 -9.61450E-09 -9.19395E-09 -8.82735E-09 -8.51295E-09 -8.25037E-09
  -8.03006E-09 -7.72655E-09 -7.52757E-09 -7.40412E-09 -7.31842E-09 -7.13942E-09 -6.90841E-09 -6.65393E-09 -6.52866E-09 -6.46332E-09
  -6.35156E-09 -6.10938E-09 -5.60812E-09 -5.05149E-09 -4.50644E-09 -4.74396E-09 -5.24435E-09 -5.24372E-09 -5.00079E-09 -4.79163E-09
  -4.77002E-09 -5.01902E-09 -5.66577E-09 -6.45558E-09 -6.80463E-09 -6.97306E-09 -6.56742E-09 -6.50048E-09 -6.71944E-09 -6.74873E-09
  -6.58891E-09 -6.44453E-09 -6.22796E-09 -5.95863E-09 -5.84972E-09 -5.88837E-09 -5.78093E-09 -5.62386E-09 -5.45433E-09 -5.28185E-09
  -5.10949E-09 -4.93834E-09 -4.76875E-09 -4.60075E-09 -4.43427E-09 -4.26914E-09 -4.10522E-09 -3.94234E-09 -3.78028E-09 -3.61897E-09
  -3.45820E-09 -3.29784E-09 -3.13768E-09 -2.97762E-09 -2.81746E-09 -2.65695E-09 -2.49591E-09 -2.33401E-09 -2.17092E-09 -2.00619E-09
  -1.83919E-09 -1.66916E-09 -1.49488E-09 -1.31476E-09 -1.12623E-09 -9.25090E-10 -7.04031E-10 -4.48435E-10 -1.23503E-10  3.68574E-10
   7.72093E-10  9.00684E-10  1.17727E-09  1.53510E-09  1.73385E-09  1.83082E-09  1.93905E-09  2.02353E-09  1.95877E-09  1.82085E-09
   1.63557E-09  1.57531E-09  1.52591E-09  1.22683E-09  1.05872E-09  1.09024E-09  1.12422E-09  1.13648E-09  1.17534E-09  1.23458E-09
   1.22448E-09  1.26274E-09  1.35562E-09  1.45546E-09  1.55426E-09  1.65006E-09  1.74232E-09  1.83084E-09  1.91562E-09  1.99668E-09
   2.07404E-09  2.14772E-09  2.21774E-09  2.28414E-09  2.34690E-09  2.40605E-09  2.46158E-09  2.51350E-09  2.56178E-09  2.60643E-09
   2.64747E-09  2.68489E-09  2.71867E-09  2.74883E-09  2.77542E-09  2.79841E-09  2.81787E-09  2.83382E-09  2.84637E-09  2.85558E-09
   2.86163E-09  2.86467E-09  2.86494E-09  2.86281E-09  2.85874E-09  2.85341E-09  2.84770E-09  2.84318E-09  2.84203E-09  2.84761E-09
   2.86533E-09  2.90440E-09  2.98205E-09  3.13421E-09  3.45006E-09  4.22172E-09  6.89386E-09  1.23682E-08  1.75020E-08  1.93854E-08
   1.90900E-08  1.83540E-08  1.81698E-08  1.88241E-08  2.00098E-08  2.07546E-08  1.94741E-08  1.48695E-08  8.54033E-09  4.47725E-09
   3.14190E-09  2.49139E-09  2.08567E-09  1.79415E-09  1.56490E-09  1.37330E-09  1.20617E-09  1.05586E-09  9.17693E-10  7.88623E-10
   6.66628E-10  5.50333E-10  4.38768E-10  3.31261E-10  2.27325E-10  1.26630E-10  2.89313E-11 -6.59263E-11 -1.58050E-10 -2.47504E-10
  -3.34314E-10 -4.18485E-10 -4.99998E-10 -5.78822E-10 -6.54914E-10 -7.28223E-10 -7.98682E-10 -8.66233E-10 -9.30840E-10 -9.92579E-10
  -1.05153E-09 -1.10777E-09 -1.16138E-09 -1.21244E-09 -1.26102E-09 -1.30719E-09 -1.35102E-09 -1.39257E-09 -1.43193E-09 -1.46914E-09
  -1.50427E-09 -1.53740E-09 -1.56858E-09 -1.59787E-09 -1.62534E-09 -1.65105E-09 -1.67505E-09 -1.69741E-09 -1.71820E-09 -1.73744E-09
  -1.75522E-09 -1.77159E-09 -1.78661E-09 -1.80032E-09 -1.81279E-09 -1.82408E-09 -1.83422E-09 -1.84328E-09 -1.85131E-09 -1.85836E-09
  -1.86447E-09 -1.86971E-09 -1.87411E-09 -1.87773E-09 -1.88061E-09 -1.88279E-09 -1.88434E-09 -1.88528E-09 -1.88566E-09 -1.88552E-09
  -1.88491E-09 -1.88386E-09 -1.88242E-09 -1.88061E-09 -1.87848E-09 -1.87606E-09 -1.87340E-09 -1.87051E-09 -1.86743E-09 -1.86420E-09
  -1.86081E-09 -1.85727E-09 -1.85354E-09 -1.84963E-09 -1.84551E-09 -1.84116E-09 -1.83658E-09 -1.83175E-09 -1.82666E-09 -1.82129E-09
  -1.81563E-09 -1.80965E-09 -1.80337E-09 -1.79674E-09 -1.78977E-09 -1.78244E-09 -1.77473E-09 -1.76664E-09 -1.75814E-09 -1.74924E-09
  -1.73991E-09 -1.73014E-09 -1.71992E-09 -1.70924E-09 -1.69809E-09 -1.68646E-09 -1.67433E-09 -1.66169E-09 -1.64854E-09 -1.63486E-09
  -1.62064E-09 -1.60587E-09 -1.59055E-09 -1.57465E-09 -1.55818E-09 -1.54112E-09 -1.52347E-09 -1.50521E-09 -1.48634E-09 -1.46685E-09
  -1.44673E-09 -1.42597E-09 -1.40457E-09 -1.38251E-09 -1.35980E-09 -1.33643E-09 -1.31238E-09 -1.28766E-09 -1.26226E-09 -1.23617E-09
  -1.20938E-09 -1.18191E-09 -1.15373E-09 -1.12484E-09 -1.09525E-09 -1.06496E-09 -1.03395E-09 -1.00223E-09 -9.69803E-10 -9.36659E-10
  -9.02802E-10 -8.68224E-10 -8.32930E-10 -7.96916E-10 -7.60183E-10 -7.22730E-10 -6.84555E-10 -6.45660E-10 -6.06042E-10 -5.65702E-10
  -5.24643E-10 -4.82863E-10 -4.40359E-10 -3.97139E-10 -3.53198E-10 -3.08538E-10 -2.63163E-10 -2.17071E-10 -1.70264E-10 -1.22743E-10
  -7.45114E-11 -2.55701E-11  2.40790E-11  7.44336E-11  1.25492E-10  1.77251E-10  2.29707E-10  2.82859E-10  3.36704E-10  3.91238E-10
   4.46457E-10  5.02359E-10  5.58940E-10  6.16197E-10  6.74125E-10  7.32721E-10  7.91980E-10  8.51898E-10  9.12471E-10  9.73692E-10
   1.03556E-09  1.09807E-09  1.16121E-09
 NY background values follow
    -2.605E-09   -2.717E-09   -2.826E-09   -2.932E-09   -3.035E-09   -3.136E-09   -3.233E-09   -3.327E-09   -3.418E-09   -3.506E-09
    -3.591E-09   -3.672E-09   -3.751E-09   -3.827E-09   -3.900E-09   -3.970E-09   -4.037E-09   -4.100E-09   -4.161E-09   -4.219E-09
    -4.274E-09   -4.326E-09   -4.374E-09   -4.420E-09   -4.463E-09   -4.503E-09   -4.540E-09   -4.574E-09   -4.605E-09   -4.633E-09
    -4.658E-09   -4.680E-09   -4.699E-09   -4.716E-09   -4.729E-09   -4.740E-09   -4.748E-09   -4.753E-09   -4.755E-09   -4.754E-09
    -4.750E-09   -4.744E-09   -4.735E-09   -4.723E-09   -4.708E-09   -4.691E-09   -4.671E-09   -4.648E-09   -4.623E-09   -4.595E-09
    -4.564E-09   -4.530E-09   -4.494E-09   -4.456E-09   -4.414E-09   -4.371E-09   -4.325E-09   -4.276E-09   -4.225E-09   -4.172E-09
    -4.116E-09   -4.059E-09   -3.999E-09   -3.937E-09   -3.872E-09   -3.806E-09   -3.738E-09   -3.668E-09   -3.596E-09   -3.523E-09
    -3.447E-09   -3.370E-09   -3.292E-09   -3.211E-09   -3.130E-09   -3.047E-09   -2.962E-09   -2.877E-09   -2.790E-09   -2.702E-09
    -2.613E-09   -2.522E-09   -2.431E-09   -2.339E-09   -2.247E-09   -2.153E-09   -2.059E-09   -1.965E-09   -1.870E-09   -1.774E-09
    -1.678E-09   -1.582E-09   -1.486E-09   -1.390E-09   -1.293E-09   -1.197E-09   -1.101E-09   -1.005E-09   -9.089E-10   -8.135E-10
    -7.186E-10   -6.242E-10   -5.304E-10   -4.373E-10   -3.449E-10   -2.534E-10   -1.629E-10   -7.328E-11    1.523E-11    1.026E-10
     1.888E-10    2.736E-10    3.571E-10    4.392E-10    5.198E-10    5.988E-10    6.761E-10    7.518E-10    8.256E-10    8.976E-10
     9.676E-10    1.036E-09    1.102E-09    1.165E-09    1.227E-09    1.286E-09    1.343E-09    1.398E-09    1.450E-09    1.500E-09
     1.547E-09    1.591E-09    1.633E-09    1.672E-09    1.708E-09    1.741E-09    1.771E-09    1.798E-09    1.822E-09    1.843E-09
     1.860E-09    1.875E-09    1.886E-09    1.894E-09    1.898E-09    1.899E-09    1.897E-09    1.891E-09    1.881E-09    1.868E-09
     1.851E-09    1.830E-09    1.806E-09    1.777E-09    1.745E-09    1.709E-09    1.670E-09    1.626E-09    1.579E-09    1.528E-09
     1.474E-09    1.416E-09    1.355E-09    1.291E-09    1.224E-09    1.154E-09    1.082E-09    1.007E-09    9.295E-10    8.498E-10
     7.679E-10    6.840E-10    5.981E-10    5.105E-10    4.213E-10    3.306E-10    2.385E-10    1.453E-10    5.092E-11   -4.436E-11
    -1.404E-10   -2.372E-10   -3.344E-10   -4.320E-10   -5.299E-10   -6.279E-10   -7.258E-10   -8.235E-10   -9.210E-10   -1.018E-09
    -1.114E-09   -1.210E-09   -1.305E-09   -1.399E-09   -1.491E-09   -1.583E-09   -1.673E-09   -1.762E-09   -1.849E-09   -1.934E-09
    -2.017E-09   -2.098E-09   -2.178E-09   -2.255E-09   -2.329E-09   -2.401E-09   -2.471E-09   -2.537E-09   -2.602E-09   -2.663E-09
    -2.721E-09   -2.777E-09   -2.831E-09   -2.882E-09   -2.930E-09   -2.976E-09   -3.020E-09   -3.061E-09   -3.101E-09   -3.138E-09
    -3.173E-09   -3.205E-09   -3.236E-09   -3.265E-09   -3.292E-09   -3.317E-09   -3.341E-09   -3.362E-09   -3.382E-09   -3.401E-09
    -3.417E-09   -3.433E-09   -3.447E-09   -3.459E-09   -3.470E-09   -3.480E-09   -3.489E-09   -3.496E-09   -3.502E-09   -3.508E-09
    -3.512E-09   -3.515E-09   -3.517E-09   -3.519E-09   -3.519E-09   -3.519E-09   -3.518E-09   -3.516E-09   -3.514E-09   -3.511E-09
    -3.507E-09   -3.503E-09   -3.498E-09   -3.493E-09   -3.488E-09   -3.482E-09   -3.476E-09   -3.469E-09   -3.462E-09   -3.455E-09
    -3.448E-09   -3.440E-09   -3.432E-09   -3.424E-09   -3.415E-09   -3.406E-09   -3.397E-09   -3.388E-09   -3.378E-09   -3.367E-09
    -3.357E-09   -3.346E-09   -3.334E-09   -3.322E-09   -3.310E-09   -3.297E-09   -3.284E-09   -3.270E-09   -3.256E-09   -3.241E-09
    -3.226E-09   -3.210E-09   -3.194E-09   -3.177E-09   -3.159E-09   -3.141E-09   -3.123E-09   -3.104E-09   -3.084E-09   -3.063E-09
    -3.042E-09   -3.021E-09   -2.998E-09   -2.976E-09   -2.952E-09   -2.928E-09   -2.903E-09   -2.877E-09   -2.851E-09   -2.824E-09
    -2.796E-09   -2.768E-09   -2.739E-09   -2.709E-09   -2.679E-09   -2.647E-09   -2.615E-09   -2.583E-09   -2.549E-09   -2.515E-09
    -2.480E-09   -2.444E-09   -2.407E-09   -2.370E-09   -2.332E-09   -2.293E-09   -2.254E-09   -2.213E-09   -2.172E-09   -2.130E-09
    -2.088E-09   -2.044E-09   -2.000E-09   -1.955E-09   -1.909E-09   -1.863E-09   -1.815E-09   -1.767E-09   -1.719E-09   -1.669E-09
    -1.619E-09   -1.567E-09   -1.516E-09   -1.463E-09   -1.409E-09   -1.355E-09   -1.300E-09   -1.245E-09   -1.188E-09   -1.131E-09
    -1.073E-09   -1.014E-09   -9.549E-10   -8.947E-10   -8.338E-10   -7.722E-10   -7.098E-10   -6.467E-10   -5.829E-10   -5.184E-10
    -4.532E-10   -3.872E-10   -3.206E-10   -2.532E-10   -1.852E-10   -1.164E-10   -4.701E-11    2.308E-11    9.386E-11    1.653E-10
     2.374E-10    3.102E-10    3.836E-10
 Ala      Conc. = 5.04E-10
  -2.27677E-09 -2.45152E-09 -2.59675E-09 -2.73988E-09 -2.88422E-09 -3.02783E-09 -3.19759E-09 -3.33522E-09 -3.40682E-09 -3.54655E-09
  -3.69057E-09 -3.74068E-09 -3.81361E-09 -3.90498E-09 -3.96676E-09 -4.02194E-09 -4.07497E-09 -4.12640E-09 -4.17621E-09 -4.22417E-09
  -4.27013E-09 -4.31393E-09 -4.35543E-09 -4.39455E-09 -4.43121E-09 -4.46533E-09 -4.49687E-09 -4.52577E-09 -4.55203E-09 -4.57558E-09
  -4.59641E-09 -4.61455E-09 -4.62992E-09 -4.64256E-09 -4.65243E-09 -4.65956E-09 -4.66392E-09 -4.66551E-09 -4.66435E-09 -4.66047E-09
  -4.65380E-09 -4.64437E-09 -4.63223E-09 -4.61737E-09 -4.59977E-09 -4.57947E-09 -4.55645E-09 -4.53075E-09 -4.50238E-09 -4.47137E-09
  -4.43765E-09 -4.40130E-09 -4.36231E-09 -4.32073E-09 -4.27659E-09 -4.22990E-09 -4.18070E-09 -4.12905E-09 -4.07497E-09 -4.01850E-09
  -3.95970E-09 -3.89859E-09 -3.83522E-09 -3.76965E-09 -3.70191E-09 -3.63203E-09 -3.56008E-09 -3.48608E-09 -3.41010E-09 -3.33217E-09
  -3.25233E-09 -3.17063E-09 -3.08711E-09 -3.00180E-09 -2.91474E-09 -2.82597E-09 -2.73553E-09 -2.64343E-09 -2.54966E-09 -2.45430E-09
  -2.35731E-09 -2.25871E-09 -2.15842E-09 -2.05647E-09 -1.95279E-09 -1.84724E-09 -1.73972E-09 -1.63002E-09 -1.51791E-09 -1.40303E-09
  -1.28483E-09 -1.16267E-09 -1.03540E-09 -9.01565E-10 -7.58687E-10 -6.02704E-10 -4.26465E-10 -2.15533E-10  6.46433E-11  5.11545E-10
   8.69011E-10  9.49988E-10  1.17630E-09  1.47927E-09  1.61474E-09  1.63085E-09  1.61331E-09  1.57156E-09  1.45841E-09  1.23286E-09
   9.55688E-10  8.57188E-10  8.01626E-10  5.01509E-10  3.34082E-10  3.82699E-10  4.67790E-10  5.59564E-10  6.50921E-10  7.39741E-10
   8.25389E-10  9.07674E-10  9.86604E-10  1.06221E-09  1.13457E-09  1.20371E-09  1.26972E-09  1.33257E-09  1.39232E-09  1.44897E-09
   1.50250E-09  1.55292E-09  1.60019E-09  1.64433E-09  1.68529E-09  1.72304E-09  1.75755E-09  1.78880E-09  1.81673E-09  1.84132E-09
   1.86254E-09  1.88036E-09  1.89470E-09  1.90556E-09  1.91291E-09  1.91668E-09  1.91686E-09  1.91340E-09  1.90627E-09  1.89542E-09
   1.88087E-09  1.86256E-09  1.84044E-09  1.81455E-09  1.78485E-09  1.75137E-09  1.71406E-09  1.67314E-09  1.62883E-09  1.58138E-09
   1.53121E-09  1.47889E-09  1.42546E-09  1.37301E-09  1.32673E-09  1.30419E-09  1.39844E-09  1.64992E-09  1.75284E-09  1.69638E-09
   1.57864E-09  1.46791E-09  1.39333E-09  1.35710E-09  1.33492E-09  1.26958E-09  1.07667E-09  7.07120E-10  3.05935E-10  1.27792E-10
  -1.22805E-12 -1.15073E-10 -2.22566E-10 -3.26868E-10 -4.29331E-10 -5.30583E-10 -6.30924E-10 -7.30486E-10 -8.29296E-10 -9.27334E-10
  -1.02455E-09 -1.12085E-09 -1.21616E-09 -1.31036E-09 -1.40336E-09 -1.49503E-09 -1.58527E-09 -1.67395E-09 -1.76096E-09 -1.84618E-09
  -1.92950E-09 -2.01078E-09 -2.08992E-09 -2.16681E-09 -2.24132E-09 -2.31334E-09 -2.38277E-09 -2.44950E-09 -2.51344E-09 -2.57466E-09
  -2.63320E-09 -2.68911E-09 -2.74246E-09 -2.79330E-09 -2.84168E-09 -2.88767E-09 -2.93132E-09 -2.97268E-09 -3.01182E-09 -3.04880E-09
  -3.08365E-09 -3.11645E-09 -3.14726E-09 -3.17612E-09 -3.20310E-09 -3.22824E-09 -3.25161E-09 -3.27327E-09 -3.29328E-09 -3.31167E-09
  -3.32850E-09 -3.34385E-09 -3.35775E-09 -3.37027E-09 -3.38145E-09 -3.39135E-09 -3.40002E-09 -3.40751E-09 -3.41388E-09 -3.41916E-09
  -3.42343E-09 -3.42671E-09 -3.42906E-09 -3.43053E-09 -3.43116E-09 -3.43101E-09 -3.43011E-09 -3.42851E-09 -3.42625E-09 -3.42337E-09
  -3.41992E-09 -3.41594E-09 -3.41146E-09 -3.40651E-09 -3.40116E-09 -3.39541E-09 -3.38931E-09 -3.38290E-09 -3.37620E-09 -3.36925E-09
  -3.36205E-09 -3.35459E-09 -3.34686E-09 -3.33884E-09 -3.33053E-09 -3.32189E-09 -3.31293E-09 -3.30363E-09 -3.29396E-09 -3.28393E-09
  -3.27352E-09 -3.26271E-09 -3.25149E-09 -3.23984E-09 -3.22776E-09 -3.21523E-09 -3.20224E-09 -3.18878E-09 -3.17483E-09 -3.16038E-09
  -3.14542E-09 -3.12995E-09 -3.11394E-09 -3.09738E-09 -3.08028E-09 -3.06261E-09 -3.04436E-09 -3.02552E-09 -3.00610E-09 -2.98606E-09
  -2.96541E-09 -2.94414E-09 -2.92223E-09 -2.89968E-09 -2.87647E-09 -2.85261E-09 -2.82808E-09 -2.80287E-09 -2.77698E-09 -2.75040E-09
  -2.72312E-09 -2.69514E-09 -2.66644E-09 -2.63703E-09 -2.60689E-09 -2.57603E-09 -2.54443E-09 -2.51209E-09 -2.47901E-09 -2.44517E-09
  -2.41058E-09 -2.37524E-09 -2.33914E-09 -2.30228E-09 -2.26465E-09 -2.22626E-09 -2.18711E-09 -2.14718E-09 -2.10650E-09 -2.06504E-09
  -2.02282E-09 -1.97983E-09 -1.93607E-09 -1.89154E-09 -1.84625E-09 -1.80019E-09 -1.75336E-09 -1.70576E-09 -1.65739E-09 -1.60826E-09
  -1.55837E-09 -1.50771E-09 -1.45629E-09 -1.40411E-09 -1.35117E-09 -1.29747E-09 -1.24302E-09 -1.18782E-09 -1.13186E-09 -1.07516E-09
  -1.01771E-09 -9.59514E-10 -9.00581E-10 -8.40910E-10 -7.80505E-10 -7.19370E-10 -6.57509E-10 -5.94923E-10 -5.31618E-10 -4.67598E-10
  -4.02866E-10 -3.37427E-10 -2.71285E-10 -2.04446E-10 -1.36913E-10 -6.86919E-11  2.12261E-13  6.97944E-11  1.40049E-10  2.10971E-10
   2.82554E-10  3.54793E-10  4.27680E-10
 Asp      Conc. = 2.54E-09
  -2.89874E-09 -3.20559E-09 -3.46757E-09 -3.66395E-09 -3.94204E-09 -4.07756E-09 -4.16223E-09 -4.06148E-09 -3.98162E-09 -3.92778E-09
  -3.89213E-09 -3.86847E-09 -3.85367E-09 -3.84807E-09 -3.84837E-09 -3.85100E-09 -3.85461E-09 -3.85818E-09 -3.86089E-09 -3.86200E-09
  -3.86086E-09 -3.85687E-09 -3.84940E-09 -3.83788E-09 -3.82167E-09 -3.80006E-09 -3.77224E-09 -3.73726E-09 -3.69396E-09 -3.64082E-09
  -3.57583E-09 -3.49632E-09 -3.39821E-09 -3.27534E-09 -3.11774E-09 -2.91511E-09 -2.79525E-09 -2.69969E-09 -2.74167E-09 -2.77717E-09
  -2.66605E-09 -2.34216E-09 -1.79567E-09 -1.44135E-09 -1.10591E-09 -1.52448E-09 -2.18551E-09 -2.33063E-09 -2.22195E-09 -2.13773E-09
  -2.23328E-09 -2.59276E-09 -3.34418E-09 -4.23349E-09 -4.67745E-09 -4.93664E-09 -4.61800E-09 -4.63461E-09 -4.93399E-09 -5.04078E-09
  -4.95579E-09 -4.88377E-09 -4.73727E-09 -4.53586E-09 -4.49289E-09 -4.59563E-09 -4.55056E-09 -4.45425E-09 -4.34400E-09 -4.22940E-09
  -4.11363E-09 -3.99788E-09 -3.88259E-09 -3.76788E-09 -3.65376E-09 -3.54018E-09 -3.42706E-09 -3.31433E-09 -3.20189E-09 -3.08974E-09
  -2.97780E-09 -2.86606E-09 -2.75445E-09 -2.64301E-09 -2.53172E-09 -2.42056E-09 -2.30957E-09 -2.19874E-09 -2.08811E-09 -1.97772E-09
  -1.86756E-09 -1.75775E-09 -1.64822E-09 -1.53911E-09 -1.43045E-09 -1.32223E-09 -1.21455E-09 -1.10747E-09 -1.00107E-09 -8.95356E-10
  -7.90468E-10 -6.86348E-10 -5.83136E-10 -4.80932E-10 -3.79695E-10 -2.79591E-10 -1.80656E-10 -8.29363E-11  1.34960E-11  1.08577E-10
   2.02251E-10  2.94435E-10  3.85078E-10  4.74113E-10  5.61463E-10  6.47090E-10  7.30898E-10  8.12836E-10  8.92846E-10  9.70847E-10
   1.04679E-09  1.12060E-09  1.19223E-09  1.26158E-09  1.32863E-09  1.39328E-09  1.45550E-09  1.51520E-09  1.57234E-09  1.62685E-09
   1.67868E-09  1.72776E-09  1.77403E-09  1.81745E-09  1.85796E-09  1.89550E-09  1.93001E-09  1.96145E-09  1.98976E-09  2.01490E-09
   2.03682E-09  2.05549E-09  2.07084E-09  2.08284E-09  2.09149E-09  2.09671E-09  2.09850E-09  2.09681E-09  2.09166E-09  2.08301E-09
   2.07091E-09  2.05536E-09  2.03636E-09  2.01405E-09  1.98850E-09  1.95990E-09  1.92845E-09  1.89472E-09  1.85942E-09  1.82367E-09
   1.78923E-09  1.75913E-09  1.73919E-09  1.74208E-09  1.80154E-09  2.04070E-09  3.13296E-09  4.51271E-09  5.08517E-09  5.00518E-09
   4.73213E-09  4.54906E-09  4.56301E-09  4.75129E-09  4.95352E-09  4.84197E-09  4.00815E-09  2.37465E-09  1.09266E-09  6.65871E-10
   4.29469E-10  2.57423E-10  1.14089E-10 -1.41334E-11 -1.33467E-10 -2.47100E-10 -3.56808E-10 -4.63621E-10 -5.68154E-10 -6.70776E-10
  -7.71707E-10 -8.71057E-10 -9.68882E-10 -1.06518E-09 -1.15994E-09 -1.25309E-09 -1.34458E-09 -1.43433E-09 -1.52225E-09 -1.60825E-09
  -1.69223E-09 -1.77409E-09 -1.85373E-09 -1.93105E-09 -2.00594E-09 -2.07830E-09 -2.14802E-09 -2.21500E-09 -2.27918E-09 -2.34061E-09
  -2.39934E-09 -2.45543E-09 -2.50894E-09 -2.55993E-09 -2.60846E-09 -2.65459E-09 -2.69838E-09 -2.73988E-09 -2.77916E-09 -2.81627E-09
  -2.85127E-09 -2.88422E-09 -2.91518E-09 -2.94420E-09 -2.97134E-09 -2.99666E-09 -3.02021E-09 -3.04206E-09 -3.06226E-09 -3.08086E-09
