 LCModel (Version 6.3-1R) Copyright: S.W. Provencher.          Ref.: Magn. Reson. Med. 30:672-679 (1993).                
 onepulse 27x16_ftSpec_smooth_lcm
 26 lines in following concentration table = NCONC+1
    Conc.  %SD   /Cr    Metabolite                                         
 1.27E-10 305%   0.000 Ala                                                 
 9.61E-10 112%   0.000 Asp                                                 
    0.000 999%   0.000 Cr                                                  
 7.02E-10 105%   0.000 GABA                                                
    0.000 999%   0.000 Glc                                                 
 1.19E-09  73%   0.000 Gln                                                 
    0.000 999%   0.000 Glu                                                 
 1.27E-09 192%   0.000 Glyc                                                
    0.000 999%   0.000 GPC                                                 
 9.31E-10  78%   0.000 GSH                                                 
 6.90E-10 297%   0.000 Ins                                                 
    0.000 999%   0.000 Lac                                                 
 6.82E-10  71%   0.000 NAAG                                                
    0.000 999%   0.000 NAA                                                 
    0.000 999%   0.000 PCh                                                 
    0.000 999%   0.000 PCr                                                 
 1.28E-09 109%   0.000 PE                                                  
 3.01E-10 127%   0.000 Scyllo                                              
 1.56E-09  78%   0.000 Ser                                                 
 9.77E-10 136%   0.000 Tau                                                 
    0.000 999%   0.000 GPC+PCh                                             
 6.82E-10  66%   0.000 NAA+NAAG                                            
 1.96E-09  38%   0.000 Ins+Glyc                                            
    0.000 999%   0.000 Cr+PCr                                              
 1.19E-09  73%   0.000 Glu+Gln                                             
   6 lines in following misc. output table
  FWHM = 0.123 ppm    S/N =   2                                            
  Data shift = 0.458 ppm                                                   
  Ph:   5 deg     -35.2 deg/ppm                                            
  alphaB,S = 1.1E+00,   2.3E+01                                            
    8 spline knots.   Ns = 5(1)                                            
  (10) 4 infls.   ( 9) 3 extrs.                                            
  363 points on ppm-axis = NY
      4.250000     4.238821     4.227641     4.216462     4.205282     4.194103     4.182923     4.171744     4.160564     4.149385
      4.138206     4.127026     4.115847     4.104667     4.093488     4.082308     4.071129     4.059949     4.048770     4.037591
      4.026411     4.015232     4.004052     3.992873     3.981693     3.970514     3.959334     3.948155     3.936975     3.925796
      3.914617     3.903437     3.892258     3.881078     3.869899     3.858719     3.847540     3.836360     3.825181     3.814002
      3.802822     3.791643     3.780463     3.769284     3.758104     3.746925     3.735745     3.724566     3.713387     3.702207
      3.691028     3.679848     3.668669     3.657489     3.646310     3.635130     3.623951     3.612772     3.601592     3.590413
      3.579233     3.568054     3.556874     3.545695     3.534515     3.523336     3.512156     3.500977     3.489798     3.478618
      3.467439     3.456259     3.445080     3.433900     3.422721     3.411541     3.400362     3.389183     3.378003     3.366824
      3.355644     3.344465     3.333285     3.322106     3.310926     3.299747     3.288568     3.277388     3.266209     3.255029
      3.243850     3.232670     3.221491     3.210311     3.199132     3.187953     3.176773     3.165594     3.154414     3.143235
      3.132055     3.120876     3.109696     3.098517     3.087337     3.076158     3.064979     3.053799     3.042620     3.031440
      3.020261     3.009081     2.997902     2.986722     2.975543     2.964364     2.953184     2.942005     2.930825     2.919646
      2.908466     2.897287     2.886107     2.874928     2.863749     2.852569     2.841390     2.830210     2.819031     2.807851
      2.796672     2.785492     2.774313     2.763134     2.751954     2.740775     2.729595     2.718416     2.707236     2.696057
      2.684877     2.673698     2.662519     2.651339     2.640160     2.628980     2.617801     2.606621     2.595442     2.584262
      2.573083     2.561903     2.550724     2.539545     2.528365     2.517186     2.506006     2.494827     2.483647     2.472468
      2.461288     2.450109     2.438930     2.427750     2.416571     2.405391     2.394212     2.383032     2.371853     2.360673
      2.349494     2.338315     2.327135     2.315956     2.304776     2.293597     2.282417     2.271238     2.260058     2.248879
      2.237700     2.226520     2.215341     2.204161     2.192982     2.181802     2.170623     2.159443     2.148264     2.137084
      2.125905     2.114726     2.103546     2.092367     2.081187     2.070008     2.058828     2.047649     2.036469     2.025290
      2.014111     2.002931     1.991752     1.980572     1.969393     1.958213     1.947034     1.935854     1.924675     1.913496
      1.902316     1.891137     1.879957     1.868778     1.857598     1.846419     1.835239     1.824060     1.812881     1.801701
      1.790522     1.779342     1.768163     1.756983     1.745804     1.734624     1.723445     1.712265     1.701086     1.689907
      1.678727     1.667548     1.656368     1.645189     1.634009     1.622830     1.611650     1.600471     1.589292     1.578112
      1.566933     1.555753     1.544574     1.533394     1.522215     1.511035     1.499856     1.488677     1.477497     1.466318
      1.455138     1.443959     1.432779     1.421600     1.410420     1.399241     1.388062     1.376882     1.365703     1.354523
      1.343344     1.332164     1.320985     1.309805     1.298626     1.287446     1.276267     1.265088     1.253908     1.242729
      1.231549     1.220370     1.209190     1.198011     1.186831     1.175652     1.164473     1.153293     1.142114     1.130934
      1.119755     1.108575     1.097396     1.086216     1.075037     1.063858     1.052678     1.041499     1.030319     1.019140
      1.007960     0.996781     0.985601     0.974422     0.963243     0.952063     0.940884     0.929704     0.918525     0.907345
      0.896166     0.884986     0.873807     0.862628     0.851448     0.840269     0.829089     0.817910     0.806730     0.795551
      0.784371     0.773192     0.762012     0.750833     0.739654     0.728474     0.717295     0.706115     0.694936     0.683756
      0.672577     0.661397     0.650218     0.639039     0.627859     0.616680     0.605500     0.594321     0.583141     0.571962
      0.560782     0.549603     0.538424     0.527244     0.516065     0.504885     0.493706     0.482526     0.471347     0.460167
      0.448988     0.437809     0.426629     0.415450     0.404270     0.393091     0.381911     0.370732     0.359552     0.348373
      0.337193     0.326014     0.314835     0.303655     0.292476     0.281296     0.270117     0.258937     0.247758     0.236578
      0.225399     0.214220     0.203040
 NY phased data points follow
   1.24275E-08  1.20390E-08  1.25896E-08  1.28722E-08  1.30192E-08  1.31191E-08  1.35641E-08  1.26023E-08  1.27805E-08  1.23647E-08
   1.29865E-08  1.20741E-08  1.18993E-08  1.15057E-08  1.15376E-08  1.23198E-08  1.32186E-08  1.24133E-08  1.20531E-08  1.14778E-08
   1.23138E-08  1.21968E-08  1.36747E-08  1.45626E-08  1.48512E-08  1.39323E-08  1.35178E-08  1.21946E-08  1.13353E-08  1.09721E-08
   1.13283E-08  1.01680E-08  1.02058E-08  9.66242E-09  9.81470E-09  8.75343E-09  9.16180E-09  8.57821E-09  8.57924E-09  8.22540E-09
   7.95208E-09  7.74784E-09  8.10737E-09  7.46105E-09  8.07955E-09  7.17594E-09  6.79739E-09  6.79122E-09  6.94790E-09  6.82595E-09
   6.85475E-09  6.80530E-09  8.36385E-09  9.64287E-09  1.24975E-08  1.35562E-08  1.30159E-08  1.25430E-08  1.13087E-08  1.05776E-08
   9.49445E-09  9.39659E-09  8.35239E-09  7.89530E-09  7.17751E-09  6.91479E-09  6.83467E-09  5.64996E-09  6.70246E-09  8.95335E-09
   1.17650E-08  1.37493E-08  1.50323E-08  1.49987E-08  1.49877E-08  1.47856E-08  1.44304E-08  1.35697E-08  1.34677E-08  1.31045E-08
   1.29438E-08  1.30072E-08  1.23134E-08  1.17310E-08  1.18167E-08  1.07122E-08  1.09962E-08  9.90190E-09  1.04863E-08  1.01915E-08
   9.68141E-09  9.48383E-09  9.67751E-09  9.00775E-09  1.00886E-08  8.90239E-09  9.06793E-09  9.60261E-09  8.48400E-09  7.84230E-09
   7.80484E-09  7.09453E-09  6.66679E-09  6.98558E-09  6.86569E-09  6.98992E-09  6.86066E-09  6.89476E-09  6.62584E-09  7.38777E-09
   7.67146E-09  7.79774E-09  7.55727E-09  7.53085E-09  7.27091E-09  6.95010E-09  5.61497E-09  5.62660E-09  5.27626E-09  5.91351E-09
   6.07097E-09  5.71670E-09  5.42251E-09  5.29281E-09  5.60566E-09  4.85479E-09  4.93200E-09  4.92317E-09  4.72110E-09  3.85324E-09
   5.06718E-09  4.91177E-09  5.96146E-09  5.45520E-09  5.98743E-09  5.97544E-09  6.29144E-09  6.68979E-09  7.66162E-09  7.37538E-09
   7.70067E-09  7.91230E-09  8.49568E-09  7.58835E-09  7.98774E-09  7.22800E-09  7.67931E-09  7.55454E-09  8.54186E-09  7.48780E-09
   7.89002E-09  7.13521E-09  7.91699E-09  7.39733E-09  7.22460E-09  6.60385E-09  5.98606E-09  6.05571E-09  6.05870E-09  5.68489E-09
   6.69270E-09  9.98701E-09  1.37654E-08  1.73515E-08  1.88862E-08  1.90459E-08  1.98142E-08  1.99049E-08  2.00043E-08  1.98490E-08
   2.04999E-08  2.01927E-08  2.05753E-08  2.01980E-08  2.07188E-08  2.05254E-08  2.04592E-08  2.00762E-08  2.03127E-08  1.99849E-08
   1.94201E-08  1.94008E-08  1.85207E-08  1.73694E-08  1.65487E-08  1.42106E-08  1.33522E-08  1.16817E-08  9.01685E-09  6.21316E-09
   4.10951E-09  1.23835E-09 -1.24913E-09 -3.49313E-09 -5.66744E-09 -7.95030E-09 -9.14813E-09 -1.04582E-08 -1.10183E-08 -1.13470E-08
  -1.11006E-08 -1.07266E-08 -1.00134E-08 -9.33373E-09 -7.68097E-09 -6.50255E-09 -5.24667E-09 -4.90646E-09 -3.20741E-09 -2.87798E-09
  -2.00775E-09 -2.02898E-09 -2.58827E-09 -1.98801E-09 -1.91859E-09 -2.20165E-09 -1.75014E-09 -1.81027E-09 -1.57676E-09 -1.37601E-09
  -1.49614E-09 -9.40176E-10 -9.36286E-10 -1.06456E-09 -9.23091E-10 -1.01185E-09 -1.48904E-09 -1.87587E-09 -1.22526E-09 -1.12073E-09
  -6.03808E-10 -7.23639E-10 -1.18256E-09 -7.13032E-10 -8.52820E-10 -6.55565E-10 -4.50711E-10 -1.46394E-09 -9.84519E-10 -1.76587E-09
  -1.08965E-09 -1.34715E-09 -1.64143E-09 -1.33969E-09 -5.40772E-10 -2.18388E-10 -9.00339E-10 -3.16635E-10  8.80224E-12  9.17489E-11
  -4.49810E-10 -4.01445E-10 -4.54394E-10 -5.23955E-10 -9.39401E-10 -8.91007E-10 -1.47850E-09 -1.66218E-09 -1.25167E-09 -2.11320E-09
  -1.72214E-09 -1.82505E-09 -1.68545E-09 -1.51663E-09 -1.71106E-09 -1.38962E-09 -1.09848E-09 -1.26875E-09 -8.14407E-10 -5.11100E-10
  -1.67798E-11  6.19640E-11 -4.14131E-10  1.09154E-10 -4.10739E-10 -5.26577E-10 -8.05671E-10 -3.44013E-10 -1.93580E-10 -8.06755E-10
  -6.22504E-10 -3.74341E-10 -7.01556E-10 -5.42613E-10 -5.54927E-10 -7.14924E-10 -8.06195E-10 -4.96187E-10 -8.30753E-10 -8.79708E-10
  -7.74531E-10 -5.54254E-10 -1.18988E-09 -5.49706E-10 -1.18261E-09 -1.17851E-09 -1.29511E-09 -1.11684E-09 -1.20443E-09 -9.47150E-10
  -1.16234E-09 -1.22537E-09 -1.38048E-09 -1.23531E-09 -1.72175E-09 -1.21266E-09 -1.56638E-09 -1.18791E-09 -1.70688E-09 -1.26436E-09
  -1.37943E-09 -1.35269E-09 -1.83919E-09 -1.55018E-09 -1.55651E-09 -1.70578E-09 -1.46092E-09 -1.54907E-09 -1.87640E-09 -1.70834E-09
  -1.43271E-09 -1.77641E-09 -1.69755E-09 -1.82361E-09 -1.81691E-09 -1.52817E-09 -1.89055E-09 -1.67149E-09 -2.00297E-09 -1.38808E-09
  -2.26941E-09 -1.64810E-09 -1.81473E-09 -1.54954E-09 -2.66498E-09 -2.09776E-09 -2.13589E-09 -1.66478E-09 -2.53249E-09 -2.05389E-09
  -2.06214E-09 -1.73156E-09 -1.70502E-09 -1.30451E-09 -2.59434E-09 -2.46263E-09 -2.42994E-09 -1.70999E-09 -2.54899E-09 -1.77509E-09
  -1.88596E-09 -2.34842E-09 -1.91600E-09 -3.13186E-09 -2.56818E-09 -2.41488E-09 -2.65403E-09 -2.01481E-09 -2.18489E-09 -2.06177E-09
  -2.44963E-09 -2.79922E-09 -2.60159E-09
 NY points of the fit to the data follow
   1.56197E-08  1.41504E-08  1.29832E-08  1.24500E-08  1.22912E-08  1.20497E-08  1.16291E-08  1.14658E-08  1.26373E-08  1.27301E-08
   1.22814E-08  1.19451E-08  1.16397E-08  1.18136E-08  1.23194E-08  1.27354E-08  1.34347E-08  1.41620E-08  1.39203E-08  1.21631E-08
   1.16298E-08  1.21294E-08  1.27653E-08  1.32759E-08  1.35268E-08  1.38314E-08  1.39476E-08  1.33758E-08  1.24390E-08  1.17655E-08
   1.14195E-08  1.07189E-08  1.01475E-08  9.80498E-09  9.58679E-09  9.24793E-09  9.12581E-09  9.22214E-09  9.22599E-09  9.08330E-09
   8.97885E-09  9.04261E-09  9.05768E-09  8.83271E-09  8.65969E-09  8.49992E-09  8.16099E-09  7.57585E-09  7.57013E-09  7.79301E-09
   8.19212E-09  8.55590E-09  8.71618E-09  8.98484E-09  9.46707E-09  9.63350E-09  9.81534E-09  1.03946E-08  1.06905E-08  1.04172E-08
   1.03184E-08  1.03241E-08  1.04434E-08  1.03330E-08  9.99458E-09  9.92966E-09  9.93920E-09  9.59652E-09  9.34805E-09  9.65945E-09
   1.01446E-08  1.05055E-08  1.09130E-08  1.12281E-08  1.17457E-08  1.26377E-08  1.39194E-08  1.46887E-08  1.47395E-08  1.44388E-08
   1.40531E-08  1.35777E-08  1.31641E-08  1.30913E-08  1.28887E-08  1.20037E-08  1.06086E-08  9.33549E-09  8.86986E-09  8.63076E-09
   8.41695E-09  8.28500E-09  8.22205E-09  8.05673E-09  7.84435E-09  7.79218E-09  7.67890E-09  7.50290E-09  7.43512E-09  7.39720E-09
   7.43954E-09  7.43136E-09  7.39169E-09  7.44705E-09  7.49219E-09  7.49797E-09  7.48878E-09  7.48307E-09  7.47204E-09  7.43036E-09
   7.34325E-09  7.25572E-09  7.25264E-09  7.18569E-09  7.06458E-09  7.01922E-09  6.99629E-09  6.98128E-09  6.96963E-09  6.95939E-09
   6.94961E-09  6.93974E-09  6.92940E-09  6.91835E-09  6.90641E-09  6.89344E-09  6.87932E-09  6.86398E-09  6.84733E-09  6.82930E-09
   6.80984E-09  6.78890E-09  6.76643E-09  6.74240E-09  6.71677E-09  6.68950E-09  6.66057E-09  6.62994E-09  6.59761E-09  6.56354E-09
   6.52774E-09  6.49020E-09  6.45090E-09  6.40987E-09  6.36709E-09  6.32262E-09  6.27649E-09  6.22886E-09  6.17985E-09  6.12967E-09
   6.07851E-09  6.02665E-09  5.97442E-09  5.92225E-09  5.87068E-09  5.82047E-09  5.77265E-09  5.72868E-09  5.69075E-09  5.66222E-09
   5.64858E-09  5.65940E-09  5.71280E-09  5.84735E-09  6.16049E-09  6.97460E-09  9.93688E-09  1.77711E-08  2.20684E-08  2.24523E-08
   2.14885E-08  2.07153E-08  2.05443E-08  2.09884E-08  2.19292E-08  2.25037E-08  2.08355E-08  1.51237E-08  7.67775E-09  5.66032E-09
   4.87030E-09  4.43125E-09  4.13498E-09  3.90980E-09  3.72478E-09  3.56453E-09  3.42058E-09  3.28790E-09  3.16333E-09  3.04480E-09
   2.93095E-09  2.82077E-09  2.71359E-09  2.60890E-09  2.50636E-09  2.40569E-09  2.30667E-09  2.20920E-09  2.11315E-09  2.01844E-09
   1.92502E-09  1.83286E-09  1.74196E-09  1.65228E-09  1.56384E-09  1.47665E-09  1.39073E-09  1.30608E-09  1.22274E-09  1.14077E-09
   1.06014E-09  9.80930E-10  9.03168E-10  8.26887E-10  7.52117E-10  6.78928E-10  6.07350E-10  5.37408E-10  4.69176E-10  4.02620E-10
   3.37727E-10  2.74448E-10  2.12779E-10  1.52673E-10  9.41265E-11  3.70840E-11 -1.84612E-11 -7.25360E-11 -1.25170E-10 -1.76382E-10
  -2.26214E-10 -2.74674E-10 -3.21790E-10 -3.67589E-10 -4.12099E-10 -4.55337E-10 -4.97335E-10 -5.38105E-10 -5.77684E-10 -6.16085E-10
  -6.53334E-10 -6.89471E-10 -7.24500E-10 -7.58451E-10 -7.91338E-10 -8.23198E-10 -8.54051E-10 -8.83922E-10 -9.12833E-10 -9.40794E-10
  -9.67857E-10 -9.94009E-10 -1.01932E-09 -1.04376E-09 -1.06737E-09 -1.09020E-09 -1.11225E-09 -1.13355E-09 -1.15411E-09 -1.17395E-09
  -1.19312E-09 -1.21163E-09 -1.22950E-09 -1.24677E-09 -1.26342E-09 -1.27951E-09 -1.29506E-09 -1.31007E-09 -1.32459E-09 -1.33863E-09
  -1.35221E-09 -1.36535E-09 -1.37810E-09 -1.39043E-09 -1.40243E-09 -1.41406E-09 -1.42539E-09 -1.43642E-09 -1.44716E-09 -1.45766E-09
  -1.46794E-09 -1.47800E-09 -1.48789E-09 -1.49761E-09 -1.50720E-09 -1.51667E-09 -1.52606E-09 -1.53535E-09 -1.54462E-09 -1.55386E-09
  -1.56308E-09 -1.57233E-09 -1.58159E-09 -1.59087E-09 -1.60015E-09 -1.60946E-09 -1.61877E-09 -1.62810E-09 -1.63745E-09 -1.64681E-09
  -1.65619E-09 -1.66558E-09 -1.67499E-09 -1.68442E-09 -1.69387E-09 -1.70333E-09 -1.71281E-09 -1.72231E-09 -1.73183E-09 -1.74137E-09
  -1.75093E-09 -1.76051E-09 -1.77011E-09 -1.77973E-09 -1.78938E-09 -1.79904E-09 -1.80873E-09 -1.81844E-09 -1.82817E-09 -1.83793E-09
  -1.84771E-09 -1.85751E-09 -1.86733E-09 -1.87719E-09 -1.88706E-09 -1.89696E-09 -1.90689E-09 -1.91685E-09 -1.92683E-09 -1.93683E-09
  -1.94687E-09 -1.95693E-09 -1.96702E-09 -1.97714E-09 -1.98729E-09 -1.99747E-09 -2.00767E-09 -2.01791E-09 -2.02818E-09 -2.03847E-09
  -2.04880E-09 -2.05916E-09 -2.06955E-09 -2.07997E-09 -2.09042E-09 -2.10091E-09 -2.11143E-09 -2.12199E-09 -2.13257E-09 -2.14319E-09
  -2.15385E-09 -2.16454E-09 -2.17526E-09 -2.18602E-09 -2.19682E-09 -2.20765E-09 -2.21852E-09 -2.22943E-09 -2.24037E-09 -2.25135E-09
  -2.26237E-09 -2.27343E-09 -2.28453E-09
 NY background values follow
     7.970E-10    8.530E-10    9.090E-10    9.650E-10    1.021E-09    1.077E-09    1.133E-09    1.189E-09    1.245E-09    1.302E-09
     1.358E-09    1.414E-09    1.470E-09    1.526E-09    1.582E-09    1.638E-09    1.694E-09    1.750E-09    1.805E-09    1.861E-09
     1.917E-09    1.973E-09    2.028E-09    2.084E-09    2.139E-09    2.194E-09    2.250E-09    2.305E-09    2.360E-09    2.415E-09
     2.470E-09    2.525E-09    2.579E-09    2.634E-09    2.688E-09    2.742E-09    2.796E-09    2.850E-09    2.904E-09    2.958E-09
     3.011E-09    3.065E-09    3.118E-09    3.171E-09    3.223E-09    3.276E-09    3.328E-09    3.381E-09    3.433E-09    3.484E-09
     3.536E-09    3.587E-09    3.638E-09    3.689E-09    3.740E-09    3.790E-09    3.841E-09    3.891E-09    3.940E-09    3.990E-09
     4.039E-09    4.088E-09    4.136E-09    4.185E-09    4.233E-09    4.280E-09    4.328E-09    4.375E-09    4.422E-09    4.468E-09
     4.515E-09    4.561E-09    4.606E-09    4.651E-09    4.696E-09    4.741E-09    4.785E-09    4.829E-09    4.872E-09    4.915E-09
     4.957E-09    4.999E-09    5.040E-09    5.080E-09    5.120E-09    5.160E-09    5.199E-09    5.237E-09    5.274E-09    5.310E-09
     5.346E-09    5.381E-09    5.415E-09    5.449E-09    5.481E-09    5.513E-09    5.544E-09    5.574E-09    5.602E-09    5.630E-09
     5.657E-09    5.683E-09    5.707E-09    5.731E-09    5.753E-09    5.775E-09    5.795E-09    5.814E-09    5.832E-09    5.848E-09
     5.863E-09    5.877E-09    5.890E-09    5.901E-09    5.911E-09    5.919E-09    5.926E-09    5.932E-09    5.936E-09    5.939E-09
     5.940E-09    5.939E-09    5.937E-09    5.933E-09    5.928E-09    5.921E-09    5.912E-09    5.902E-09    5.890E-09    5.876E-09
     5.860E-09    5.843E-09    5.824E-09    5.802E-09    5.779E-09    5.754E-09    5.727E-09    5.699E-09    5.668E-09    5.635E-09
     5.600E-09    5.563E-09    5.524E-09    5.482E-09    5.439E-09    5.393E-09    5.346E-09    5.296E-09    5.244E-09    5.190E-09
     5.134E-09    5.076E-09    5.016E-09    4.955E-09    4.891E-09    4.826E-09    4.760E-09    4.691E-09    4.621E-09    4.550E-09
     4.477E-09    4.403E-09    4.328E-09    4.251E-09    4.173E-09    4.093E-09    4.013E-09    3.932E-09    3.849E-09    3.766E-09
     3.681E-09    3.596E-09    3.510E-09    3.423E-09    3.336E-09    3.248E-09    3.159E-09    3.070E-09    2.980E-09    2.890E-09
     2.799E-09    2.708E-09    2.617E-09    2.525E-09    2.433E-09    2.342E-09    2.250E-09    2.158E-09    2.066E-09    1.974E-09
     1.882E-09    1.791E-09    1.700E-09    1.609E-09    1.518E-09    1.428E-09    1.338E-09    1.249E-09    1.160E-09    1.072E-09
     9.848E-10    8.981E-10    8.122E-10    7.270E-10    6.428E-10    5.595E-10    4.771E-10    3.958E-10    3.156E-10    2.365E-10
     1.586E-10    8.195E-11    6.585E-12   -6.743E-11   -1.401E-10   -2.112E-10   -2.809E-10   -3.490E-10   -4.155E-10   -4.804E-10
    -5.437E-10   -6.055E-10   -6.657E-10   -7.244E-10   -7.816E-10   -8.374E-10   -8.917E-10   -9.445E-10   -9.960E-10   -1.046E-09
    -1.095E-09   -1.142E-09   -1.188E-09   -1.233E-09   -1.277E-09   -1.319E-09   -1.360E-09   -1.400E-09   -1.439E-09   -1.476E-09
    -1.513E-09   -1.548E-09   -1.582E-09   -1.616E-09   -1.648E-09   -1.679E-09   -1.709E-09   -1.738E-09   -1.767E-09   -1.794E-09
    -1.820E-09   -1.846E-09   -1.870E-09   -1.894E-09   -1.917E-09   -1.940E-09   -1.961E-09   -1.982E-09   -2.002E-09   -2.021E-09
    -2.040E-09   -2.058E-09   -2.075E-09   -2.092E-09   -2.108E-09   -2.123E-09   -2.138E-09   -2.153E-09   -2.167E-09   -2.181E-09
    -2.194E-09   -2.206E-09   -2.219E-09   -2.230E-09   -2.242E-09   -2.253E-09   -2.264E-09   -2.275E-09   -2.285E-09   -2.295E-09
    -2.305E-09   -2.314E-09   -2.324E-09   -2.333E-09   -2.342E-09   -2.351E-09   -2.360E-09   -2.369E-09   -2.378E-09   -2.387E-09
    -2.396E-09   -2.404E-09   -2.413E-09   -2.422E-09   -2.431E-09   -2.440E-09   -2.449E-09   -2.458E-09   -2.467E-09   -2.476E-09
    -2.485E-09   -2.493E-09   -2.503E-09   -2.512E-09   -2.521E-09   -2.530E-09   -2.539E-09   -2.548E-09   -2.557E-09   -2.566E-09
    -2.575E-09   -2.584E-09   -2.594E-09   -2.603E-09   -2.612E-09   -2.621E-09   -2.631E-09   -2.640E-09   -2.649E-09   -2.659E-09
    -2.668E-09   -2.677E-09   -2.687E-09   -2.696E-09   -2.706E-09   -2.715E-09   -2.725E-09   -2.734E-09   -2.744E-09   -2.754E-09
    -2.763E-09   -2.773E-09   -2.783E-09   -2.792E-09   -2.802E-09   -2.812E-09   -2.822E-09   -2.831E-09   -2.841E-09   -2.851E-09
    -2.861E-09   -2.871E-09   -2.881E-09   -2.891E-09   -2.901E-09   -2.911E-09   -2.921E-09   -2.931E-09   -2.942E-09   -2.952E-09
    -2.962E-09   -2.972E-09   -2.983E-09   -2.993E-09   -3.003E-09   -3.014E-09   -3.024E-09   -3.035E-09   -3.045E-09   -3.056E-09
    -3.066E-09   -3.077E-09   -3.088E-09
 Ala      Conc. = 1.27E-10
   8.90840E-10  9.54128E-10  1.01107E-09  1.06901E-09  1.12548E-09  1.18127E-09  1.23403E-09  1.27524E-09  1.32185E-09  1.37929E-09
   1.42028E-09  1.46042E-09  1.51372E-09  1.56299E-09  1.61070E-09  1.66181E-09  1.71459E-09  1.76826E-09  1.82246E-09  1.87700E-09
   1.93173E-09  1.98660E-09  2.04154E-09  2.09652E-09  2.15150E-09  2.20647E-09  2.26140E-09  2.31629E-09  2.37111E-09  2.42586E-09
   2.48052E-09  2.53509E-09  2.58956E-09  2.64392E-09  2.69817E-09  2.75228E-09  2.80628E-09  2.86014E-09  2.91384E-09  2.96741E-09
   3.02082E-09  3.07408E-09  3.12716E-09  3.18008E-09  3.23281E-09  3.28536E-09  3.33773E-09  3.38990E-09  3.44188E-09  3.49364E-09
   3.54521E-09  3.59655E-09  3.64768E-09  3.69858E-09  3.74924E-09  3.79968E-09  3.84988E-09  3.89981E-09  3.94952E-09  3.99897E-09
   4.04815E-09  4.09707E-09  4.14571E-09  4.19409E-09  4.24218E-09  4.28999E-09  4.33750E-09  4.38473E-09  4.43166E-09  4.47828E-09
   4.52460E-09  4.57061E-09  4.61630E-09  4.66167E-09  4.70671E-09  4.75138E-09  4.79568E-09  4.83957E-09  4.88303E-09  4.92604E-09
   4.96858E-09  5.01063E-09  5.05218E-09  5.09319E-09  5.13367E-09  5.17359E-09  5.21295E-09  5.25176E-09  5.29001E-09  5.32772E-09
   5.36493E-09  5.40170E-09  5.43814E-09  5.47443E-09  5.51087E-09  5.54802E-09  5.58696E-09  5.63012E-09  5.68400E-09  5.77273E-09
   5.92921E-09  5.99547E-09  6.02461E-09  6.14156E-09  6.23502E-09  6.27976E-09  6.30309E-09  6.32493E-09  6.33809E-09  6.31754E-09
   6.24903E-09  6.17814E-09  6.18999E-09  6.13651E-09  6.02758E-09  5.99323E-09  5.98030E-09  5.97444E-09  5.97119E-09  5.96870E-09
   5.96606E-09  5.96277E-09  5.95852E-09  5.95310E-09  5.94638E-09  5.93824E-09  5.92861E-09  5.91742E-09  5.90461E-09  5.89013E-09
   5.87395E-09  5.85602E-09  5.83630E-09  5.81477E-09  5.79138E-09  5.76612E-09  5.73894E-09  5.70981E-09  5.67872E-09  5.64563E-09
   5.61052E-09  5.57334E-09  5.53409E-09  5.49274E-09  5.44924E-09  5.40359E-09  5.35577E-09  5.30584E-09  5.25384E-09  5.19983E-09
   5.14387E-09  5.08601E-09  5.02629E-09  4.96479E-09  4.90156E-09  4.83665E-09  4.77014E-09  4.70209E-09  4.63259E-09  4.56171E-09
   4.48957E-09  4.41635E-09  4.34229E-09  4.26788E-09  4.19427E-09  4.12507E-09  4.07819E-09  4.09307E-09  4.06524E-09  3.98817E-09
   3.89311E-09  3.79925E-09  3.71184E-09  3.63109E-09  3.55597E-09  3.47665E-09  3.37090E-09  3.21569E-09  3.03482E-09  2.92063E-09
   2.82149E-09  2.72632E-09  2.63259E-09  2.53949E-09  2.44669E-09  2.35406E-09  2.26154E-09  2.16916E-09  2.07688E-09  1.98475E-09
   1.89283E-09  1.80112E-09  1.70969E-09  1.61857E-09  1.52783E-09  1.43750E-09  1.34762E-09  1.25828E-09  1.16951E-09  1.08134E-09
   9.93844E-10  9.07071E-10  8.21074E-10  7.35900E-10  6.51598E-10  5.68235E-10  4.85852E-10  4.04499E-10  3.24226E-10  2.45113E-10
   1.67168E-10  9.04781E-11  1.50866E-11 -5.89591E-11 -1.31616E-10 -2.02804E-10 -2.72485E-10 -3.40623E-10 -4.07138E-10 -4.72057E-10
  -5.35387E-10 -5.97172E-10 -6.57409E-10 -7.16142E-10 -7.73370E-10 -8.29144E-10 -8.83469E-10 -9.36368E-10 -9.87868E-10 -1.03798E-09
  -1.08676E-09 -1.13419E-09 -1.18031E-09 -1.22515E-09 -1.26873E-09 -1.31106E-09 -1.35217E-09 -1.39209E-09 -1.43083E-09 -1.46842E-09
  -1.50487E-09 -1.54023E-09 -1.57451E-09 -1.60772E-09 -1.63988E-09 -1.67104E-09 -1.70120E-09 -1.73039E-09 -1.75864E-09 -1.78595E-09
  -1.81237E-09 -1.83790E-09 -1.86259E-09 -1.88642E-09 -1.90944E-09 -1.93169E-09 -1.95316E-09 -1.97389E-09 -1.99389E-09 -2.01318E-09
  -2.03180E-09 -2.04978E-09 -2.06712E-09 -2.08386E-09 -2.10000E-09 -2.11558E-09 -2.13064E-09 -2.14514E-09 -2.15917E-09 -2.17273E-09
  -2.18583E-09 -2.19849E-09 -2.21076E-09 -2.22263E-09 -2.23416E-09 -2.24534E-09 -2.25621E-09 -2.26679E-09 -2.27708E-09 -2.28713E-09
  -2.29697E-09 -2.30660E-09 -2.31605E-09 -2.32534E-09 -2.33450E-09 -2.34354E-09 -2.35251E-09 -2.36138E-09 -2.37022E-09 -2.37905E-09
  -2.38786E-09 -2.39670E-09 -2.40554E-09 -2.41441E-09 -2.42329E-09 -2.43218E-09 -2.44109E-09 -2.45002E-09 -2.45896E-09 -2.46792E-09
  -2.47690E-09 -2.48590E-09 -2.49491E-09 -2.50394E-09 -2.51299E-09 -2.52206E-09 -2.53115E-09 -2.54026E-09 -2.54938E-09 -2.55853E-09
  -2.56770E-09 -2.57688E-09 -2.58609E-09 -2.59532E-09 -2.60458E-09 -2.61385E-09 -2.62315E-09 -2.63246E-09 -2.64180E-09 -2.65117E-09
  -2.66056E-09 -2.66997E-09 -2.67940E-09 -2.68887E-09 -2.69835E-09 -2.70786E-09 -2.71740E-09 -2.72696E-09 -2.73655E-09 -2.74616E-09
  -2.75580E-09 -2.76547E-09 -2.77516E-09 -2.78488E-09 -2.79463E-09 -2.80441E-09 -2.81422E-09 -2.82406E-09 -2.83392E-09 -2.84382E-09
  -2.85374E-09 -2.86369E-09 -2.87368E-09 -2.88370E-09 -2.89374E-09 -2.90382E-09 -2.91393E-09 -2.92407E-09 -2.93425E-09 -2.94445E-09
  -2.95469E-09 -2.96497E-09 -2.97527E-09 -2.98561E-09 -2.99599E-09 -3.00639E-09 -3.01684E-09 -3.02732E-09 -3.03783E-09 -3.04838E-09
  -3.05897E-09 -3.06959E-09 -3.08025E-09
 Asp      Conc. = 9.61E-10
   1.80875E-09  1.71292E-09  1.67309E-09  1.60892E-09  1.58850E-09  1.51914E-09  1.44268E-09  1.39041E-09  1.39731E-09  1.42592E-09
   1.46464E-09  1.50921E-09  1.55811E-09  1.61041E-09  1.66354E-09  1.71728E-09  1.77171E-09  1.82672E-09  1.88225E-09  1.93823E-09
   1.99463E-09  2.05142E-09  2.10862E-09  2.16624E-09  2.22434E-09  2.28297E-09  2.34225E-09  2.40232E-09  2.46340E-09  2.52579E-09
   2.58993E-09  2.65656E-09  2.72682E-09  2.80283E-09  2.88895E-09  2.99614E-09  3.15049E-09  3.26913E-09  3.39521E-09  3.45711E-09
   3.48994E-09  3.54986E-09  3.70813E-09  3.97241E-09  4.30848E-09  4.65662E-09  4.72046E-09  4.61807E-09  4.72988E-09  4.87009E-09
   5.02765E-09  5.19172E-09  5.26937E-09  5.16517E-09  4.93760E-09  4.73310E-09  4.62926E-09  4.71633E-09  4.71060E-09  4.56021E-09
   4.51412E-09  4.49482E-09  4.46878E-09  4.51323E-09  4.58489E-09  4.60893E-09  4.57970E-09  4.58277E-09  4.60116E-09  4.62745E-09
   4.65841E-09  4.69233E-09  4.72823E-09  4.76550E-09  4.80371E-09  4.84255E-09  4.88178E-09  4.92124E-09  4.96078E-09  5.00028E-09
   5.03964E-09  5.07879E-09  5.11765E-09  5.15616E-09  5.19426E-09  5.23191E-09  5.26905E-09  5.30564E-09  5.34164E-09  5.37702E-09
   5.41172E-09  5.44573E-09  5.47900E-09  5.51150E-09  5.54320E-09  5.57406E-09  5.60406E-09  5.63317E-09  5.66136E-09  5.68859E-09
   5.71484E-09  5.74008E-09  5.76428E-09  5.78741E-09  5.80946E-09  5.83038E-09  5.85014E-09  5.86874E-09  5.88613E-09  5.90229E-09
   5.91720E-09  5.93082E-09  5.94313E-09  5.95411E-09  5.96372E-09  5.97194E-09  5.97874E-09  5.98411E-09  5.98800E-09  5.99040E-09
   5.99128E-09  5.99061E-09  5.98837E-09  5.98454E-09  5.97907E-09  5.97196E-09  5.96317E-09  5.95268E-09  5.94047E-09  5.92650E-09
   5.91075E-09  5.89320E-09  5.87382E-09  5.85259E-09  5.82947E-09  5.80446E-09  5.77751E-09  5.74861E-09  5.71774E-09  5.68486E-09
   5.64996E-09  5.61301E-09  5.57398E-09  5.53287E-09  5.48964E-09  5.44427E-09  5.39677E-09  5.34719E-09  5.29559E-09  5.24204E-09
   5.18660E-09  5.12936E-09  5.07037E-09  5.00974E-09  4.94756E-09  4.88394E-09  4.81902E-09  4.75299E-09  4.68608E-09  4.61865E-09
   4.55121E-09  4.48466E-09  4.42062E-09  4.36246E-09  4.31853E-09  4.31578E-09  4.48799E-09  5.13181E-09  5.46330E-09  5.42969E-09
   5.26539E-09  5.11510E-09  5.01853E-09  4.97715E-09  4.98257E-09  4.96071E-09  4.74393E-09  4.15866E-09  3.38228E-09  3.10902E-09
   2.95352E-09  2.83071E-09  2.72084E-09  2.61729E-09  2.51724E-09  2.41932E-09  2.32280E-09  2.22730E-09  2.13253E-09  2.03838E-09
   1.94478E-09  1.85166E-09  1.75903E-09  1.66689E-09  1.57527E-09  1.48416E-09  1.39360E-09  1.30366E-09  1.21435E-09  1.12570E-09
   1.03777E-09  9.50606E-10  8.64252E-10  7.78753E-10  6.94153E-10  6.10516E-10  5.27881E-10  4.46294E-10  3.65804E-10  2.86490E-10
   2.08356E-10  1.31491E-10  5.59350E-11 -1.82651E-11 -9.10677E-11 -1.62393E-10 -2.32203E-10 -3.00463E-10 -3.67093E-10 -4.32123E-10
  -4.95558E-10 -5.57443E-10 -6.17775E-10 -6.76599E-10 -7.33914E-10 -7.89772E-10 -8.44176E-10 -8.97152E-10 -9.48726E-10 -9.98913E-10
