 LCModel (Version 6.3-1R) Copyright: S.W. Provencher.          Ref.: Magn. Reson. Med. 30:672-679 (1993).                
 onepulse 27x19_ftSpec_smooth_lcm
 26 lines in following concentration table = NCONC+1
    Conc.  %SD   /Cr    Metabolite                                         
    0.000 999%   0.000 Ala                                                 
    0.000 999%   0.000 Asp                                                 
    0.000 999%   0.000 Cr                                                  
    0.000 999%   0.000 GABA                                                
    0.000 999%   0.000 Glc                                                 
 1.70E-09  63%   0.000 Gln                                                 
    0.000 999%   0.000 Glu                                                 
    0.000 999%   0.000 Glyc                                                
 2.35E-11 999%   0.000 GPC                                                 
 1.66E-10 380%   0.000 GSH                                                 
 1.87E-09  25%   0.000 Ins                                                 
    0.000 999%   0.000 Lac                                                 
 4.43E-10  75%   0.000 NAAG                                                
    0.000 999%   0.000 NAA                                                 
    0.000 999%   0.000 PCh                                                 
    0.000 999%   0.000 PCr                                                 
 1.04E-09 226%   0.000 PE                                                  
 3.12E-10  84%   0.000 Scyllo                                              
 6.35E-09  38%   0.000 Ser                                                 
    0.000 999%   0.000 Tau                                                 
 2.35E-11 999%   0.000 GPC+PCh                                             
 4.43E-10  75%   0.000 NAA+NAAG                                            
 1.87E-09  25%   0.000 Ins+Glyc                                            
    0.000 999%   0.000 Cr+PCr                                              
 1.70E-09  63%   0.000 Glu+Gln                                             
   6 lines in following misc. output table
  FWHM = 0.123 ppm    S/N =   2                                            
  Data shift = 0.425 ppm                                                   
  Ph: -18 deg     -31.3 deg/ppm                                            
  alphaB,S = 1.0E+00,   1.4E+01                                            
    8 spline knots.   Ns = 5(1)                                            
  (10) 4 infls.   ( 9) 3 extrs.                                            
  363 points on ppm-axis = NY
      4.250000     4.238821     4.227641     4.216462     4.205282     4.194103     4.182923     4.171744     4.160564     4.149385
      4.138206     4.127026     4.115847     4.104667     4.093488     4.082308     4.071129     4.059949     4.048770     4.037591
      4.026411     4.015232     4.004052     3.992873     3.981693     3.970514     3.959334     3.948155     3.936975     3.925796
      3.914617     3.903437     3.892258     3.881078     3.869899     3.858719     3.847540     3.836360     3.825181     3.814002
      3.802822     3.791643     3.780463     3.769284     3.758104     3.746925     3.735745     3.724566     3.713387     3.702207
      3.691028     3.679848     3.668669     3.657489     3.646310     3.635130     3.623951     3.612772     3.601592     3.590413
      3.579233     3.568054     3.556874     3.545695     3.534515     3.523336     3.512156     3.500977     3.489798     3.478618
      3.467439     3.456259     3.445080     3.433900     3.422721     3.411541     3.400362     3.389183     3.378003     3.366824
      3.355644     3.344465     3.333285     3.322106     3.310926     3.299747     3.288568     3.277388     3.266209     3.255029
      3.243850     3.232670     3.221491     3.210311     3.199132     3.187953     3.176773     3.165594     3.154414     3.143235
      3.132055     3.120876     3.109696     3.098517     3.087337     3.076158     3.064979     3.053799     3.042620     3.031440
      3.020261     3.009081     2.997902     2.986722     2.975543     2.964364     2.953184     2.942005     2.930825     2.919646
      2.908466     2.897287     2.886107     2.874928     2.863749     2.852569     2.841390     2.830210     2.819031     2.807851
      2.796672     2.785492     2.774313     2.763134     2.751954     2.740775     2.729595     2.718416     2.707236     2.696057
      2.684877     2.673698     2.662519     2.651339     2.640160     2.628980     2.617801     2.606621     2.595442     2.584262
      2.573083     2.561903     2.550724     2.539545     2.528365     2.517186     2.506006     2.494827     2.483647     2.472468
      2.461288     2.450109     2.438930     2.427750     2.416571     2.405391     2.394212     2.383032     2.371853     2.360673
      2.349494     2.338315     2.327135     2.315956     2.304776     2.293597     2.282417     2.271238     2.260058     2.248879
      2.237700     2.226520     2.215341     2.204161     2.192982     2.181802     2.170623     2.159443     2.148264     2.137084
      2.125905     2.114726     2.103546     2.092367     2.081187     2.070008     2.058828     2.047649     2.036469     2.025290
      2.014111     2.002931     1.991752     1.980572     1.969393     1.958213     1.947034     1.935854     1.924675     1.913496
      1.902316     1.891137     1.879957     1.868778     1.857598     1.846419     1.835239     1.824060     1.812881     1.801701
      1.790522     1.779342     1.768163     1.756983     1.745804     1.734624     1.723445     1.712265     1.701086     1.689907
      1.678727     1.667548     1.656368     1.645189     1.634009     1.622830     1.611650     1.600471     1.589292     1.578112
      1.566933     1.555753     1.544574     1.533394     1.522215     1.511035     1.499856     1.488677     1.477497     1.466318
      1.455138     1.443959     1.432779     1.421600     1.410420     1.399241     1.388062     1.376882     1.365703     1.354523
      1.343344     1.332164     1.320985     1.309805     1.298626     1.287446     1.276267     1.265088     1.253908     1.242729
      1.231549     1.220370     1.209190     1.198011     1.186831     1.175652     1.164473     1.153293     1.142114     1.130934
      1.119755     1.108575     1.097396     1.086216     1.075037     1.063858     1.052678     1.041499     1.030319     1.019140
      1.007960     0.996781     0.985601     0.974422     0.963243     0.952063     0.940884     0.929704     0.918525     0.907345
      0.896166     0.884986     0.873807     0.862628     0.851448     0.840269     0.829089     0.817910     0.806730     0.795551
      0.784371     0.773192     0.762012     0.750833     0.739654     0.728474     0.717295     0.706115     0.694936     0.683756
      0.672577     0.661397     0.650218     0.639039     0.627859     0.616680     0.605500     0.594321     0.583141     0.571962
      0.560782     0.549603     0.538424     0.527244     0.516065     0.504885     0.493706     0.482526     0.471347     0.460167
      0.448988     0.437809     0.426629     0.415450     0.404270     0.393091     0.381911     0.370732     0.359552     0.348373
      0.337193     0.326014     0.314835     0.303655     0.292476     0.281296     0.270117     0.258937     0.247758     0.236578
      0.225399     0.214220     0.203040
 NY phased data points follow
   9.83010E-09  9.46961E-09  1.00377E-08  7.97569E-09  9.29456E-09  8.23323E-09  8.65712E-09  8.38900E-09  9.43978E-09  8.62766E-09
   9.98751E-09  9.25188E-09  9.90054E-09  9.13189E-09  1.04353E-08  8.92337E-09  9.99293E-09  8.89427E-09  8.78557E-09  9.08223E-09
   1.02462E-08  9.47617E-09  9.41026E-09  9.03733E-09  1.02349E-08  9.35113E-09  1.15125E-08  1.14366E-08  1.34501E-08  1.25343E-08
   1.32500E-08  1.24637E-08  1.22856E-08  1.16188E-08  1.19900E-08  1.05830E-08  1.11781E-08  1.04612E-08  1.11084E-08  1.00582E-08
   1.02759E-08  9.03493E-09  9.85746E-09  8.52823E-09  9.12076E-09  8.39379E-09  8.74736E-09  8.09008E-09  8.08735E-09  7.19049E-09
   7.49904E-09  6.02766E-09  6.94894E-09  5.14069E-09  6.32999E-09  5.31638E-09  7.04480E-09  7.19845E-09  1.04710E-08  1.04481E-08
   1.22441E-08  1.12097E-08  1.17026E-08  1.04973E-08  1.08108E-08  9.36503E-09  9.52313E-09  7.94292E-09  7.67976E-09  6.72814E-09
   6.39394E-09  4.65580E-09  6.98038E-09  7.64796E-09  1.09779E-08  1.06879E-08  1.34018E-08  1.30217E-08  1.49577E-08  1.36659E-08
   1.43657E-08  1.37956E-08  1.43618E-08  1.37653E-08  1.44179E-08  1.31120E-08  1.39430E-08  1.31834E-08  1.32552E-08  1.24874E-08
   1.30540E-08  1.11371E-08  1.26157E-08  1.09329E-08  1.20219E-08  1.10611E-08  1.16285E-08  1.10659E-08  1.17272E-08  1.09394E-08
   1.18221E-08  1.07116E-08  1.10225E-08  1.03718E-08  1.02647E-08  8.55584E-09  9.83692E-09  8.45698E-09  9.67317E-09  8.24378E-09
   9.10456E-09  8.05405E-09  9.44489E-09  8.93062E-09  9.96107E-09  8.68447E-09  9.43868E-09  8.35328E-09  9.04549E-09  7.43814E-09
   7.42985E-09  6.82361E-09  7.47003E-09  7.10622E-09  7.28117E-09  6.67087E-09  6.76899E-09  7.13040E-09  6.48511E-09  5.81597E-09
   6.30730E-09  5.41729E-09  5.80099E-09  5.55333E-09  6.15129E-09  6.17172E-09  6.14513E-09  6.46339E-09  6.57700E-09  6.65587E-09
   7.96654E-09  7.73841E-09  8.08108E-09  7.46410E-09  8.39367E-09  8.54494E-09  8.57659E-09  8.18931E-09  9.06905E-09  8.01437E-09
   8.63173E-09  9.35693E-09  8.97431E-09  9.44675E-09  8.94260E-09  9.13044E-09  9.57337E-09  8.76133E-09  8.79583E-09  8.60517E-09
   9.47357E-09  9.49425E-09  1.13435E-08  1.22019E-08  1.55805E-08  1.75366E-08  2.01397E-08  2.12542E-08  2.22842E-08  2.22029E-08
   2.18587E-08  2.13667E-08  2.12094E-08  2.06231E-08  2.05982E-08  1.98815E-08  1.98978E-08  1.97399E-08  1.90830E-08  1.83577E-08
   1.87302E-08  1.85476E-08  1.74272E-08  1.66737E-08  1.65883E-08  1.43402E-08  1.39513E-08  1.27672E-08  1.07334E-08  8.88360E-09
   7.08277E-09  4.01071E-09  1.45612E-09 -1.78309E-09 -4.37677E-09 -7.87340E-09 -1.10482E-08 -1.39172E-08 -1.63574E-08 -1.83779E-08
  -1.95916E-08 -2.12075E-08 -2.15020E-08 -2.14839E-08 -1.99252E-08 -1.89782E-08 -1.78657E-08 -1.55396E-08 -1.33520E-08 -1.13319E-08
  -8.60163E-09 -6.47019E-09 -4.96303E-09 -3.37813E-09 -2.70311E-09 -2.59887E-09 -2.16559E-09 -2.21906E-09 -2.15096E-09 -2.31612E-09
  -2.18053E-09 -2.91040E-09 -1.92599E-09 -1.82401E-09 -1.79735E-09 -1.56751E-09 -1.04855E-09 -1.04837E-09 -1.05889E-09 -1.62396E-09
  -1.66527E-09 -1.60186E-09 -1.03691E-09 -1.53416E-09 -1.02025E-09 -1.30976E-09 -4.56971E-10 -9.27599E-10 -7.50235E-11 -9.08180E-10
  -1.07675E-09 -7.75235E-10 -9.03727E-10 -1.36007E-09 -1.04809E-09 -9.99175E-10 -2.56417E-10 -5.93269E-10  7.35946E-11 -1.06611E-09
   1.27422E-10  4.26901E-10  3.76589E-10 -3.68429E-10  1.96778E-10 -4.58958E-10 -4.73307E-10 -1.08581E-09 -4.81355E-10 -1.56920E-09
  -1.05442E-09 -1.14328E-09 -6.58269E-10 -7.83527E-10  1.59344E-10 -3.86383E-10 -4.09924E-10  3.04271E-10  4.89008E-10 -6.95184E-11
   1.81307E-10  8.31396E-10  1.05924E-09  9.51582E-11  5.57762E-10  7.35727E-10  3.68548E-10 -1.04611E-10  2.64440E-10 -4.77698E-10
   7.74433E-10 -5.68048E-10  2.62533E-10 -2.38594E-10  3.84251E-10 -9.55121E-10  4.66583E-10 -5.25958E-10  7.41105E-11  2.40230E-10
   1.85766E-10 -3.51207E-10 -6.72808E-11 -6.92248E-11 -6.03669E-10 -1.03337E-10 -5.46480E-10 -1.63997E-10  7.96150E-11 -6.72106E-10
  -2.49810E-10 -3.57629E-10 -5.07409E-10 -4.02564E-10 -1.92800E-10 -5.35571E-10 -3.30233E-10 -7.13465E-10 -2.99399E-10 -4.32714E-10
  -3.69308E-10 -5.42479E-10  1.79118E-10 -5.10445E-10 -3.55764E-10 -9.04754E-10  2.56552E-11 -8.53748E-10 -1.38281E-10 -7.00329E-10
  -4.00696E-10 -5.81134E-10 -1.53513E-11  1.83679E-10 -6.68481E-10 -4.65534E-10 -1.28557E-10 -3.38604E-10 -6.47964E-11 -5.69534E-10
  -5.64281E-11 -1.16690E-10 -4.43606E-11 -7.54329E-10  5.09781E-10 -1.78466E-10 -1.83603E-10 -5.37146E-10  3.40474E-11 -6.40878E-10
  -1.78662E-10 -5.45304E-10  2.68580E-10 -1.54328E-10  3.92532E-10 -2.68110E-10 -1.49023E-10 -2.73462E-10  4.00892E-10  2.35883E-10
   1.91123E-10  1.38349E-11  5.47871E-10 -4.84420E-10  3.28231E-10 -3.75611E-10  7.15787E-10  1.07332E-10  7.38581E-10  2.17971E-10
   3.61468E-10 -2.16405E-11  9.22501E-10
 NY points of the fit to the data follow
   9.05804E-09  1.09950E-08  9.72075E-09  8.88360E-09  9.03971E-09  1.02599E-08  1.01216E-08  8.29083E-09  7.59130E-09  8.24626E-09
   8.96966E-09  9.12146E-09  8.94647E-09  9.01330E-09  9.43723E-09  9.45802E-09  8.59450E-09  8.41877E-09  1.01572E-08  1.07559E-08
   9.96267E-09  9.30939E-09  9.34272E-09  9.35670E-09  9.40997E-09  9.83311E-09  1.08233E-08  1.21132E-08  1.29202E-08  1.22505E-08
   1.20676E-08  1.22265E-08  1.21093E-08  1.18218E-08  1.17296E-08  1.14262E-08  1.09474E-08  1.04135E-08  1.00075E-08  9.67529E-09
   9.40247E-09  9.20318E-09  9.03841E-09  8.93021E-09  8.78040E-09  8.53184E-09  8.33497E-09  8.14964E-09  7.93687E-09  7.79256E-09
   7.66712E-09  7.57296E-09  7.38411E-09  7.16389E-09  7.31074E-09  7.80794E-09  7.95464E-09  8.38558E-09  9.14764E-09  9.65268E-09
   9.86791E-09  1.01447E-08  1.04211E-08  1.07348E-08  1.08612E-08  1.06214E-08  1.04520E-08  1.04823E-08  9.97626E-09  9.43576E-09
   9.18559E-09  9.29574E-09  9.47241E-09  9.42242E-09  9.56902E-09  1.00170E-08  1.13551E-08  1.26452E-08  1.34924E-08  1.40190E-08
   1.44438E-08  1.47099E-08  1.46137E-08  1.46815E-08  1.50645E-08  1.51649E-08  1.48209E-08  1.37615E-08  1.30386E-08  1.25547E-08
   1.21702E-08  1.18540E-08  1.16031E-08  1.13962E-08  1.12080E-08  1.10288E-08  1.08718E-08  1.07388E-08  1.06149E-08  1.04819E-08
   1.03570E-08  1.02546E-08  1.01603E-08  1.00614E-08  9.96722E-09  9.87827E-09  9.79347E-09  9.71223E-09  9.63333E-09  9.55637E-09
   9.48111E-09  9.40713E-09  9.33417E-09  9.26194E-09  9.19022E-09  9.11880E-09  9.04750E-09  8.97615E-09  8.90455E-09  8.83266E-09
   8.76023E-09  8.68723E-09  8.61352E-09  8.53901E-09  8.46360E-09  8.38720E-09  8.30970E-09  8.23110E-09  8.15127E-09  8.07014E-09
   7.98766E-09  7.90375E-09  7.81838E-09  7.73148E-09  7.64299E-09  7.55281E-09  7.46102E-09  7.36744E-09  7.27209E-09  7.17488E-09
   7.07582E-09  6.97484E-09  6.87191E-09  6.76696E-09  6.66000E-09  6.55098E-09  6.43990E-09  6.32681E-09  6.21176E-09  6.09484E-09
   5.97614E-09  5.85578E-09  5.73390E-09  5.61073E-09  5.48653E-09  5.36172E-09  5.23691E-09  5.11304E-09  4.99163E-09  4.87520E-09
   4.76824E-09  4.67928E-09  4.62592E-09  4.64941E-09  4.86531E-09  5.70673E-09  9.71380E-09  1.95045E-08  2.42781E-08  2.43671E-08
   2.29806E-08  2.18392E-08  2.11984E-08  2.10236E-08  2.14975E-08  2.23810E-08  2.16592E-08  1.59881E-08  7.67008E-09  5.32293E-09
   4.32936E-09  3.74453E-09  3.33345E-09  3.01259E-09  2.74489E-09  2.51145E-09  2.30163E-09  2.10900E-09  1.92931E-09  1.75985E-09
   1.59872E-09  1.44448E-09  1.29619E-09  1.15309E-09  1.01468E-09  8.80492E-10  7.50202E-10  6.23638E-10  5.00580E-10  3.80854E-10
   2.64387E-10  1.51100E-10  4.09482E-11 -6.61272E-11 -1.70167E-10 -2.71134E-10 -3.69071E-10 -4.63976E-10 -5.55850E-10 -6.44614E-10
  -7.30352E-10 -8.12968E-10 -8.92461E-10 -9.68818E-10 -1.04204E-09 -1.11203E-09 -1.17881E-09 -1.24237E-09 -1.30264E-09 -1.35971E-09
  -1.41361E-09 -1.46443E-09 -1.51221E-09 -1.55704E-09 -1.59895E-09 -1.63804E-09 -1.67435E-09 -1.70795E-09 -1.73891E-09 -1.76727E-09
  -1.79313E-09 -1.81652E-09 -1.83752E-09 -1.85619E-09 -1.87259E-09 -1.88678E-09 -1.89884E-09 -1.90882E-09 -1.91678E-09 -1.92279E-09
  -1.92690E-09 -1.92920E-09 -1.92973E-09 -1.92856E-09 -1.92574E-09 -1.92134E-09 -1.91543E-09 -1.90807E-09 -1.89932E-09 -1.88922E-09
  -1.87786E-09 -1.86528E-09 -1.85157E-09 -1.83674E-09 -1.82088E-09 -1.80406E-09 -1.78631E-09 -1.76770E-09 -1.74829E-09 -1.72813E-09
  -1.70728E-09 -1.68580E-09 -1.66373E-09 -1.64114E-09 -1.61807E-09 -1.59458E-09 -1.57073E-09 -1.54654E-09 -1.52209E-09 -1.49742E-09
  -1.47258E-09 -1.44760E-09 -1.42256E-09 -1.39746E-09 -1.37240E-09 -1.34737E-09 -1.32245E-09 -1.29767E-09 -1.27306E-09 -1.24867E-09
  -1.22454E-09 -1.20070E-09 -1.17719E-09 -1.15404E-09 -1.13130E-09 -1.10898E-09 -1.08713E-09 -1.06575E-09 -1.04490E-09 -1.02460E-09
  -1.00486E-09 -9.85722E-10 -9.67166E-10 -9.49199E-10 -9.31820E-10 -9.15033E-10 -8.98831E-10 -8.83221E-10 -8.68201E-10 -8.53770E-10
  -8.39931E-10 -8.26681E-10 -8.14024E-10 -8.01956E-10 -7.90478E-10 -7.79592E-10 -7.69298E-10 -7.59596E-10 -7.50483E-10 -7.41961E-10
  -7.34032E-10 -7.26693E-10 -7.19946E-10 -7.13790E-10 -7.08226E-10 -7.03254E-10 -6.98873E-10 -6.95081E-10 -6.91882E-10 -6.89275E-10
  -6.87260E-10 -6.85833E-10 -6.85001E-10 -6.84761E-10 -6.85112E-10 -6.86053E-10 -6.87589E-10 -6.89716E-10 -6.92436E-10 -6.95748E-10
  -6.99653E-10 -7.04150E-10 -7.09240E-10 -7.14923E-10 -7.21200E-10 -7.28069E-10 -7.35533E-10 -7.43591E-10 -7.52245E-10 -7.61491E-10
  -7.71335E-10 -7.81772E-10 -7.92807E-10 -8.04437E-10 -8.16663E-10 -8.29488E-10 -8.42910E-10 -8.56931E-10 -8.71549E-10 -8.86767E-10
  -9.02584E-10 -9.19002E-10 -9.36021E-10 -9.53642E-10 -9.71865E-10 -9.90692E-10 -1.01012E-09 -1.03016E-09 -1.05080E-09 -1.07204E-09
  -1.09389E-09 -1.11636E-09 -1.13942E-09
 NY background values follow
    -7.386E-10   -5.961E-10   -4.547E-10   -3.144E-10   -1.751E-10   -3.697E-11    1.001E-10    2.360E-10    3.707E-10    5.043E-10
     6.368E-10    7.681E-10    8.982E-10    1.027E-09    1.155E-09    1.281E-09    1.406E-09    1.530E-09    1.653E-09    1.775E-09
     1.895E-09    2.014E-09    2.132E-09    2.248E-09    2.363E-09    2.477E-09    2.589E-09    2.700E-09    2.810E-09    2.919E-09
     3.026E-09    3.132E-09    3.236E-09    3.340E-09    3.441E-09    3.542E-09    3.641E-09    3.739E-09    3.835E-09    3.930E-09
     4.024E-09    4.116E-09    4.207E-09    4.297E-09    4.385E-09    4.472E-09    4.557E-09    4.641E-09    4.724E-09    4.805E-09
     4.885E-09    4.964E-09    5.041E-09    5.117E-09    5.191E-09    5.265E-09    5.336E-09    5.407E-09    5.476E-09    5.544E-09
     5.610E-09    5.675E-09    5.739E-09    5.802E-09    5.863E-09    5.923E-09    5.981E-09    6.039E-09    6.095E-09    6.149E-09
     6.203E-09    6.255E-09    6.306E-09    6.355E-09    6.404E-09    6.451E-09    6.497E-09    6.541E-09    6.585E-09    6.627E-09
     6.667E-09    6.707E-09    6.745E-09    6.781E-09    6.817E-09    6.851E-09    6.883E-09    6.915E-09    6.944E-09    6.973E-09
     7.000E-09    7.025E-09    7.050E-09    7.072E-09    7.093E-09    7.113E-09    7.131E-09    7.148E-09    7.163E-09    7.176E-09
     7.188E-09    7.199E-09    7.207E-09    7.214E-09    7.220E-09    7.224E-09    7.226E-09    7.226E-09    7.225E-09    7.222E-09
     7.217E-09    7.210E-09    7.202E-09    7.191E-09    7.179E-09    7.165E-09    7.149E-09    7.132E-09    7.112E-09    7.091E-09
     7.067E-09    7.042E-09    7.014E-09    6.985E-09    6.953E-09    6.920E-09    6.884E-09    6.846E-09    6.807E-09    6.765E-09
     6.721E-09    6.675E-09    6.626E-09    6.576E-09    6.523E-09    6.468E-09    6.411E-09    6.352E-09    6.290E-09    6.227E-09
     6.160E-09    6.092E-09    6.021E-09    5.948E-09    5.873E-09    5.795E-09    5.715E-09    5.633E-09    5.548E-09    5.462E-09
     5.373E-09    5.282E-09    5.189E-09    5.095E-09    4.999E-09    4.901E-09    4.801E-09    4.700E-09    4.597E-09    4.493E-09
     4.387E-09    4.281E-09    4.173E-09    4.064E-09    3.954E-09    3.843E-09    3.731E-09    3.619E-09    3.506E-09    3.392E-09
     3.278E-09    3.163E-09    3.048E-09    2.933E-09    2.818E-09    2.702E-09    2.587E-09    2.471E-09    2.356E-09    2.241E-09
     2.127E-09    2.013E-09    1.899E-09    1.786E-09    1.673E-09    1.562E-09    1.451E-09    1.341E-09    1.232E-09    1.125E-09
     1.018E-09    9.128E-10    8.088E-10    7.061E-10    6.051E-10    5.055E-10    4.076E-10    3.114E-10    2.170E-10    1.244E-10
     3.375E-11   -5.490E-11   -1.415E-10   -2.259E-10   -3.082E-10   -3.882E-10   -4.659E-10   -5.412E-10   -6.140E-10   -6.843E-10
    -7.521E-10   -8.173E-10   -8.798E-10   -9.395E-10   -9.966E-10   -1.051E-09   -1.102E-09   -1.150E-09   -1.196E-09   -1.238E-09
    -1.278E-09   -1.315E-09   -1.349E-09   -1.380E-09   -1.409E-09   -1.435E-09   -1.459E-09   -1.480E-09   -1.498E-09   -1.514E-09
    -1.528E-09   -1.540E-09   -1.549E-09   -1.556E-09   -1.561E-09   -1.564E-09   -1.565E-09   -1.565E-09   -1.562E-09   -1.557E-09
    -1.551E-09   -1.543E-09   -1.533E-09   -1.522E-09   -1.510E-09   -1.496E-09   -1.480E-09   -1.463E-09   -1.445E-09   -1.426E-09
    -1.405E-09   -1.384E-09   -1.361E-09   -1.337E-09   -1.313E-09   -1.287E-09   -1.261E-09   -1.234E-09   -1.206E-09   -1.178E-09
    -1.149E-09   -1.120E-09   -1.090E-09   -1.059E-09   -1.028E-09   -9.973E-10   -9.659E-10   -9.343E-10   -9.025E-10   -8.706E-10
    -8.385E-10   -8.064E-10   -7.744E-10   -7.424E-10   -7.104E-10   -6.787E-10   -6.470E-10   -6.157E-10   -5.845E-10   -5.537E-10
    -5.232E-10   -4.930E-10   -4.633E-10   -4.340E-10   -4.052E-10   -3.769E-10   -3.491E-10   -3.219E-10   -2.952E-10   -2.692E-10
    -2.439E-10   -2.192E-10   -1.951E-10   -1.717E-10   -1.490E-10   -1.269E-10   -1.055E-10   -8.471E-11   -6.461E-11   -4.516E-11
    -2.636E-11   -8.223E-12    9.259E-12    2.609E-11    4.226E-11    5.778E-11    7.264E-11    8.685E-11    1.004E-10    1.133E-10
     1.255E-10    1.371E-10    1.481E-10    1.584E-10    1.680E-10    1.770E-10    1.853E-10    1.930E-10    2.001E-10    2.064E-10
     2.122E-10    2.173E-10    2.217E-10    2.255E-10    2.286E-10    2.311E-10    2.329E-10    2.341E-10    2.347E-10    2.346E-10
     2.338E-10    2.324E-10    2.303E-10    2.276E-10    2.243E-10    2.203E-10    2.157E-10    2.104E-10    2.044E-10    1.978E-10
     1.906E-10    1.827E-10    1.742E-10    1.650E-10    1.552E-10    1.447E-10    1.335E-10    1.218E-10    1.093E-10    9.624E-11
     8.251E-11    6.812E-11    5.309E-11    3.740E-11    2.106E-11    4.060E-12   -1.359E-11   -3.189E-11   -5.085E-11   -7.047E-11
    -9.074E-11   -1.117E-10   -1.332E-10
 Gln      Conc. = 1.70E-09
  -2.23731E-09 -1.93692E-09 -1.50451E-09 -1.02215E-09 -5.72210E-10 -1.44560E-10  2.84577E-10  6.53314E-10  8.97896E-10  1.32991E-09
   1.52321E-09  1.57702E-09  1.76502E-09  1.71843E-09  1.68708E-09  1.68961E-09  1.71539E-09  1.75657E-09  1.80849E-09  1.86815E-09
   1.93342E-09  2.00269E-09  2.07464E-09  2.14827E-09  2.22318E-09  2.29926E-09  2.37541E-09  2.45156E-09  2.52756E-09  2.60291E-09
   2.67732E-09  2.75055E-09  2.82237E-09  2.89259E-09  2.96098E-09  3.02736E-09  3.09146E-09  3.15305E-09  3.21174E-09  3.26742E-09
   3.31971E-09  3.36832E-09  3.41307E-09  3.45338E-09  3.48832E-09  3.51759E-09  3.54000E-09  3.55304E-09  3.55804E-09  3.55412E-09
   3.53509E-09  3.50208E-09  3.45976E-09  3.43764E-09  3.70528E-09  4.24936E-09  4.44116E-09  4.87871E-09  5.68900E-09  6.31131E-09
   6.68422E-09  7.11008E-09  7.54680E-09  7.93763E-09  8.16372E-09  8.06543E-09  7.97813E-09  8.10901E-09  7.74925E-09  7.25516E-09
   6.95373E-09  6.95928E-09  7.03696E-09  6.98041E-09  7.27721E-09  7.78872E-09  8.12804E-09  8.50823E-09  8.89271E-09  9.22605E-09
   9.57291E-09  9.84251E-09  9.82707E-09  9.89287E-09  1.00239E-08  9.74499E-09  9.51500E-09  9.40768E-09  9.15444E-09  8.93782E-09
   8.77503E-09  8.64863E-09  8.54926E-09  8.46851E-09  8.39928E-09  8.33982E-09  8.28844E-09  8.24275E-09  8.20185E-09  8.16503E-09
   8.13117E-09  8.09937E-09  8.06914E-09  8.04011E-09  8.01211E-09  7.98477E-09  7.95775E-09  7.93085E-09  7.90385E-09  7.87652E-09
   7.84881E-09  7.82050E-09  7.79150E-09  7.76169E-09  7.73097E-09  7.69925E-09  7.66646E-09  7.63250E-09  7.59729E-09  7.56082E-09
   7.52294E-09  7.48367E-09  7.44290E-09  7.40062E-09  7.35676E-09  7.31127E-09  7.26409E-09  7.21524E-09  7.16463E-09  7.11223E-09
   7.05802E-09  7.00193E-09  6.94397E-09  6.88409E-09  6.82226E-09  6.75841E-09  6.69262E-09  6.62475E-09  6.55484E-09  6.48281E-09
   6.40870E-09  6.33245E-09  6.25405E-09  6.17344E-09  6.09066E-09  6.00566E-09  5.91845E-09  5.82908E-09  5.73761E-09  5.64410E-09
   5.54863E-09  5.45127E-09  5.35207E-09  5.25116E-09  5.14860E-09  5.04451E-09  4.93905E-09  4.83238E-09  4.72478E-09  4.61662E-09
   4.50853E-09  4.40170E-09  4.29840E-09  4.20389E-09  4.13252E-09  4.13623E-09  4.51153E-09  5.88918E-09  6.55251E-09  6.49109E-09
   6.18774E-09  5.91522E-09  5.71705E-09  5.58442E-09  5.54514E-09  5.58422E-09  5.44135E-09  4.59822E-09  3.19885E-09  2.73647E-09
   2.48883E-09  2.30406E-09  2.14575E-09  2.00136E-09  1.86538E-09  1.73507E-09  1.60896E-09  1.48619E-09  1.36614E-09  1.24853E-09
   1.13317E-09  1.01986E-09  9.08573E-10  7.99239E-10  6.91896E-10  5.86500E-10  4.83052E-10  3.81654E-10  2.82305E-10  1.85015E-10
   8.98581E-11 -3.11971E-12 -9.38564E-11 -1.82318E-10 -2.68468E-10 -3.52203E-10 -4.33507E-10 -5.12329E-10 -5.88624E-10 -6.62276E-10
  -7.33334E-10 -8.01669E-10 -8.67255E-10 -9.30054E-10 -9.90043E-10 -1.04711E-09 -1.10126E-09 -1.15246E-09 -1.20063E-09 -1.24584E-09
  -1.28812E-09 -1.32754E-09 -1.36414E-09 -1.39799E-09 -1.42911E-09 -1.45760E-09 -1.48350E-09 -1.50685E-09 -1.52772E-09 -1.54616E-09
  -1.56225E-09 -1.57603E-09 -1.58755E-09 -1.59689E-09 -1.60410E-09 -1.60923E-09 -1.61235E-09 -1.61352E-09 -1.61280E-09 -1.61023E-09
  -1.60589E-09 -1.59985E-09 -1.59215E-09 -1.58286E-09 -1.57202E-09 -1.55972E-09 -1.54600E-09 -1.53092E-09 -1.51455E-09 -1.49694E-09
  -1.47816E-09 -1.45824E-09 -1.43729E-09 -1.41530E-09 -1.39237E-09 -1.36857E-09 -1.34393E-09 -1.31850E-09 -1.29236E-09 -1.26555E-09
  -1.23812E-09 -1.21015E-09 -1.18167E-09 -1.15274E-09 -1.12341E-09 -1.09373E-09 -1.06376E-09 -1.03353E-09 -1.00311E-09 -9.72540E-10
  -9.41863E-10 -9.11126E-10 -8.80389E-10 -8.49671E-10 -8.19048E-10 -7.88534E-10 -7.58187E-10 -7.28047E-10 -6.98139E-10 -6.68516E-10
  -6.39220E-10 -6.10274E-10 -5.81726E-10 -5.53594E-10 -5.25924E-10 -4.98745E-10 -4.72094E-10 -4.45973E-10 -4.20443E-10 -3.95519E-10
  -3.71216E-10 -3.47564E-10 -3.24557E-10 -3.02196E-10 -2.80477E-10 -2.59408E-10 -2.38980E-10 -2.19198E-10 -2.00061E-10 -1.81568E-10
  -1.63720E-10 -1.46515E-10 -1.29955E-10 -1.14039E-10 -9.87648E-11 -8.41340E-11 -7.01476E-11 -5.68048E-11 -4.41029E-11 -3.20428E-11
  -2.06256E-11 -9.84873E-12  2.84286E-13  9.77816E-12  1.86298E-11  2.68413E-11  3.44116E-11  4.13434E-11  4.76342E-11  5.32847E-11
   5.82950E-11  6.26689E-11  6.64013E-11  6.94945E-11  7.19500E-11  7.37684E-11  7.49451E-11  7.54845E-11  7.53845E-11  7.46481E-11
   7.32719E-11  7.12579E-11  6.86066E-11  6.53170E-11  6.13883E-11  5.68218E-11  5.16165E-11  4.57735E-11  3.92905E-11  3.21712E-11
   2.44110E-11  1.60132E-11  6.97500E-12 -2.70269E-12 -1.30185E-11 -2.39764E-11 -3.55737E-11 -4.78122E-11 -6.06910E-11 -7.42117E-11
  -8.83743E-11 -1.03179E-10 -1.18626E-10 -1.34717E-10 -1.51451E-10 -1.68830E-10 -1.86854E-10 -2.05523E-10 -2.24838E-10 -2.44799E-10
  -2.65408E-10 -2.86665E-10 -3.08570E-10
 GPC      Conc. = 2.35E-11
  -8.08482E-10 -6.60519E-10 -5.12784E-10 -3.77025E-10 -2.37692E-10 -9.45260E-11  5.92455E-11  2.10583E-10  3.54901E-10  4.93791E-10
   6.30847E-10  7.69644E-10  9.10045E-10  1.04788E-09  1.18387E-09  1.30204E-09  1.40918E-09  1.50655E-09  1.60338E-09  1.69769E-09
   1.78583E-09  1.86190E-09  1.91567E-09  1.99427E-09  2.22602E-09  2.46493E-09  2.65188E-09  2.79974E-09  2.93234E-09  3.06094E-09
   3.19115E-09  3.33592E-09  3.51303E-09  3.70750E-09  3.82539E-09  3.82883E-09  3.87346E-09  3.93721E-09  4.00984E-09  4.08703E-09
   4.16667E-09  4.24755E-09  4.32897E-09  4.41043E-09  4.49163E-09  4.57234E-09  4.65239E-09  4.73165E-09  4.81003E-09  4.88746E-09
   4.96387E-09  5.03924E-09  5.11348E-09  5.18660E-09  5.25858E-09  5.32936E-09  5.39896E-09  5.46739E-09  5.53454E-09  5.60051E-09
   5.66525E-09  5.72873E-09  5.79099E-09  5.85199E-09  5.91179E-09  5.97032E-09  6.02762E-09  6.08367E-09  6.13849E-09  6.19209E-09
   6.24444E-09  6.29556E-09  6.34549E-09  6.39417E-09  6.44165E-09  6.48791E-09  6.53292E-09  6.57669E-09  6.61920E-09  6.66045E-09
   6.70041E-09  6.73908E-09  6.77645E-09  6.81250E-09  6.84723E-09  6.88062E-09  6.91264E-09  6.94331E-09  6.97260E-09  7.00048E-09
   7.02695E-09  7.05201E-09  7.07560E-09  7.09778E-09  7.11846E-09  7.13764E-09  7.15533E-09  7.17150E-09  7.18613E-09  7.19920E-09
   7.21071E-09  7.22062E-09  7.22892E-09  7.23562E-09  7.24064E-09  7.24402E-09  7.24571E-09  7.24573E-09  7.24402E-09  7.24054E-09
   7.23535E-09  7.22837E-09  7.21959E-09  7.20899E-09  7.19657E-09  7.18230E-09  7.16618E-09  7.14816E-09  7.12822E-09  7.10640E-09
   7.08259E-09  7.05685E-09  7.02910E-09  6.99938E-09  6.96764E-09  6.93385E-09  6.89799E-09  6.86010E-09  6.82010E-09  6.77799E-09
   6.73377E-09  6.68738E-09  6.63887E-09  6.58818E-09  6.53530E-09  6.48017E-09  6.42290E-09  6.36334E-09  6.30156E-09  6.23748E-09
   6.17115E-09  6.10252E-09  6.03160E-09  5.95833E-09  5.88276E-09  5.80484E-09  5.72459E-09  5.64207E-09  5.55734E-09  5.47048E-09
   5.38154E-09  5.29062E-09  5.19775E-09  5.10304E-09  5.00653E-09  4.90832E-09  4.80849E-09  4.70709E-09  4.60423E-09  4.49998E-09
   4.39440E-09  4.28763E-09  4.17974E-09  4.07091E-09  3.96139E-09  3.85191E-09  3.74624E-09  3.65469E-09  3.55277E-09  3.43989E-09
   3.32293E-09  3.20593E-09  3.08967E-09  2.97405E-09  2.85957E-09  2.74622E-09  2.63067E-09  2.50561E-09  2.37186E-09  2.25177E-09
   2.13522E-09  2.02001E-09  1.90564E-09  1.79208E-09  1.67929E-09  1.56734E-09  1.45627E-09  1.34621E-09  1.23714E-09  1.12918E-09
   1.02244E-09  9.16927E-10  8.12757E-10  7.09986E-10  6.08739E-10  5.09043E-10  4.10955E-10  3.14622E-10  2.20080E-10  1.27370E-10
   3.65914E-11 -5.21890E-11 -1.38891E-10 -2.23464E-10 -3.05860E-10 -3.85962E-10 -4.63747E-10 -5.39152E-10 -6.12126E-10 -6.82545E-10
  -7.50454E-10 -8.15717E-10 -8.78305E-10 -9.38174E-10 -9.95296E-10 -1.04956E-09 -1.10096E-09 -1.14948E-09 -1.19501E-09 -1.23763E-09
  -1.27737E-09 -1.31429E-09 -1.34844E-09 -1.37988E-09 -1.40863E-09 -1.43479E-09 -1.45839E-09 -1.47949E-09 -1.49814E-09 -1.51440E-09
