 LCModel (Version 6.3-1R) Copyright: S.W. Provencher.          Ref.: Magn. Reson. Med. 30:672-679 (1993).                
 onepulse 27x13_ftSpec_smooth_lcm
 26 lines in following concentration table = NCONC+1
    Conc.  %SD /Cr+PCr  Metabolite                                         
    0.000 999%   0.000 Ala                                                 
    0.000 999%   0.000 Asp                                                 
 2.50E-11 999%   1.000 Cr                                                  
 1.36E-09  74%  54.445 GABA                                                
 1.66E-09  30%  66.381 Glc                                                 
    0.000 999%   0.000 Gln                                                 
 4.92E-10 154%  19.687 Glu                                                 
    0.000 999%   0.000 Glyc                                                
 1.13E-10  75%   4.520 GPC                                                 
    0.000 999%   0.000 GSH                                                 
 4.43E-10  84%  17.744 Ins                                                 
    0.000 999%   0.000 Lac                                                 
    0.000 999%   0.000 NAAG                                                
 8.86E-10  35%  35.472 NAA                                                 
    0.000 999%   0.000 PCh                                                 
    0.000 999%   0.000 PCr                                                 
    0.000 999%   0.000 PE                                                  
    0.000 999%   0.000 Scyllo                                              
 1.80E-09  45%  72.000 Ser                                                 
    0.000 999%   0.000 Tau                                                 
 1.13E-10  75%   4.520 GPC+PCh                                             
 8.86E-10  35%  35.472 NAA+NAAG                                            
 4.43E-10  84%  17.744 Ins+Glyc                                            
 2.50E-11 999%   1.000 Cr+PCr                                              
 4.92E-10 154%  19.687 Glu+Gln                                             
   6 lines in following misc. output table
  FWHM = 0.067 ppm    S/N =   3                                            
  Data shift = 0.324 ppm                                                   
  Ph:   4 deg      -7.5 deg/ppm                                            
  alphaB,S = 4.8E-01,   4.1E+01                                            
    9 spline knots.   Ns = 5(1)                                            
  ( 7) 3 infls.   ( 7) 1 extrs.                                            
  363 points on ppm-axis = NY
      4.250000     4.238821     4.227641     4.216462     4.205282     4.194103     4.182923     4.171744     4.160564     4.149385
      4.138206     4.127026     4.115847     4.104667     4.093488     4.082308     4.071129     4.059949     4.048770     4.037591
      4.026411     4.015232     4.004052     3.992873     3.981693     3.970514     3.959334     3.948155     3.936975     3.925796
      3.914617     3.903437     3.892258     3.881078     3.869899     3.858719     3.847540     3.836360     3.825181     3.814002
      3.802822     3.791643     3.780463     3.769284     3.758104     3.746925     3.735745     3.724566     3.713387     3.702207
      3.691028     3.679848     3.668669     3.657489     3.646310     3.635130     3.623951     3.612772     3.601592     3.590413
      3.579233     3.568054     3.556874     3.545695     3.534515     3.523336     3.512156     3.500977     3.489798     3.478618
      3.467439     3.456259     3.445080     3.433900     3.422721     3.411541     3.400362     3.389183     3.378003     3.366824
      3.355644     3.344465     3.333285     3.322106     3.310926     3.299747     3.288568     3.277388     3.266209     3.255029
      3.243850     3.232670     3.221491     3.210311     3.199132     3.187953     3.176773     3.165594     3.154414     3.143235
      3.132055     3.120876     3.109696     3.098517     3.087337     3.076158     3.064979     3.053799     3.042620     3.031440
      3.020261     3.009081     2.997902     2.986722     2.975543     2.964364     2.953184     2.942005     2.930825     2.919646
      2.908466     2.897287     2.886107     2.874928     2.863749     2.852569     2.841390     2.830210     2.819031     2.807851
      2.796672     2.785492     2.774313     2.763134     2.751954     2.740775     2.729595     2.718416     2.707236     2.696057
      2.684877     2.673698     2.662519     2.651339     2.640160     2.628980     2.617801     2.606621     2.595442     2.584262
      2.573083     2.561903     2.550724     2.539545     2.528365     2.517186     2.506006     2.494827     2.483647     2.472468
      2.461288     2.450109     2.438930     2.427750     2.416571     2.405391     2.394212     2.383032     2.371853     2.360673
      2.349494     2.338315     2.327135     2.315956     2.304776     2.293597     2.282417     2.271238     2.260058     2.248879
      2.237700     2.226520     2.215341     2.204161     2.192982     2.181802     2.170623     2.159443     2.148264     2.137084
      2.125905     2.114726     2.103546     2.092367     2.081187     2.070008     2.058828     2.047649     2.036469     2.025290
      2.014111     2.002931     1.991752     1.980572     1.969393     1.958213     1.947034     1.935854     1.924675     1.913496
      1.902316     1.891137     1.879957     1.868778     1.857598     1.846419     1.835239     1.824060     1.812881     1.801701
      1.790522     1.779342     1.768163     1.756983     1.745804     1.734624     1.723445     1.712265     1.701086     1.689907
      1.678727     1.667548     1.656368     1.645189     1.634009     1.622830     1.611650     1.600471     1.589292     1.578112
      1.566933     1.555753     1.544574     1.533394     1.522215     1.511035     1.499856     1.488677     1.477497     1.466318
      1.455138     1.443959     1.432779     1.421600     1.410420     1.399241     1.388062     1.376882     1.365703     1.354523
      1.343344     1.332164     1.320985     1.309805     1.298626     1.287446     1.276267     1.265088     1.253908     1.242729
      1.231549     1.220370     1.209190     1.198011     1.186831     1.175652     1.164473     1.153293     1.142114     1.130934
      1.119755     1.108575     1.097396     1.086216     1.075037     1.063858     1.052678     1.041499     1.030319     1.019140
      1.007960     0.996781     0.985601     0.974422     0.963243     0.952063     0.940884     0.929704     0.918525     0.907345
      0.896166     0.884986     0.873807     0.862628     0.851448     0.840269     0.829089     0.817910     0.806730     0.795551
      0.784371     0.773192     0.762012     0.750833     0.739654     0.728474     0.717295     0.706115     0.694936     0.683756
      0.672577     0.661397     0.650218     0.639039     0.627859     0.616680     0.605500     0.594321     0.583141     0.571962
      0.560782     0.549603     0.538424     0.527244     0.516065     0.504885     0.493706     0.482526     0.471347     0.460167
      0.448988     0.437809     0.426629     0.415450     0.404270     0.393091     0.381911     0.370732     0.359552     0.348373
      0.337193     0.326014     0.314835     0.303655     0.292476     0.281296     0.270117     0.258937     0.247758     0.236578
      0.225399     0.214220     0.203040
 NY phased data points follow
   1.09848E-09  3.02369E-09  4.61780E-09  8.71301E-09  1.03097E-08  1.13574E-08  9.69918E-09  1.03962E-08  8.84280E-09  8.77238E-09
   7.94357E-09  8.44944E-09  7.94245E-09  8.21359E-09  7.42425E-09  8.68726E-09  7.98244E-09  9.54814E-09  9.65417E-09  9.95608E-09
   9.66298E-09  1.02033E-08  9.89646E-09  1.00750E-08  8.88018E-09  8.67449E-09  8.35135E-09  9.69150E-09  1.00649E-08  1.05332E-08
   9.42352E-09  9.09418E-09  8.11430E-09  9.32026E-09  1.04846E-08  1.24681E-08  1.23687E-08  1.38955E-08  1.25626E-08  1.21023E-08
   1.04906E-08  1.09725E-08  1.03569E-08  1.08392E-08  9.86814E-09  9.90325E-09  9.36160E-09  9.32568E-09  8.94531E-09  8.83274E-09
   7.14223E-09  7.68378E-09  6.87431E-09  7.64157E-09  7.17692E-09  7.53711E-09  6.75862E-09  6.38303E-09  5.08828E-09  5.52054E-09
   4.95657E-09  6.03004E-09  4.90293E-09  4.15319E-09  5.09670E-09  8.22035E-09  1.06942E-08  1.26804E-08  1.19880E-08  1.13008E-08
   9.97571E-09  9.79366E-09  8.52236E-09  8.77601E-09  7.14791E-09  7.22449E-09  6.22315E-09  6.33627E-09  5.04775E-09  4.85057E-09
   4.11130E-09  7.01228E-09  1.08950E-08  1.50875E-08  1.49830E-08  1.42669E-08  1.33586E-08  1.38056E-08  1.30249E-08  1.25361E-08
   1.18067E-08  1.18362E-08  1.16618E-08  1.20336E-08  1.12634E-08  1.05993E-08  1.02047E-08  9.56504E-09  9.23405E-09  8.85939E-09
   8.52363E-09  8.32470E-09  7.84486E-09  7.33880E-09  7.43410E-09  7.13381E-09  7.55515E-09  6.66696E-09  7.45683E-09  7.61875E-09
   6.42702E-09  5.69654E-09  4.80337E-09  4.36403E-09  3.89717E-09  5.15967E-09  4.75779E-09  5.29642E-09  4.65149E-09  5.27771E-09
   5.52906E-09  5.33417E-09  5.31636E-09  5.65646E-09  5.46174E-09  5.18705E-09  4.38806E-09  3.79185E-09  3.12404E-09  3.50043E-09
   3.21335E-09  4.52905E-09  4.11496E-09  4.20868E-09  3.72769E-09  4.23298E-09  4.16125E-09  4.36166E-09  4.12672E-09  4.45286E-09
   3.23108E-09  4.22334E-09  5.35256E-09  6.91946E-09  6.31532E-09  6.25166E-09  5.65491E-09  6.39660E-09  6.28916E-09  7.57767E-09
   6.91449E-09  6.69807E-09  6.40950E-09  6.76111E-09  5.86841E-09  5.51127E-09  5.60459E-09  5.23980E-09  4.93328E-09  5.00739E-09
   5.24288E-09  4.69284E-09  3.95573E-09  4.56145E-09  4.80965E-09  4.36024E-09  4.38765E-09  4.53240E-09  4.45417E-09  4.62572E-09
   3.93660E-09  4.66628E-09  8.41978E-09  1.45814E-08  1.76900E-08  1.62369E-08  1.22802E-08  1.00490E-08  8.47127E-09  7.35218E-09
   6.11510E-09  4.84409E-09  3.46237E-09  2.44452E-09  1.17942E-09 -4.01901E-10 -1.91747E-09 -3.22397E-09 -5.19148E-09 -6.81580E-09
  -7.92094E-09 -9.55291E-09 -1.11669E-08 -1.22563E-08 -1.45764E-08 -1.56149E-08 -1.70391E-08 -1.73423E-08 -1.75970E-08 -1.84483E-08
  -1.86546E-08 -1.77238E-08 -1.69357E-08 -1.61796E-08 -1.46963E-08 -1.28961E-08 -1.15928E-08 -9.45733E-09 -8.05282E-09 -5.81019E-09
  -4.59240E-09 -3.32414E-09 -2.99188E-09 -2.02873E-09 -1.17591E-09 -8.77049E-10 -1.07258E-09  3.63184E-11 -1.22038E-09 -8.40329E-10
  -1.32733E-09 -1.40545E-09 -1.44302E-09 -1.42229E-09 -9.20116E-10 -5.88263E-10 -8.29548E-10 -6.48494E-10 -1.19415E-09 -9.06357E-10
  -1.01804E-09 -7.06084E-10 -1.05569E-09 -1.10898E-09 -7.47194E-10 -7.66682E-10 -1.01823E-09 -8.28546E-10 -2.74227E-10 -6.02288E-11
  -7.19474E-10 -5.86038E-10 -5.52334E-10 -8.49417E-10 -1.00662E-09 -7.52466E-10 -6.00480E-10 -1.75670E-10 -6.19004E-10  3.02564E-11
  -1.11913E-10  3.10550E-10  1.97511E-10  3.40824E-10  1.75957E-10  2.44791E-10 -3.68693E-11 -1.60045E-10 -1.80848E-10 -4.88810E-10
  -6.70427E-10 -4.68266E-10 -2.77709E-10 -4.53875E-10 -7.64074E-10 -7.10005E-10 -9.91063E-10  4.44258E-11 -1.58778E-10  5.06254E-10
   5.03491E-10  7.56275E-10  9.38389E-10  1.14627E-09  1.83160E-09  1.20340E-09  1.10246E-09  1.69034E-09  9.16694E-10  1.31271E-09
   5.42030E-10  5.37167E-10  8.24800E-11 -1.32911E-10 -3.95340E-10 -4.49684E-11 -3.07561E-10  4.80477E-10 -2.09197E-10  1.05722E-10
  -1.88990E-10  2.94199E-10 -4.44105E-10  2.85461E-10 -5.00705E-11  8.24413E-11  1.91074E-11  2.83699E-10 -2.43003E-10  1.67900E-10
   4.99247E-11 -1.55747E-10  4.92755E-10  2.35256E-10  4.65365E-10  9.74418E-11  2.45363E-10  6.69676E-10  6.01571E-10  3.37466E-10
   2.66811E-10  6.47090E-10  5.75624E-10  8.83143E-10  8.51403E-10  9.87214E-10  8.64222E-10  1.06545E-09  3.29750E-10  1.06217E-09
   9.34369E-10  1.16327E-09  8.55751E-10  1.42570E-09  1.03015E-09  1.84456E-09  1.18635E-09  1.71099E-09  1.51058E-09  1.84977E-09
   1.36328E-09  1.47257E-09  1.66140E-09  1.81817E-09  1.32972E-09  2.11868E-09  1.69200E-09  2.11168E-09  1.92178E-09  1.90915E-09
   1.87246E-09  2.15149E-09  1.81876E-09  2.13323E-09  2.04137E-09  2.26202E-09  2.53872E-09  2.90749E-09  2.41376E-09  2.72281E-09
   2.41313E-09  2.66559E-09  2.38646E-09  2.43875E-09  2.31225E-09  2.57644E-09  2.62867E-09  3.49847E-09  2.59541E-09  2.45761E-09
   3.18071E-09  3.01881E-09  2.67710E-09
 NY points of the fit to the data follow
   5.43442E-09  6.01328E-09  6.43035E-09  7.18749E-09  8.30097E-09  9.20479E-09  9.47492E-09  9.24354E-09  8.72129E-09  8.01170E-09
   7.50711E-09  7.18236E-09  7.02987E-09  7.06833E-09  7.29396E-09  7.55797E-09  7.84294E-09  8.27734E-09  8.72035E-09  9.14406E-09
   9.82589E-09  1.06300E-08  1.11817E-08  1.12419E-08  1.07971E-08  9.96410E-09  9.16346E-09  8.76755E-09  8.81016E-09  9.26529E-09
   9.89641E-09  1.03975E-08  1.07334E-08  1.07970E-08  1.04753E-08  1.01207E-08  1.01446E-08  1.03352E-08  1.05632E-08  1.07519E-08
   1.08217E-08  1.08390E-08  1.06280E-08  1.00942E-08  9.68175E-09  9.36509E-09  8.90809E-09  8.50987E-09  8.24563E-09  8.07873E-09
   7.94882E-09  7.81194E-09  7.64762E-09  7.45533E-09  7.27701E-09  7.18625E-09  7.18580E-09  7.24975E-09  7.26967E-09  7.18196E-09
   6.99186E-09  6.81361E-09  6.81188E-09  6.96915E-09  7.29813E-09  7.83565E-09  8.41616E-09  8.96628E-09  9.57814E-09  1.01412E-08
   1.06057E-08  1.08226E-08  1.06210E-08  1.01049E-08  9.61016E-09  8.84778E-09  8.05898E-09  7.89475E-09  7.99002E-09  8.17494E-09
   8.66277E-09  9.53533E-09  1.08794E-08  1.26088E-08  1.42227E-08  1.51850E-08  1.51729E-08  1.41324E-08  1.24740E-08  1.14445E-08
   1.09946E-08  1.07704E-08  1.06788E-08  1.04587E-08  1.01598E-08  9.99847E-09  9.72383E-09  9.33144E-09  9.05037E-09  8.78792E-09
   8.50763E-09  8.26774E-09  8.06158E-09  7.87952E-09  7.71499E-09  7.56346E-09  7.42194E-09  7.28837E-09  7.16106E-09  7.03856E-09
   6.91970E-09  6.80331E-09  6.68884E-09  6.57572E-09  6.46355E-09  6.35191E-09  6.24037E-09  6.12851E-09  6.01601E-09  5.90266E-09
   5.78811E-09  5.67225E-09  5.55491E-09  5.43603E-09  5.31556E-09  5.19351E-09  5.06985E-09  4.94458E-09  4.81776E-09  4.68937E-09
   4.55947E-09  4.42810E-09  4.29530E-09  4.16113E-09  4.02564E-09  3.88890E-09  3.75096E-09  3.61190E-09  3.47181E-09  3.33077E-09
   3.18886E-09  3.04617E-09  2.90279E-09  2.75884E-09  2.61437E-09  2.46951E-09  2.32440E-09  2.17916E-09  2.03388E-09  1.88873E-09
   1.74386E-09  1.59939E-09  1.45555E-09  1.31256E-09  1.17062E-09  1.03004E-09  8.91225E-10  7.54616E-10  6.20849E-10  4.90855E-10
   3.65917E-10  2.48174E-10  1.41158E-10  5.15922E-11 -5.92543E-12  9.03855E-12  2.66740E-10  1.40803E-09  2.86189E-09  4.44218E-09
   6.46769E-09  9.27199E-09  1.26451E-08  1.56185E-08  1.68917E-08  1.55950E-08  1.17325E-08  6.27210E-09  1.33271E-09 -3.84855E-10
  -1.05685E-09 -1.43687E-09 -1.69629E-09 -1.89355E-09 -2.05398E-09 -2.19026E-09 -2.30947E-09 -2.41586E-09 -2.51212E-09 -2.60004E-09
  -2.68088E-09 -2.75551E-09 -2.82459E-09 -2.88861E-09 -2.94797E-09 -3.00296E-09 -3.05382E-09 -3.10076E-09 -3.14394E-09 -3.18351E-09
  -3.21959E-09 -3.25230E-09 -3.28173E-09 -3.30796E-09 -3.33109E-09 -3.35119E-09 -3.36832E-09 -3.38254E-09 -3.39393E-09 -3.40256E-09
  -3.40846E-09 -3.41170E-09 -3.41235E-09 -3.41043E-09 -3.40604E-09 -3.39920E-09 -3.38996E-09 -3.37838E-09 -3.36454E-09 -3.34844E-09
  -3.33016E-09 -3.30974E-09 -3.28724E-09 -3.26271E-09 -3.23621E-09 -3.20775E-09 -3.17742E-09 -3.14526E-09 -3.11130E-09 -3.07562E-09
  -3.03825E-09 -2.99925E-09 -2.95866E-09 -2.91654E-09 -2.87294E-09 -2.82790E-09 -2.78148E-09 -2.73373E-09 -2.68469E-09 -2.63441E-09
  -2.58295E-09 -2.53036E-09 -2.47668E-09 -2.42196E-09 -2.36625E-09 -2.30959E-09 -2.25203E-09 -2.19361E-09 -2.13438E-09 -2.07439E-09
  -2.01367E-09 -1.95228E-09 -1.89026E-09 -1.82765E-09 -1.76450E-09 -1.70085E-09 -1.63675E-09 -1.57224E-09 -1.50737E-09 -1.44217E-09
  -1.37670E-09 -1.31099E-09 -1.24508E-09 -1.17903E-09 -1.11287E-09 -1.04664E-09 -9.80392E-10 -9.14158E-10 -8.47978E-10 -7.81901E-10
  -7.15956E-10 -6.50196E-10 -5.84648E-10 -5.19361E-10 -4.54364E-10 -3.89704E-10 -3.25414E-10 -2.61532E-10 -1.98093E-10 -1.35140E-10
  -7.27054E-11 -1.08119E-11  5.04867E-11  1.11162E-10  1.71181E-10  2.30518E-10  2.89123E-10  3.46978E-10  4.04056E-10  4.60310E-10
   5.15721E-10  5.70249E-10  6.23879E-10  6.76570E-10  7.28304E-10  7.79052E-10  8.28779E-10  8.77462E-10  9.25076E-10  9.71601E-10
   1.01702E-09  1.06130E-09  1.10440E-09  1.14634E-09  1.18711E-09  1.22670E-09  1.26512E-09  1.30237E-09  1.33845E-09  1.37336E-09
   1.40710E-09  1.43968E-09  1.47109E-09  1.50133E-09  1.53041E-09  1.55832E-09  1.58508E-09  1.61066E-09  1.63509E-09  1.65834E-09
   1.68044E-09  1.70137E-09  1.72114E-09  1.73974E-09  1.75717E-09  1.77344E-09  1.78855E-09  1.80248E-09  1.81525E-09  1.82685E-09
   1.83728E-09  1.84653E-09  1.85462E-09  1.86152E-09  1.86725E-09  1.87180E-09  1.87518E-09  1.87737E-09  1.87837E-09  1.87819E-09
   1.87681E-09  1.87425E-09  1.87049E-09  1.86553E-09  1.85937E-09  1.85200E-09  1.84343E-09  1.83364E-09  1.82264E-09  1.81043E-09
   1.79698E-09  1.78232E-09  1.76642E-09  1.74928E-09  1.73091E-09  1.71128E-09  1.69041E-09  1.66829E-09  1.64490E-09  1.62025E-09
   1.59432E-09  1.56712E-09  1.53864E-09
 NY background values follow
     3.537E-09    3.598E-09    3.658E-09    3.718E-09    3.776E-09    3.833E-09    3.888E-09    3.943E-09    3.996E-09    4.049E-09
     4.100E-09    4.149E-09    4.198E-09    4.246E-09    4.292E-09    4.338E-09    4.382E-09    4.425E-09    4.467E-09    4.508E-09
     4.547E-09    4.586E-09    4.624E-09    4.660E-09    4.696E-09    4.730E-09    4.763E-09    4.796E-09    4.827E-09    4.858E-09
     4.887E-09    4.916E-09    4.943E-09    4.970E-09    4.996E-09    5.021E-09    5.045E-09    5.068E-09    5.090E-09    5.112E-09
     5.133E-09    5.153E-09    5.173E-09    5.191E-09    5.210E-09    5.227E-09    5.244E-09    5.260E-09    5.276E-09    5.291E-09
     5.306E-09    5.320E-09    5.333E-09    5.347E-09    5.359E-09    5.372E-09    5.384E-09    5.396E-09    5.408E-09    5.419E-09
     5.430E-09    5.441E-09    5.452E-09    5.462E-09    5.473E-09    5.483E-09    5.493E-09    5.502E-09    5.511E-09    5.520E-09
     5.528E-09    5.536E-09    5.544E-09    5.551E-09    5.557E-09    5.563E-09    5.568E-09    5.572E-09    5.576E-09    5.579E-09
     5.582E-09    5.583E-09    5.584E-09    5.583E-09    5.582E-09    5.579E-09    5.576E-09    5.571E-09    5.566E-09    5.559E-09
     5.550E-09    5.541E-09    5.530E-09    5.518E-09    5.504E-09    5.488E-09    5.471E-09    5.452E-09    5.432E-09    5.410E-09
     5.386E-09    5.360E-09    5.332E-09    5.302E-09    5.270E-09    5.236E-09    5.200E-09    5.161E-09    5.120E-09    5.077E-09
     5.031E-09    4.983E-09    4.932E-09    4.879E-09    4.823E-09    4.764E-09    4.702E-09    4.638E-09    4.570E-09    4.500E-09
     4.426E-09    4.349E-09    4.269E-09    4.186E-09    4.100E-09    4.011E-09    3.920E-09    3.825E-09    3.728E-09    3.629E-09
     3.527E-09    3.422E-09    3.315E-09    3.207E-09    3.096E-09    2.983E-09    2.868E-09    2.751E-09    2.633E-09    2.513E-09
     2.392E-09    2.269E-09    2.146E-09    2.021E-09    1.895E-09    1.768E-09    1.640E-09    1.512E-09    1.383E-09    1.253E-09
     1.123E-09    9.933E-10    8.632E-10    7.330E-10    6.030E-10    4.732E-10    3.437E-10    2.147E-10    8.629E-11   -4.141E-11
    -1.683E-10   -2.943E-10   -4.192E-10   -5.429E-10   -6.654E-10   -7.864E-10   -9.059E-10   -1.024E-09   -1.140E-09   -1.254E-09
    -1.366E-09   -1.477E-09   -1.585E-09   -1.690E-09   -1.793E-09   -1.894E-09   -1.992E-09   -2.087E-09   -2.179E-09   -2.268E-09
    -2.354E-09   -2.437E-09   -2.517E-09   -2.593E-09   -2.666E-09   -2.735E-09   -2.802E-09   -2.865E-09   -2.925E-09   -2.981E-09
    -3.035E-09   -3.085E-09   -3.133E-09   -3.177E-09   -3.218E-09   -3.256E-09   -3.292E-09   -3.324E-09   -3.353E-09   -3.380E-09
    -3.403E-09   -3.424E-09   -3.442E-09   -3.457E-09   -3.470E-09   -3.480E-09   -3.487E-09   -3.492E-09   -3.494E-09   -3.494E-09
    -3.491E-09   -3.485E-09   -3.478E-09   -3.467E-09   -3.455E-09   -3.440E-09   -3.423E-09   -3.404E-09   -3.383E-09   -3.360E-09
    -3.334E-09   -3.307E-09   -3.277E-09   -3.246E-09   -3.213E-09   -3.178E-09   -3.141E-09   -3.103E-09   -3.063E-09   -3.021E-09
    -2.977E-09   -2.932E-09   -2.886E-09   -2.838E-09   -2.788E-09   -2.738E-09   -2.686E-09   -2.632E-09   -2.578E-09   -2.522E-09
    -2.465E-09   -2.407E-09   -2.349E-09   -2.289E-09   -2.228E-09   -2.166E-09   -2.104E-09   -2.040E-09   -1.976E-09   -1.912E-09
    -1.846E-09   -1.780E-09   -1.713E-09   -1.646E-09   -1.578E-09   -1.510E-09   -1.442E-09   -1.373E-09   -1.304E-09   -1.234E-09
    -1.164E-09   -1.094E-09   -1.024E-09   -9.542E-10   -8.840E-10   -8.137E-10   -7.435E-10   -6.733E-10   -6.032E-10   -5.332E-10
    -4.634E-10   -3.939E-10   -3.246E-10   -2.555E-10   -1.869E-10   -1.186E-10   -5.064E-11    1.682E-11    8.380E-11    1.503E-10
     2.162E-10    2.815E-10    3.462E-10    4.103E-10    4.736E-10    5.363E-10    5.982E-10    6.593E-10    7.195E-10    7.790E-10
     8.375E-10    8.952E-10    9.519E-10    1.008E-09    1.062E-09    1.116E-09    1.169E-09    1.221E-09    1.271E-09    1.320E-09
     1.369E-09    1.416E-09    1.462E-09    1.506E-09    1.550E-09    1.592E-09    1.633E-09    1.673E-09    1.712E-09    1.750E-09
     1.786E-09    1.821E-09    1.855E-09    1.888E-09    1.919E-09    1.950E-09    1.979E-09    2.007E-09    2.034E-09    2.059E-09
     2.084E-09    2.107E-09    2.129E-09    2.150E-09    2.170E-09    2.188E-09    2.205E-09    2.222E-09    2.236E-09    2.250E-09
     2.263E-09    2.274E-09    2.284E-09    2.293E-09    2.301E-09    2.307E-09    2.313E-09    2.317E-09    2.320E-09    2.322E-09
     2.322E-09    2.321E-09    2.320E-09    2.316E-09    2.312E-09    2.307E-09    2.300E-09    2.292E-09    2.282E-09    2.272E-09
     2.260E-09    2.247E-09    2.233E-09    2.217E-09    2.201E-09    2.183E-09    2.163E-09    2.143E-09    2.121E-09    2.098E-09
     2.073E-09    2.048E-09    2.021E-09
 Cr       Conc. = 2.50E-11
   3.61222E-09  3.69231E-09  3.74951E-09  3.78532E-09  3.82312E-09  3.86814E-09  3.91591E-09  3.96464E-09  4.01350E-09  4.06203E-09
   4.10999E-09  4.15719E-09  4.20355E-09  4.24897E-09  4.29340E-09  4.33680E-09  4.37914E-09  4.42040E-09  4.46055E-09  4.49957E-09
   4.53744E-09  4.57413E-09  4.60963E-09  4.64389E-09  4.67689E-09  4.70854E-09  4.73875E-09  4.76740E-09  4.79428E-09  4.81902E-09
   4.84111E-09  4.86151E-09  4.88972E-09  4.92156E-09  4.95477E-09  4.99307E-09  5.04365E-09  5.11044E-09  5.18803E-09  5.26210E-09
   5.31627E-09  5.33880E-09  5.32722E-09  5.29857E-09  5.29218E-09  5.29519E-09  5.30229E-09  5.31143E-09  5.32168E-09  5.33251E-09
   5.34361E-09  5.35480E-09  5.36600E-09  5.37712E-09  5.38811E-09  5.39895E-09  5.40965E-09  5.42021E-09  5.43060E-09  5.44090E-09
   5.45106E-09  5.46111E-09  5.47106E-09  5.48086E-09  5.49049E-09  5.49991E-09  5.50909E-09  5.51800E-09  5.52660E-09  5.53485E-09
   5.54273E-09  5.55020E-09  5.55722E-09  5.56375E-09  5.56975E-09  5.57519E-09  5.58001E-09  5.58421E-09  5.58768E-09  5.59045E-09
   5.59242E-09  5.59357E-09  5.59385E-09  5.59321E-09  5.59162E-09  5.58899E-09  5.58533E-09  5.58053E-09  5.57457E-09  5.56740E-09
   5.55894E-09  5.54919E-09  5.53805E-09  5.52547E-09  5.51141E-09  5.49581E-09  5.47861E-09  5.45974E-09  5.43916E-09  5.41683E-09
   5.39264E-09  5.36657E-09  5.33855E-09  5.30852E-09  5.27641E-09  5.24218E-09  5.20573E-09  5.16705E-09  5.12606E-09  5.08267E-09
   5.03686E-09  4.98852E-09  4.93763E-09  4.88409E-09  4.82787E-09  4.76889E-09  4.70710E-09  4.64242E-09  4.57480E-09  4.50421E-09
   4.43048E-09  4.35364E-09  4.27365E-09  4.19059E-09  4.10455E-09  4.01560E-09  3.92383E-09  3.82934E-09  3.73220E-09  3.63251E-09
   3.53037E-09  3.42586E-09  3.31908E-09  3.21014E-09  3.09911E-09  2.98612E-09  2.87125E-09  2.75461E-09  2.63632E-09  2.51645E-09
   2.39514E-09  2.27246E-09  2.14855E-09  2.02353E-09  1.89746E-09  1.77048E-09  1.64270E-09  1.51424E-09  1.38519E-09  1.25568E-09
   1.12585E-09  9.95753E-10  8.65550E-10  7.35365E-10  6.05276E-10  4.75414E-10  3.45921E-10  2.16893E-10  8.84427E-11 -3.92771E-11
  -1.66191E-10 -2.92129E-10 -4.16989E-10 -5.40608E-10 -6.62826E-10 -7.83358E-10 -9.01283E-10 -1.01419E-09 -1.12443E-09 -1.23230E-09
  -1.33634E-09 -1.43530E-09 -1.53012E-09 -1.62460E-09 -1.72344E-09 -1.82948E-09 -1.94222E-09 -2.05750E-09 -2.16678E-09 -2.26091E-09
  -2.34892E-09 -2.43281E-09 -2.51298E-09 -2.58961E-09 -2.66283E-09 -2.73270E-09 -2.79926E-09 -2.86255E-09 -2.92261E-09 -2.97946E-09
  -3.03315E-09 -3.08369E-09 -3.13113E-09 -3.17547E-09 -3.21677E-09 -3.25506E-09 -3.29035E-09 -3.32269E-09 -3.35210E-09 -3.37862E-09
  -3.40229E-09 -3.42314E-09 -3.44121E-09 -3.45652E-09 -3.46913E-09 -3.47906E-09 -3.48636E-09 -3.49104E-09 -3.49318E-09 -3.49280E-09
  -3.48993E-09 -3.48462E-09 -3.47691E-09 -3.46684E-09 -3.45447E-09 -3.43981E-09 -3.42292E-09 -3.40385E-09 -3.38264E-09 -3.35932E-09
  -3.33394E-09 -3.30655E-09 -3.27720E-09 -3.24593E-09 -3.21279E-09 -3.17780E-09 -3.14105E-09 -3.10256E-09 -3.06237E-09 -3.02054E-09
  -2.97711E-09 -2.93214E-09 -2.88566E-09 -2.83772E-09 -2.78839E-09 -2.73769E-09 -2.68568E-09 -2.63241E-09 -2.57793E-09 -2.52228E-09
  -2.46551E-09 -2.40767E-09 -2.34881E-09 -2.28897E-09 -2.22820E-09 -2.16653E-09 -2.10402E-09 -2.04072E-09 -1.97666E-09 -1.91189E-09
  -1.84645E-09 -1.78038E-09 -1.71374E-09 -1.64656E-09 -1.57889E-09 -1.51078E-09 -1.44225E-09 -1.37337E-09 -1.30417E-09 -1.23469E-09
  -1.16497E-09 -1.09507E-09 -1.02501E-09 -9.54856E-10 -8.84627E-10 -8.14376E-10 -7.44144E-10 -6.73967E-10 -6.03886E-10 -5.33946E-10
  -4.64177E-10 -3.94632E-10 -3.25337E-10 -2.56340E-10 -1.87671E-10 -1.19374E-10 -5.14841E-11  1.59621E-11  8.29308E-11  1.49379E-10
   2.15273E-10  2.80593E-10  3.45284E-10  4.09319E-10  4.72665E-10  5.35295E-10  5.97163E-10  6.58249E-10  7.18526E-10  7.77946E-10
   8.36495E-10  8.94128E-10  9.50835E-10  1.00657E-09  1.06132E-09  1.11506E-09  1.16774E-09  1.21935E-09  1.26987E-09  1.31926E-09
   1.36752E-09  1.41462E-09  1.46052E-09  1.50522E-09  1.54872E-09  1.59101E-09  1.63212E-09  1.67202E-09  1.71073E-09  1.74824E-09
   1.78456E-09  1.81969E-09  1.85363E-09  1.88637E-09  1.91793E-09  1.94830E-09  1.97747E-09  2.00546E-09  2.03226E-09  2.05788E-09
   2.08230E-09  2.10554E-09  2.12759E-09  2.14845E-09  2.16812E-09  2.18661E-09  2.20390E-09  2.22001E-09  2.23492E-09  2.24865E-09
   2.26117E-09  2.27251E-09  2.28265E-09  2.29159E-09  2.29933E-09  2.30588E-09  2.31122E-09  2.31536E-09  2.31829E-09  2.32002E-09
   2.32053E-09  2.31983E-09  2.31791E-09  2.31478E-09  2.31042E-09  2.30483E-09  2.29802E-09  2.28998E-09  2.28070E-09  2.27019E-09
   2.25843E-09  2.24542E-09  2.23117E-09  2.21565E-09  2.19888E-09  2.18085E-09  2.16154E-09  2.14096E-09  2.11910E-09  2.09595E-09
   2.07152E-09  2.04579E-09  2.01876E-09
 GABA     Conc. = 1.36E-09
   2.92711E-09  2.97852E-09  3.02831E-09  3.07644E-09  3.12285E-09  3.16751E-09  3.21037E-09  3.25137E-09  3.29045E-09  3.32753E-09
   3.36253E-09  3.39535E-09  3.42593E-09  3.45410E-09  3.47976E-09  3.50277E-09  3.52293E-09  3.54002E-09  3.55384E-09  3.56404E-09
   3.57020E-09  3.57185E-09  3.56836E-09  3.55901E-09  3.54301E-09  3.51923E-09  3.48669E-09  3.44497E-09  3.39865E-09  3.39529E-09
   3.42229E-09  3.43171E-09  3.54814E-09  3.82723E-09  4.19811E-09  4.67123E-09  5.24574E-09  5.87616E-09  6.48790E-09  6.98441E-09
   7.32460E-09  7.60396E-09  7.65422E-09  7.35528E-09  7.12598E-09  6.94777E-09  6.59753E-09  6.27373E-09  6.04604E-09  5.87598E-09
   5.74228E-09  5.63285E-09  5.54018E-09  5.45939E-09  5.38692E-09  5.31997E-09  5.25665E-09  5.19555E-09  5.13589E-09  5.07836E-09
   5.02698E-09  5.00562E-09  5.06595E-09  5.13746E-09  5.25167E-09  5.55067E-09  5.97589E-09  6.46976E-09  7.02705E-09  7.58586E-09
   8.06403E-09  8.36414E-09  8.42496E-09  8.32304E-09  8.17185E-09  7.73265E-09  7.23379E-09  7.02001E-09  6.76452E-09  6.45325E-09
   6.27300E-09  6.14165E-09  6.03746E-09  6.03744E-09  6.09154E-09  6.16647E-09  6.32212E-09  6.54505E-09  6.80922E-09  7.08849E-09
   7.31838E-09  7.53456E-09  7.75680E-09  7.78047E-09  7.67487E-09  7.67288E-09  7.53578E-09  7.26159E-09  7.08351E-09  6.91227E-09
   6.71366E-09  6.54755E-09  6.40851E-09  6.28795E-09  6.18017E-09  6.08129E-09  5.98887E-09  5.90125E-09  5.81712E-09  5.73534E-09
   5.65496E-09  5.57509E-09  5.49532E-09  5.41526E-09  5.33465E-09  5.25322E-09  5.17062E-09  5.08654E-09  5.00074E-09  4.91310E-09
   4.82332E-09  4.73138E-09  4.63714E-09  4.54060E-09  4.44177E-09  4.34067E-09  4.23733E-09  4.13180E-09  4.02413E-09  3.91437E-09
   3.80258E-09  3.68882E-09  3.57317E-09  3.45571E-09  3.33649E-09  3.21562E-09  3.09315E-09  2.96917E-09  2.84380E-09  2.71710E-09
   2.58919E-09  2.46014E-09  2.33006E-09  2.19905E-09  2.06719E-09  1.93459E-09  1.80137E-09  1.66766E-09  1.53352E-09  1.39909E-09
   1.26450E-09  1.12982E-09  9.95210E-10  8.60812E-10  7.26721E-10  5.93093E-10  4.60114E-10  3.27940E-10  1.96779E-10  6.69269E-11
  -6.13098E-11 -1.87372E-10 -3.10458E-10 -4.29016E-10 -5.39677E-10 -6.32581E-10 -6.62058E-10 -5.09135E-10 -3.06743E-10 -7.37911E-11
   2.62795E-10  7.62443E-10  1.36257E-09  1.85087E-09  1.96703E-09  1.55586E-09  6.44373E-10 -5.42421E-10 -1.54372E-09 -1.89473E-09
  -2.08682E-09 -2.22703E-09 -2.34275E-09 -2.44405E-09 -2.53554E-09 -2.61960E-09 -2.69760E-09 -2.77038E-09 -2.83851E-09 -2.90235E-09
  -2.96220E-09 -3.01824E-09 -3.07064E-09 -3.11952E-09 -3.16499E-09 -3.20715E-09 -3.24606E-09 -3.28179E-09 -3.31440E-09 -3.34396E-09
  -3.37050E-09 -3.39411E-09 -3.41481E-09 -3.43265E-09 -3.44768E-09 -3.45995E-09 -3.46951E-09 -3.47638E-09 -3.48064E-09 -3.48231E-09
  -3.48144E-09 -3.47807E-09 -3.47225E-09 -3.46402E-09 -3.45345E-09 -3.44055E-09 -3.42537E-09 -3.40796E-09 -3.38840E-09 -3.36668E-09
  -3.34287E-09 -3.31701E-09 -3.28916E-09 -3.25937E-09 -3.22769E-09 -3.19412E-09 -3.15876E-09 -3.12165E-09 -3.08280E-09 -3.04230E-09
