 LCModel (Version 6.3-1R) Copyright: S.W. Provencher.          Ref.: Magn. Reson. Med. 30:672-679 (1993).                
 onepulse 27x14_ftSpec_smooth_lcm
 26 lines in following concentration table = NCONC+1
    Conc.  %SD   /Cr    Metabolite                                         
 6.25E-10  58%   0.000 Ala                                                 
 3.24E-10 253%   0.000 Asp                                                 
    0.000 999%   0.000 Cr                                                  
 1.22E-09  50%   0.000 GABA                                                
    0.000 999%   0.000 Glc                                                 
 7.27E-11 999%   0.000 Gln                                                 
    0.000 999%   0.000 Glu                                                 
 1.92E-09  31%   0.000 Glyc                                                
    0.000 999%   0.000 GPC                                                 
 1.20E-09  45%   0.000 GSH                                                 
    0.000 999%   0.000 Ins                                                 
 1.72E-10 212%   0.000 Lac                                                 
 4.84E-10  84%   0.000 NAAG                                                
 4.06E-10 145%   0.000 NAA                                                 
    0.000 999%   0.000 PCh                                                 
    0.000 999%   0.000 PCr                                                 
 2.64E-09  41%   0.000 PE                                                  
 1.95E-10 176%   0.000 Scyllo                                              
 4.40E-10 233%   0.000 Ser                                                 
 6.10E-10 193%   0.000 Tau                                                 
    0.000 999%   0.000 GPC+PCh                                             
 8.90E-10  41%   0.000 NAA+NAAG                                            
 1.92E-09  31%   0.000 Ins+Glyc                                            
    0.000 999%   0.000 Cr+PCr                                              
 7.27E-11 999%   0.000 Glu+Gln                                             
   6 lines in following misc. output table
  FWHM = 0.123 ppm    S/N =   3                                            
  Data shift = 0.481 ppm                                                   
  Ph: 102 deg      -4.5 deg/ppm                                            
  alphaB,S = 1.0E+00,   2.6E+01                                            
    9 spline knots.   Ns = 5(1)                                            
  (12) 4 infls.   ( 9) 3 extrs.                                            
  363 points on ppm-axis = NY
      4.250000     4.238821     4.227641     4.216462     4.205282     4.194103     4.182923     4.171744     4.160564     4.149385
      4.138206     4.127026     4.115847     4.104667     4.093488     4.082308     4.071129     4.059949     4.048770     4.037591
      4.026411     4.015232     4.004052     3.992873     3.981693     3.970514     3.959334     3.948155     3.936975     3.925796
      3.914617     3.903437     3.892258     3.881078     3.869899     3.858719     3.847540     3.836360     3.825181     3.814002
      3.802822     3.791643     3.780463     3.769284     3.758104     3.746925     3.735745     3.724566     3.713387     3.702207
      3.691028     3.679848     3.668669     3.657489     3.646310     3.635130     3.623951     3.612772     3.601592     3.590413
      3.579233     3.568054     3.556874     3.545695     3.534515     3.523336     3.512156     3.500977     3.489798     3.478618
      3.467439     3.456259     3.445080     3.433900     3.422721     3.411541     3.400362     3.389183     3.378003     3.366824
      3.355644     3.344465     3.333285     3.322106     3.310926     3.299747     3.288568     3.277388     3.266209     3.255029
      3.243850     3.232670     3.221491     3.210311     3.199132     3.187953     3.176773     3.165594     3.154414     3.143235
      3.132055     3.120876     3.109696     3.098517     3.087337     3.076158     3.064979     3.053799     3.042620     3.031440
      3.020261     3.009081     2.997902     2.986722     2.975543     2.964364     2.953184     2.942005     2.930825     2.919646
      2.908466     2.897287     2.886107     2.874928     2.863749     2.852569     2.841390     2.830210     2.819031     2.807851
      2.796672     2.785492     2.774313     2.763134     2.751954     2.740775     2.729595     2.718416     2.707236     2.696057
      2.684877     2.673698     2.662519     2.651339     2.640160     2.628980     2.617801     2.606621     2.595442     2.584262
      2.573083     2.561903     2.550724     2.539545     2.528365     2.517186     2.506006     2.494827     2.483647     2.472468
      2.461288     2.450109     2.438930     2.427750     2.416571     2.405391     2.394212     2.383032     2.371853     2.360673
      2.349494     2.338315     2.327135     2.315956     2.304776     2.293597     2.282417     2.271238     2.260058     2.248879
      2.237700     2.226520     2.215341     2.204161     2.192982     2.181802     2.170623     2.159443     2.148264     2.137084
      2.125905     2.114726     2.103546     2.092367     2.081187     2.070008     2.058828     2.047649     2.036469     2.025290
      2.014111     2.002931     1.991752     1.980572     1.969393     1.958213     1.947034     1.935854     1.924675     1.913496
      1.902316     1.891137     1.879957     1.868778     1.857598     1.846419     1.835239     1.824060     1.812881     1.801701
      1.790522     1.779342     1.768163     1.756983     1.745804     1.734624     1.723445     1.712265     1.701086     1.689907
      1.678727     1.667548     1.656368     1.645189     1.634009     1.622830     1.611650     1.600471     1.589292     1.578112
      1.566933     1.555753     1.544574     1.533394     1.522215     1.511035     1.499856     1.488677     1.477497     1.466318
      1.455138     1.443959     1.432779     1.421600     1.410420     1.399241     1.388062     1.376882     1.365703     1.354523
      1.343344     1.332164     1.320985     1.309805     1.298626     1.287446     1.276267     1.265088     1.253908     1.242729
      1.231549     1.220370     1.209190     1.198011     1.186831     1.175652     1.164473     1.153293     1.142114     1.130934
      1.119755     1.108575     1.097396     1.086216     1.075037     1.063858     1.052678     1.041499     1.030319     1.019140
      1.007960     0.996781     0.985601     0.974422     0.963243     0.952063     0.940884     0.929704     0.918525     0.907345
      0.896166     0.884986     0.873807     0.862628     0.851448     0.840269     0.829089     0.817910     0.806730     0.795551
      0.784371     0.773192     0.762012     0.750833     0.739654     0.728474     0.717295     0.706115     0.694936     0.683756
      0.672577     0.661397     0.650218     0.639039     0.627859     0.616680     0.605500     0.594321     0.583141     0.571962
      0.560782     0.549603     0.538424     0.527244     0.516065     0.504885     0.493706     0.482526     0.471347     0.460167
      0.448988     0.437809     0.426629     0.415450     0.404270     0.393091     0.381911     0.370732     0.359552     0.348373
      0.337193     0.326014     0.314835     0.303655     0.292476     0.281296     0.270117     0.258937     0.247758     0.236578
      0.225399     0.214220     0.203040
 NY phased data points follow
   2.65206E-09  3.10701E-09  2.87306E-09  3.34128E-09  4.51393E-09  4.44453E-09  4.53310E-09  4.70047E-09  5.11050E-09  5.22226E-09
   4.67479E-09  3.99327E-09  3.46591E-09  3.63651E-09  4.66342E-09  5.25035E-09  5.12890E-09  4.45204E-09  3.45488E-09  3.25584E-09
   3.85123E-09  5.54746E-09  6.55874E-09  7.88060E-09  8.59571E-09  8.35213E-09  7.50028E-09  7.01382E-09  7.28141E-09  7.16938E-09
   7.19175E-09  6.74844E-09  6.87563E-09  6.40287E-09  6.27051E-09  6.55628E-09  5.40960E-09  5.24564E-09  4.75472E-09  4.44327E-09
   4.74760E-09  4.40540E-09  4.63324E-09  4.10646E-09  3.02767E-09  2.38323E-09  2.08773E-09  1.61677E-09  1.84363E-09 -5.38953E-10
  -1.02920E-09 -6.32948E-10  1.66488E-09  4.54012E-09  6.33381E-09  6.67046E-09  6.49758E-09  6.19835E-09  5.67970E-09  5.53257E-09
   5.09110E-09  4.09477E-09  3.64632E-09  2.62454E-09  2.24630E-09  1.38542E-10 -1.60885E-09 -2.96842E-09 -7.48729E-10  2.49761E-09
   6.12538E-09  6.59444E-09  7.43697E-09  7.53976E-09  8.77026E-09  8.18224E-09  8.55372E-09  7.94887E-09  8.58941E-09  8.53146E-09
   9.80083E-09  8.60730E-09  9.52431E-09  8.42194E-09  8.89066E-09  8.00038E-09  8.53698E-09  7.91197E-09  8.40590E-09  7.32000E-09
   7.86859E-09  6.81262E-09  7.88480E-09  7.29833E-09  7.08736E-09  8.17709E-09  8.23945E-09  7.58200E-09  7.07925E-09  6.41699E-09
   5.35976E-09  5.31491E-09  5.62513E-09  5.14719E-09  5.37280E-09  4.71936E-09  5.33927E-09  5.02558E-09  5.38885E-09  5.47979E-09
   6.12586E-09  5.97174E-09  6.25683E-09  5.68469E-09  4.83687E-09  4.27502E-09  3.83741E-09  3.66967E-09  4.45372E-09  3.94050E-09
   4.21565E-09  3.29285E-09  3.82103E-09  3.05365E-09  3.47779E-09  3.18401E-09  3.14074E-09  1.29666E-09  2.00768E-09  2.20110E-09
   3.73161E-09  3.26361E-09  3.67170E-09  3.14291E-09  3.58517E-09  3.54237E-09  5.29417E-09  4.62533E-09  5.39088E-09  5.07038E-09
   6.61784E-09  5.23830E-09  6.14553E-09  5.29981E-09  5.82719E-09  4.92712E-09  6.06585E-09  5.58346E-09  5.62375E-09  4.49569E-09
   5.57659E-09  4.96953E-09  4.90255E-09  4.39036E-09  4.13330E-09  3.49928E-09  3.16335E-09  3.91141E-10 -8.56151E-10  6.38268E-10
   6.28584E-09  1.15218E-08  1.46994E-08  1.47716E-08  1.58831E-08  1.59486E-08  1.71368E-08  1.71242E-08  1.83618E-08  1.80850E-08
   1.91720E-08  1.91932E-08  2.00040E-08  1.99158E-08  2.05443E-08  1.97629E-08  2.01098E-08  2.00310E-08  1.96805E-08  1.92059E-08
   1.91607E-08  1.74212E-08  1.65982E-08  1.41762E-08  1.34452E-08  1.17043E-08  9.34204E-09  6.51238E-09  4.98561E-09  2.26473E-09
   9.10138E-11 -1.80890E-09 -3.20373E-09 -5.21526E-09 -5.91327E-09 -7.27974E-09 -6.86896E-09 -7.03902E-09 -6.38372E-09 -6.73946E-09
  -5.90506E-09 -5.17400E-09 -4.34850E-09 -3.81263E-09 -2.25039E-09 -2.83743E-09 -1.27805E-09 -1.83742E-09 -1.20528E-09 -1.91152E-09
  -1.84326E-09 -1.82219E-09 -1.16598E-09 -1.58174E-09 -8.59209E-10 -1.53528E-09 -8.27727E-10 -1.11539E-09 -5.24068E-10 -1.14579E-09
  -7.27727E-10 -1.07961E-09 -6.32146E-10 -1.37112E-09 -1.32867E-09 -1.42728E-09 -5.47778E-10 -1.07307E-09 -3.49551E-10 -5.47312E-10
  -5.68461E-10 -1.04567E-09 -1.06293E-09 -1.16288E-09 -6.72596E-10 -1.63515E-09 -1.00565E-09 -1.72687E-09 -8.60706E-10 -1.46229E-09
  -8.86598E-10 -1.25061E-09 -2.84145E-10 -5.69483E-10 -3.67250E-10 -2.76044E-10 -8.64281E-11 -6.71634E-10 -4.24390E-10 -5.59408E-10
  -3.31646E-10 -8.40461E-10 -9.49217E-10 -1.78572E-09 -1.44202E-09 -2.19076E-09 -1.36679E-09 -2.24293E-09 -1.72144E-09 -2.22914E-09
  -1.95736E-09 -1.36653E-09 -1.59311E-09 -1.53854E-09 -6.63892E-10 -1.13518E-09 -1.48606E-10 -6.51997E-10  3.31204E-10  6.85193E-11
  -1.16416E-10 -5.42983E-10 -3.75737E-10 -1.20928E-09 -2.36472E-10 -6.84155E-10 -3.16456E-10 -1.14196E-09 -2.14253E-10 -1.15542E-09
  -4.80069E-10 -8.97145E-10 -5.60514E-10 -1.08907E-09 -5.12883E-10 -1.33799E-09 -5.19724E-10 -1.22454E-09 -1.21976E-09 -1.13829E-09
  -1.25743E-09 -9.51561E-10 -1.32581E-09 -1.87486E-09 -1.34086E-09 -1.43230E-09 -1.26297E-09 -1.66627E-09 -1.54722E-09 -1.74385E-09
  -1.61485E-09 -2.01257E-09 -1.78587E-09 -1.73367E-09 -1.27597E-09 -2.07945E-09 -1.74249E-09 -2.03927E-09 -1.80753E-09 -2.23215E-09
  -2.00236E-09 -2.55960E-09 -1.79472E-09 -2.64541E-09 -1.99902E-09 -2.50268E-09 -1.94678E-09 -2.20314E-09 -2.21757E-09 -2.47064E-09
  -1.79557E-09 -2.82002E-09 -2.15142E-09 -2.76539E-09 -2.22269E-09 -2.50999E-09 -2.21723E-09 -2.58577E-09 -2.24197E-09 -2.64681E-09
  -2.46919E-09 -2.81271E-09 -3.21573E-09 -3.09629E-09 -2.43667E-09 -2.88003E-09 -2.65123E-09 -2.83203E-09 -2.38718E-09 -2.55083E-09
  -2.42088E-09 -2.79827E-09 -3.08836E-09 -3.67103E-09 -2.42819E-09 -2.80745E-09 -3.20526E-09 -2.85083E-09 -2.68066E-09 -3.16853E-09
  -3.03760E-09 -3.78690E-09 -3.10760E-09 -3.22604E-09 -3.03651E-09 -3.03791E-09 -2.81041E-09 -2.88668E-09 -3.51646E-09 -3.26854E-09
  -2.94608E-09 -3.47878E-09 -3.21750E-09
 NY points of the fit to the data follow
   6.24243E-09  5.12968E-09  4.31828E-09  3.79319E-09  3.59077E-09  3.56219E-09  3.59744E-09  3.74180E-09  4.99559E-09  4.92202E-09
   4.33998E-09  4.06269E-09  3.90381E-09  4.14196E-09  4.74045E-09  5.41712E-09  6.14911E-09  6.62684E-09  5.97711E-09  3.84383E-09
   3.41469E-09  4.34651E-09  5.40274E-09  6.53729E-09  7.32426E-09  8.14620E-09  8.74123E-09  8.73223E-09  8.42326E-09  8.31404E-09
   8.20900E-09  7.49175E-09  6.81427E-09  6.43205E-09  5.97639E-09  5.51239E-09  5.16392E-09  5.27962E-09  5.32224E-09  5.18443E-09
   5.04467E-09  5.16425E-09  5.08634E-09  4.50075E-09  3.96409E-09  3.39030E-09  2.83144E-09  2.08355E-09  1.86577E-09  1.99952E-09
   2.37617E-09  2.74675E-09  2.89931E-09  3.12515E-09  3.46529E-09  3.59652E-09  3.83384E-09  4.14502E-09  4.30863E-09  4.21407E-09
   4.10153E-09  4.03011E-09  4.27907E-09  4.32076E-09  4.19224E-09  4.55243E-09  4.84582E-09  4.76141E-09  4.89434E-09  5.34883E-09
   5.86160E-09  6.06020E-09  6.23299E-09  6.38972E-09  6.62336E-09  6.94555E-09  7.70878E-09  9.03374E-09  9.63362E-09  9.55841E-09
   9.32461E-09  9.09368E-09  9.00673E-09  9.12381E-09  9.26541E-09  8.96957E-09  8.00665E-09  6.64958E-09  5.53331E-09  5.18704E-09
   5.00543E-09  4.92612E-09  4.98312E-09  4.82743E-09  4.54389E-09  4.56528E-09  4.48984E-09  4.26646E-09  4.27695E-09  4.46767E-09
   4.92691E-09  5.06836E-09  5.09959E-09  5.53431E-09  5.89993E-09  6.09022E-09  6.24585E-09  6.45514E-09  6.53682E-09  6.46586E-09
   6.18503E-09  5.84155E-09  5.88934E-09  5.59270E-09  5.02676E-09  4.83638E-09  4.71528E-09  4.56468E-09  4.43209E-09  4.39095E-09
   4.25703E-09  4.12355E-09  4.08128E-09  4.06554E-09  4.06042E-09  4.06046E-09  4.06320E-09  4.06734E-09  4.07214E-09  4.07712E-09
   4.08195E-09  4.08642E-09  4.09036E-09  4.09368E-09  4.09629E-09  4.09813E-09  4.09914E-09  4.09930E-09  4.09859E-09  4.09702E-09
   4.09457E-09  4.09127E-09  4.08713E-09  4.08216E-09  4.07642E-09  4.06994E-09  4.06280E-09  4.05507E-09  4.04686E-09  4.03827E-09
   4.02949E-09  4.02070E-09  4.01218E-09  4.00428E-09  3.99746E-09  3.99238E-09  3.98992E-09  3.99138E-09  3.99867E-09  4.01477E-09
   4.04450E-09  4.09618E-09  4.18545E-09  4.34521E-09  4.65717E-09  5.38531E-09  7.83545E-09  1.46889E-08  1.87492E-08  1.95098E-08
   1.92401E-08  1.91923E-08  1.96674E-08  2.04767E-08  2.14269E-08  2.19380E-08  2.04515E-08  1.48740E-08  7.13685E-09  5.01964E-09
   4.24136E-09  3.83648E-09  3.58075E-09  3.39814E-09  3.25617E-09  3.13883E-09  3.03734E-09  2.94649E-09  2.86306E-09  2.78492E-09
   2.71063E-09  2.63919E-09  2.56989E-09  2.50222E-09  2.43577E-09  2.37026E-09  2.30548E-09  2.24127E-09  2.17748E-09  2.11404E-09
   2.05087E-09  1.98790E-09  1.92511E-09  1.86247E-09  1.79995E-09  1.73754E-09  1.67525E-09  1.61307E-09  1.55101E-09  1.48906E-09
   1.42725E-09  1.36558E-09  1.30408E-09  1.24276E-09  1.18164E-09  1.12073E-09  1.06006E-09  9.99660E-10  9.39535E-10  8.79725E-10
   8.20252E-10  7.61138E-10  7.02407E-10  6.44083E-10  5.86190E-10  5.28774E-10  4.71839E-10  4.15419E-10  3.59555E-10  3.04262E-10
   2.49570E-10  1.95508E-10  1.42109E-10  8.93908E-11  3.73936E-11 -1.38567E-11 -6.43354E-11 -1.14012E-10 -1.62857E-10 -2.10835E-10
  -2.57928E-10 -3.04096E-10 -3.49317E-10 -3.93590E-10 -4.36935E-10 -4.79370E-10 -5.20915E-10 -5.61583E-10 -6.01398E-10 -6.40375E-10
  -6.78535E-10 -7.15897E-10 -7.52476E-10 -7.88293E-10 -8.23365E-10 -8.57709E-10 -8.91347E-10 -9.24295E-10 -9.56570E-10 -9.88191E-10
  -1.01918E-09 -1.04955E-09 -1.07932E-09 -1.10851E-09 -1.13714E-09 -1.16522E-09 -1.19277E-09 -1.21982E-09 -1.24638E-09 -1.27246E-09
  -1.29809E-09 -1.32328E-09 -1.34805E-09 -1.37243E-09 -1.39642E-09 -1.42004E-09 -1.44332E-09 -1.46628E-09 -1.48892E-09 -1.51126E-09
  -1.53334E-09 -1.55516E-09 -1.57674E-09 -1.59809E-09 -1.61925E-09 -1.64022E-09 -1.66102E-09 -1.68167E-09 -1.70220E-09 -1.72262E-09
  -1.74293E-09 -1.76317E-09 -1.78335E-09 -1.80348E-09 -1.82360E-09 -1.84372E-09 -1.86384E-09 -1.88399E-09 -1.90419E-09 -1.92445E-09
  -1.94481E-09 -1.96527E-09 -1.98584E-09 -2.00654E-09 -2.02737E-09 -2.04832E-09 -2.06940E-09 -2.09059E-09 -2.11189E-09 -2.13331E-09
  -2.15483E-09 -2.17646E-09 -2.19819E-09 -2.22001E-09 -2.24193E-09 -2.26394E-09 -2.28603E-09 -2.30821E-09 -2.33046E-09 -2.35280E-09
  -2.37521E-09 -2.39768E-09 -2.42022E-09 -2.44283E-09 -2.46550E-09 -2.48822E-09 -2.51099E-09 -2.53381E-09 -2.55668E-09 -2.57959E-09
  -2.60254E-09 -2.62552E-09 -2.64854E-09 -2.67159E-09 -2.69466E-09 -2.71775E-09 -2.74086E-09 -2.76399E-09 -2.78713E-09 -2.81027E-09
  -2.83343E-09 -2.85658E-09 -2.87973E-09 -2.90287E-09 -2.92601E-09 -2.94914E-09 -2.97225E-09 -2.99534E-09 -3.01841E-09 -3.04145E-09
  -3.06446E-09 -3.08744E-09 -3.11038E-09 -3.13329E-09 -3.15615E-09 -3.17896E-09 -3.20173E-09 -3.22444E-09 -3.24710E-09 -3.26969E-09
  -3.29222E-09 -3.31469E-09 -3.33709E-09
 NY background values follow
    -5.795E-09   -5.706E-09   -5.617E-09   -5.528E-09   -5.439E-09   -5.350E-09   -5.261E-09   -5.172E-09   -5.083E-09   -4.994E-09
    -4.905E-09   -4.816E-09   -4.727E-09   -4.638E-09   -4.549E-09   -4.460E-09   -4.371E-09   -4.282E-09   -4.193E-09   -4.105E-09
    -4.016E-09   -3.927E-09   -3.839E-09   -3.750E-09   -3.662E-09   -3.574E-09   -3.486E-09   -3.398E-09   -3.310E-09   -3.222E-09
    -3.135E-09   -3.047E-09   -2.960E-09   -2.873E-09   -2.786E-09   -2.699E-09   -2.612E-09   -2.526E-09   -2.439E-09   -2.353E-09
    -2.267E-09   -2.182E-09   -2.096E-09   -2.011E-09   -1.926E-09   -1.841E-09   -1.756E-09   -1.672E-09   -1.588E-09   -1.504E-09
    -1.421E-09   -1.337E-09   -1.254E-09   -1.171E-09   -1.089E-09   -1.007E-09   -9.248E-10   -8.432E-10   -7.619E-10   -6.810E-10
    -6.004E-10   -5.201E-10   -4.401E-10   -3.605E-10   -2.813E-10   -2.025E-10   -1.241E-10   -4.619E-11    3.130E-11    1.083E-10
     1.848E-10    2.608E-10    3.363E-10    4.112E-10    4.855E-10    5.592E-10    6.323E-10    7.048E-10    7.767E-10    8.478E-10
     9.183E-10    9.881E-10    1.057E-09    1.125E-09    1.193E-09    1.260E-09    1.326E-09    1.391E-09    1.455E-09    1.518E-09
     1.581E-09    1.643E-09    1.703E-09    1.763E-09    1.822E-09    1.880E-09    1.937E-09    1.993E-09    2.047E-09    2.101E-09
     2.154E-09    2.205E-09    2.256E-09    2.305E-09    2.354E-09    2.401E-09    2.446E-09    2.491E-09    2.535E-09    2.577E-09
     2.618E-09    2.657E-09    2.696E-09    2.733E-09    2.769E-09    2.803E-09    2.836E-09    2.867E-09    2.898E-09    2.926E-09
     2.954E-09    2.979E-09    3.004E-09    3.027E-09    3.048E-09    3.068E-09    3.087E-09    3.104E-09    3.119E-09    3.134E-09
     3.146E-09    3.158E-09    3.168E-09    3.177E-09    3.184E-09    3.190E-09    3.195E-09    3.198E-09    3.200E-09    3.201E-09
     3.200E-09    3.198E-09    3.195E-09    3.190E-09    3.184E-09    3.177E-09    3.169E-09    3.160E-09    3.149E-09    3.137E-09
     3.124E-09    3.110E-09    3.094E-09    3.077E-09    3.059E-09    3.040E-09    3.020E-09    2.999E-09    2.977E-09    2.953E-09
     2.928E-09    2.902E-09    2.876E-09    2.848E-09    2.819E-09    2.789E-09    2.757E-09    2.725E-09    2.692E-09    2.658E-09
     2.623E-09    2.586E-09    2.549E-09    2.511E-09    2.472E-09    2.432E-09    2.391E-09    2.349E-09    2.306E-09    2.262E-09
     2.217E-09    2.171E-09    2.125E-09    2.077E-09    2.029E-09    1.980E-09    1.930E-09    1.879E-09    1.828E-09    1.776E-09
     1.723E-09    1.670E-09    1.616E-09    1.562E-09    1.507E-09    1.451E-09    1.395E-09    1.339E-09    1.282E-09    1.225E-09
     1.168E-09    1.110E-09    1.052E-09    9.934E-10    9.348E-10    8.761E-10    8.171E-10    7.581E-10    6.989E-10    6.397E-10
     5.804E-10    5.211E-10    4.619E-10    4.027E-10    3.435E-10    2.845E-10    2.256E-10    1.669E-10    1.084E-10    5.014E-11
    -7.865E-12   -6.558E-11   -1.230E-10   -1.800E-10   -2.367E-10   -2.929E-10   -3.487E-10   -4.040E-10   -4.588E-10   -5.131E-10
    -5.668E-10   -6.199E-10   -6.724E-10   -7.242E-10   -7.753E-10   -8.257E-10   -8.754E-10   -9.243E-10   -9.724E-10   -1.020E-09
    -1.066E-09   -1.111E-09   -1.156E-09   -1.199E-09   -1.242E-09   -1.284E-09   -1.325E-09   -1.365E-09   -1.404E-09   -1.442E-09
    -1.480E-09   -1.517E-09   -1.553E-09   -1.588E-09   -1.623E-09   -1.656E-09   -1.690E-09   -1.722E-09   -1.754E-09   -1.785E-09
    -1.815E-09   -1.845E-09   -1.874E-09   -1.903E-09   -1.931E-09   -1.959E-09   -1.986E-09   -2.013E-09   -2.039E-09   -2.064E-09
    -2.090E-09   -2.114E-09   -2.139E-09   -2.163E-09   -2.186E-09   -2.209E-09   -2.232E-09   -2.255E-09   -2.277E-09   -2.299E-09
    -2.321E-09   -2.342E-09   -2.363E-09   -2.384E-09   -2.405E-09   -2.425E-09   -2.446E-09   -2.466E-09   -2.486E-09   -2.506E-09
    -2.526E-09   -2.546E-09   -2.566E-09   -2.586E-09   -2.605E-09   -2.625E-09   -2.645E-09   -2.665E-09   -2.684E-09   -2.704E-09
    -2.724E-09   -2.744E-09   -2.765E-09   -2.785E-09   -2.805E-09   -2.826E-09   -2.847E-09   -2.868E-09   -2.888E-09   -2.910E-09
    -2.931E-09   -2.952E-09   -2.973E-09   -2.995E-09   -3.016E-09   -3.038E-09   -3.060E-09   -3.081E-09   -3.103E-09   -3.125E-09
    -3.147E-09   -3.170E-09   -3.192E-09   -3.214E-09   -3.236E-09   -3.259E-09   -3.281E-09   -3.303E-09   -3.326E-09   -3.348E-09
    -3.371E-09   -3.394E-09   -3.416E-09   -3.439E-09   -3.462E-09   -3.484E-09   -3.507E-09   -3.530E-09   -3.553E-09   -3.575E-09
    -3.598E-09   -3.621E-09   -3.644E-09   -3.667E-09   -3.689E-09   -3.712E-09   -3.735E-09   -3.757E-09   -3.780E-09   -3.803E-09
    -3.825E-09   -3.848E-09   -3.871E-09   -3.893E-09   -3.916E-09   -3.938E-09   -3.960E-09   -3.983E-09   -4.005E-09   -4.027E-09
    -4.049E-09   -4.071E-09   -4.093E-09
 Ala      Conc. = 6.25E-10
  -5.34381E-09 -5.21784E-09 -5.11722E-09 -5.01530E-09 -4.92337E-09 -4.83075E-09 -4.75373E-09 -4.74048E-09 -4.69632E-09 -4.59833E-09
  -4.58838E-09 -4.57920E-09 -4.50375E-09 -4.45039E-09 -4.40357E-09 -4.33933E-09 -4.26647E-09 -4.18887E-09 -4.10839E-09 -4.02603E-09
  -3.94239E-09 -3.85784E-09 -3.77264E-09 -3.68698E-09 -3.60099E-09 -3.51476E-09 -3.42833E-09 -3.34180E-09 -3.25522E-09 -3.16859E-09
  -3.08198E-09 -2.99537E-09 -2.90882E-09 -2.82236E-09 -2.73596E-09 -2.64965E-09 -2.56348E-09 -2.47744E-09 -2.39153E-09 -2.30578E-09
  -2.22017E-09 -2.13474E-09 -2.04949E-09 -1.96444E-09 -1.87957E-09 -1.79492E-09 -1.71047E-09 -1.62623E-09 -1.54225E-09 -1.45849E-09
  -1.37497E-09 -1.29169E-09 -1.20867E-09 -1.12593E-09 -1.04343E-09 -9.61202E-10 -8.79261E-10 -7.97620E-10 -7.16251E-10 -6.35221E-10
  -5.54466E-10 -4.74018E-10 -3.93895E-10 -3.14116E-10 -2.34687E-10 -1.55636E-10 -7.69751E-11  1.27440E-12  7.91055E-11  1.56498E-10
   2.33434E-10  3.09903E-10  3.85886E-10  4.61384E-10  5.36370E-10  6.10838E-10  6.84793E-10  7.58201E-10  8.31093E-10  9.03435E-10
   9.75252E-10  1.04655E-09  1.11734E-09  1.18763E-09  1.25747E-09  1.32692E-09  1.39601E-09  1.46487E-09  1.53362E-09  1.60244E-09
   1.67161E-09  1.74150E-09  1.81272E-09  1.88619E-09  1.96341E-09  2.04704E-09  2.14214E-09  2.25978E-09  2.42962E-09  2.76070E-09
   3.38003E-09  3.62599E-09  3.73801E-09  4.23567E-09  4.64142E-09  4.84510E-09  4.95618E-09  5.04955E-09  5.10282E-09  4.98999E-09
   4.60551E-09  4.20006E-09  4.23093E-09  3.93176E-09  3.36206E-09  3.17795E-09  3.10880E-09  3.08190E-09  3.07451E-09  3.07729E-09
   3.08574E-09  3.09734E-09  3.11065E-09  3.12474E-09  3.13905E-09  3.15317E-09  3.16681E-09  3.17979E-09  3.19196E-09  3.20320E-09
   3.21345E-09  3.22264E-09  3.23073E-09  3.23769E-09  3.24348E-09  3.24809E-09  3.25151E-09  3.25374E-09  3.25475E-09  3.25455E-09
   3.25314E-09  3.25053E-09  3.24671E-09  3.24168E-09  3.23547E-09  3.22806E-09  3.21948E-09  3.20972E-09  3.19882E-09  3.18677E-09
   3.17359E-09  3.15930E-09  3.14394E-09  3.12751E-09  3.11007E-09  3.09166E-09  3.07233E-09  3.05217E-09  3.03131E-09  3.00994E-09
   2.98834E-09  2.96704E-09  2.94698E-09  2.93017E-09  2.92160E-09  2.93749E-09  3.05912E-09  3.44617E-09  3.65873E-09  3.67073E-09
   3.62089E-09  3.58434E-09  3.57872E-09  3.59239E-09  3.61361E-09  3.60676E-09  3.47629E-09  3.09543E-09  2.58649E-09  2.42028E-09
   2.33166E-09  2.26432E-09  2.20505E-09  2.14935E-09  2.09532E-09  2.04202E-09  1.98895E-09  1.93583E-09  1.88250E-09  1.82886E-09
   1.77483E-09  1.72040E-09  1.66555E-09  1.61028E-09  1.55458E-09  1.49847E-09  1.44198E-09  1.38511E-09  1.32788E-09  1.27032E-09
   1.21246E-09  1.15431E-09  1.09591E-09  1.03728E-09  9.78445E-10  9.19436E-10  8.60279E-10  8.01016E-10  7.41658E-10  6.82237E-10
   6.22786E-10  5.63339E-10  5.03920E-10  4.44562E-10  3.85284E-10  3.26125E-10  2.67121E-10  2.08291E-10  1.49663E-10  9.12783E-11
   3.31648E-11 -2.46509E-11 -8.21384E-11 -1.39272E-10 -1.96022E-10 -2.52340E-10 -3.08219E-10 -3.63621E-10 -4.18506E-10 -4.72852E-10
  -5.26630E-10 -5.79806E-10 -6.32350E-10 -6.84238E-10 -7.35431E-10 -7.85900E-10 -8.35620E-10 -8.84559E-10 -9.32685E-10 -9.79964E-10
  -1.02637E-09 -1.07188E-09 -1.11645E-09 -1.16009E-09 -1.20281E-09 -1.24464E-09 -1.28559E-09 -1.32568E-09 -1.36493E-09 -1.40335E-09
  -1.44096E-09 -1.47778E-09 -1.51384E-09 -1.54913E-09 -1.58370E-09 -1.61754E-09 -1.65068E-09 -1.68314E-09 -1.71494E-09 -1.74609E-09
  -1.77661E-09 -1.80652E-09 -1.83584E-09 -1.86458E-09 -1.89277E-09 -1.92041E-09 -1.94753E-09 -1.97415E-09 -2.00029E-09 -2.02595E-09
  -2.05117E-09 -2.07595E-09 -2.10032E-09 -2.12429E-09 -2.14789E-09 -2.17112E-09 -2.19401E-09 -2.21657E-09 -2.23883E-09 -2.26080E-09
  -2.28249E-09 -2.30393E-09 -2.32514E-09 -2.34612E-09 -2.36691E-09 -2.38752E-09 -2.40795E-09 -2.42824E-09 -2.44841E-09 -2.46846E-09
  -2.48842E-09 -2.50829E-09 -2.52812E-09 -2.54790E-09 -2.56767E-09 -2.58743E-09 -2.60721E-09 -2.62701E-09 -2.64686E-09 -2.66677E-09
  -2.68678E-09 -2.70690E-09 -2.72712E-09 -2.74748E-09 -2.76797E-09 -2.78858E-09 -2.80931E-09 -2.83016E-09 -2.85113E-09 -2.87220E-09
  -2.89339E-09 -2.91467E-09 -2.93606E-09 -2.95755E-09 -2.97912E-09 -3.00079E-09 -3.02254E-09 -3.04438E-09 -3.06630E-09 -3.08829E-09
  -3.11036E-09 -3.13249E-09 -3.15469E-09 -3.17696E-09 -3.19928E-09 -3.22166E-09 -3.24409E-09 -3.26657E-09 -3.28909E-09 -3.31166E-09
  -3.33426E-09 -3.35691E-09 -3.37958E-09 -3.40227E-09 -3.42500E-09 -3.44774E-09 -3.47050E-09 -3.49328E-09 -3.51607E-09 -3.53886E-09
  -3.56166E-09 -3.58446E-09 -3.60725E-09 -3.63004E-09 -3.65282E-09 -3.67559E-09 -3.69834E-09 -3.72107E-09 -3.74377E-09 -3.76645E-09
  -3.78909E-09 -3.81171E-09 -3.83428E-09 -3.85682E-09 -3.87930E-09 -3.90175E-09 -3.92414E-09 -3.94647E-09 -3.96875E-09 -3.99097E-09
  -4.01312E-09 -4.03520E-09 -4.05721E-09
 Asp      Conc. = 3.24E-10
  -5.44239E-09 -5.40415E-09 -5.34764E-09 -5.30151E-09 -5.23942E-09 -5.19477E-09 -5.15252E-09 -5.10214E-09 -5.03055E-09 -4.95119E-09
  -4.86823E-09 -4.78322E-09 -4.69672E-09 -4.60901E-09 -4.52105E-09 -4.43290E-09 -4.34455E-09 -4.25603E-09 -4.16739E-09 -4.07864E-09
  -3.98979E-09 -3.90087E-09 -3.81186E-09 -3.72278E-09 -3.63363E-09 -3.54439E-09 -3.45498E-09 -3.36542E-09 -3.27564E-09 -3.18551E-09
  -3.09494E-09 -3.00367E-09 -2.91136E-09 -2.81740E-09 -2.72041E-09 -2.61707E-09 -2.49941E-09 -2.39203E-09 -2.28186E-09 -2.19013E-09
  -2.10712E-09 -2.01606E-09 -1.89686E-09 -1.74672E-09 -1.57586E-09 -1.40032E-09 -1.30906E-09 -1.26633E-09 -1.15544E-09 -1.03688E-09
  -9.11015E-10 -7.86445E-10 -6.92804E-10 -6.59129E-10 -6.67719E-10 -6.76279E-10 -6.53893E-10 -5.59760E-10 -4.97073E-10 -4.87041E-10
  -4.38191E-10 -3.79584E-10 -3.25446E-10 -2.47452E-10 -1.59371E-10 -8.82791E-11 -3.71242E-11  2.52727E-11  9.27759E-11  1.62710E-10
   2.33896E-10  3.05721E-10  3.77816E-10  4.49958E-10  5.21970E-10  5.93736E-10  6.65177E-10  7.36195E-10  8.06764E-10  8.76801E-10
   9.46284E-10  1.01517E-09  1.08342E-09  1.15100E-09  1.21788E-09  1.28405E-09  1.34946E-09  1.41409E-09  1.47793E-09  1.54094E-09
   1.60311E-09  1.66440E-09  1.72479E-09  1.78428E-09  1.84283E-09  1.90043E-09  1.95705E-09  2.01268E-09  2.06729E-09  2.12085E-09
   2.17336E-09  2.22480E-09  2.27513E-09  2.32435E-09  2.37243E-09  2.41934E-09  2.46510E-09  2.50964E-09  2.55297E-09  2.59507E-09
   2.63590E-09  2.67548E-09  2.71374E-09  2.75071E-09  2.78634E-09  2.82061E-09  2.85352E-09  2.88503E-09  2.91513E-09  2.94378E-09
   2.97102E-09  2.99678E-09  3.02106E-09  3.04388E-09  3.06524E-09  3.08515E-09  3.10362E-09  3.12067E-09  3.13629E-09  3.15051E-09
   3.16333E-09  3.17476E-09  3.18481E-09  3.19350E-09  3.20082E-09  3.20679E-09  3.21143E-09  3.21474E-09  3.21672E-09  3.21740E-09
   3.21678E-09  3.21488E-09  3.21170E-09  3.20725E-09  3.20154E-09  3.19460E-09  3.18642E-09  3.17702E-09  3.16642E-09  3.15462E-09
   3.14164E-09  3.12750E-09  3.11222E-09  3.09581E-09  3.07830E-09  3.05972E-09  3.04010E-09  3.01950E-09  2.99799E-09  2.97565E-09
   2.95266E-09  2.92928E-09  2.90598E-09  2.88379E-09  2.86522E-09  2.85830E-09  2.90289E-09  3.09053E-09  3.18811E-09  3.17894E-09
   3.13588E-09  3.09896E-09  3.07785E-09  3.06648E-09  3.05894E-09  3.03733E-09  2.95268E-09  2.73684E-09  2.44707E-09  2.33801E-09
   2.27027E-09  2.21336E-09  2.16024E-09  2.10857E-09  2.05735E-09  2.00613E-09  1.95466E-09  1.90279E-09  1.85047E-09  1.79766E-09
   1.74433E-09  1.69049E-09  1.63615E-09  1.58132E-09  1.52601E-09  1.47024E-09  1.41405E-09  1.35746E-09  1.30048E-09  1.24315E-09
   1.18549E-09  1.12753E-09  1.06930E-09  1.01083E-09  9.52142E-10  8.93272E-10  8.34243E-10  7.75100E-10  7.15855E-10  6.56541E-10
   5.97191E-10  5.37839E-10  4.78510E-10  4.19239E-10  3.60043E-10  3.00963E-10  2.42034E-10  1.83276E-10  1.24718E-10  6.63989E-11
   8.34851E-12 -4.94065E-11 -1.06836E-10 -1.63913E-10 -2.20609E-10 -2.76875E-10 -3.32703E-10 -3.88057E-10 -4.42894E-10 -4.97194E-10
