 LCModel (Version 6.3-1R) Copyright: S.W. Provencher.          Ref.: Magn. Reson. Med. 30:672-679 (1993).                
 onepulse 27x12_ftSpec_smooth_lcm
 26 lines in following concentration table = NCONC+1
    Conc.  %SD   /Cr    Metabolite                                         
 3.97E-10  68%   0.000 Ala                                                 
 3.02E-10 251%   0.000 Asp                                                 
    0.000 999%   0.000 Cr                                                  
 9.10E-10  54%   0.000 GABA                                                
 8.60E-10 112%   0.000 Glc                                                 
    0.000 999%   0.000 Gln                                                 
    0.000 999%   0.000 Glu                                                 
 1.74E-09  97%   0.000 Glyc                                                
    0.000 999%   0.000 GPC                                                 
 1.42E-09  36%   0.000 GSH                                                 
    0.000 999%   0.000 Ins                                                 
    0.000 999%   0.000 Lac                                                 
 5.76E-10  60%   0.000 NAAG                                                
 2.54E-10 181%   0.000 NAA                                                 
    0.000 999%   0.000 PCh                                                 
    0.000 999%   0.000 PCr                                                 
 3.21E-09  28%   0.000 PE                                                  
    0.000 999%   0.000 Scyllo                                              
    0.000 999%   0.000 Ser                                                 
 4.71E-10 175%   0.000 Tau                                                 
    0.000 999%   0.000 GPC+PCh                                             
 8.30E-10  27%   0.000 NAA+NAAG                                            
 1.74E-09  31%   0.000 Ins+Glyc                                            
    0.000 999%   0.000 Cr+PCr                                              
    0.000 999%   0.000 Glu+Gln                                             
   6 lines in following misc. output table
  FWHM = 0.123 ppm    S/N =   3                                            
  Data shift = 0.481 ppm                                                   
  Ph:  82 deg     -15.3 deg/ppm                                            
  alphaB,S = 6.7E-01,   1.4E+01                                            
   10 spline knots.   Ns = 5(1)                                            
  (12) 6 infls.   (11) 5 extrs.                                            
  363 points on ppm-axis = NY
      4.250000     4.238821     4.227641     4.216462     4.205282     4.194103     4.182923     4.171744     4.160564     4.149385
      4.138206     4.127026     4.115847     4.104667     4.093488     4.082308     4.071129     4.059949     4.048770     4.037591
      4.026411     4.015232     4.004052     3.992873     3.981693     3.970514     3.959334     3.948155     3.936975     3.925796
      3.914617     3.903437     3.892258     3.881078     3.869899     3.858719     3.847540     3.836360     3.825181     3.814002
      3.802822     3.791643     3.780463     3.769284     3.758104     3.746925     3.735745     3.724566     3.713387     3.702207
      3.691028     3.679848     3.668669     3.657489     3.646310     3.635130     3.623951     3.612772     3.601592     3.590413
      3.579233     3.568054     3.556874     3.545695     3.534515     3.523336     3.512156     3.500977     3.489798     3.478618
      3.467439     3.456259     3.445080     3.433900     3.422721     3.411541     3.400362     3.389183     3.378003     3.366824
      3.355644     3.344465     3.333285     3.322106     3.310926     3.299747     3.288568     3.277388     3.266209     3.255029
      3.243850     3.232670     3.221491     3.210311     3.199132     3.187953     3.176773     3.165594     3.154414     3.143235
      3.132055     3.120876     3.109696     3.098517     3.087337     3.076158     3.064979     3.053799     3.042620     3.031440
      3.020261     3.009081     2.997902     2.986722     2.975543     2.964364     2.953184     2.942005     2.930825     2.919646
      2.908466     2.897287     2.886107     2.874928     2.863749     2.852569     2.841390     2.830210     2.819031     2.807851
      2.796672     2.785492     2.774313     2.763134     2.751954     2.740775     2.729595     2.718416     2.707236     2.696057
      2.684877     2.673698     2.662519     2.651339     2.640160     2.628980     2.617801     2.606621     2.595442     2.584262
      2.573083     2.561903     2.550724     2.539545     2.528365     2.517186     2.506006     2.494827     2.483647     2.472468
      2.461288     2.450109     2.438930     2.427750     2.416571     2.405391     2.394212     2.383032     2.371853     2.360673
      2.349494     2.338315     2.327135     2.315956     2.304776     2.293597     2.282417     2.271238     2.260058     2.248879
      2.237700     2.226520     2.215341     2.204161     2.192982     2.181802     2.170623     2.159443     2.148264     2.137084
      2.125905     2.114726     2.103546     2.092367     2.081187     2.070008     2.058828     2.047649     2.036469     2.025290
      2.014111     2.002931     1.991752     1.980572     1.969393     1.958213     1.947034     1.935854     1.924675     1.913496
      1.902316     1.891137     1.879957     1.868778     1.857598     1.846419     1.835239     1.824060     1.812881     1.801701
      1.790522     1.779342     1.768163     1.756983     1.745804     1.734624     1.723445     1.712265     1.701086     1.689907
      1.678727     1.667548     1.656368     1.645189     1.634009     1.622830     1.611650     1.600471     1.589292     1.578112
      1.566933     1.555753     1.544574     1.533394     1.522215     1.511035     1.499856     1.488677     1.477497     1.466318
      1.455138     1.443959     1.432779     1.421600     1.410420     1.399241     1.388062     1.376882     1.365703     1.354523
      1.343344     1.332164     1.320985     1.309805     1.298626     1.287446     1.276267     1.265088     1.253908     1.242729
      1.231549     1.220370     1.209190     1.198011     1.186831     1.175652     1.164473     1.153293     1.142114     1.130934
      1.119755     1.108575     1.097396     1.086216     1.075037     1.063858     1.052678     1.041499     1.030319     1.019140
      1.007960     0.996781     0.985601     0.974422     0.963243     0.952063     0.940884     0.929704     0.918525     0.907345
      0.896166     0.884986     0.873807     0.862628     0.851448     0.840269     0.829089     0.817910     0.806730     0.795551
      0.784371     0.773192     0.762012     0.750833     0.739654     0.728474     0.717295     0.706115     0.694936     0.683756
      0.672577     0.661397     0.650218     0.639039     0.627859     0.616680     0.605500     0.594321     0.583141     0.571962
      0.560782     0.549603     0.538424     0.527244     0.516065     0.504885     0.493706     0.482526     0.471347     0.460167
      0.448988     0.437809     0.426629     0.415450     0.404270     0.393091     0.381911     0.370732     0.359552     0.348373
      0.337193     0.326014     0.314835     0.303655     0.292476     0.281296     0.270117     0.258937     0.247758     0.236578
      0.225399     0.214220     0.203040
 NY phased data points follow
   5.49717E-09  6.08442E-09  5.92924E-09  6.62014E-09  7.34014E-09  7.04694E-09  7.47268E-09  7.26213E-09  7.65078E-09  7.20539E-09
   6.95400E-09  5.82811E-09  5.91537E-09  6.59066E-09  7.41404E-09  7.52748E-09  7.00330E-09  5.95590E-09  5.29989E-09  5.24493E-09
   6.83073E-09  8.46329E-09  9.06876E-09  1.05361E-08  1.02370E-08  9.58380E-09  8.69459E-09  8.47567E-09  8.49444E-09  8.45290E-09
   8.41497E-09  7.73664E-09  7.97728E-09  7.47779E-09  7.82037E-09  7.29134E-09  6.33677E-09  5.59483E-09  5.59850E-09  5.45017E-09
   5.72848E-09  5.48789E-09  5.54262E-09  4.71812E-09  3.90605E-09  3.17875E-09  2.73286E-09  2.99637E-09  2.71322E-09  5.82156E-10
   5.48765E-11  1.65082E-09  4.73625E-09  6.81041E-09  7.96853E-09  7.59256E-09  7.27884E-09  7.03132E-09  6.50376E-09  6.40392E-09
   5.58109E-09  4.83400E-09  4.49388E-09  3.61884E-09  2.71175E-09  1.21393E-09 -5.78279E-10 -1.47133E-09  1.35317E-09  5.70681E-09
   8.67006E-09  8.32328E-09  8.63275E-09  8.72580E-09  9.65127E-09  8.92366E-09  9.33325E-09  8.66698E-09  9.57685E-09  9.53977E-09
   1.02766E-08  9.37804E-09  9.86031E-09  9.12741E-09  9.42514E-09  8.70551E-09  8.87040E-09  8.38590E-09  8.65399E-09  7.51199E-09
   7.95831E-09  7.32291E-09  7.91489E-09  6.95413E-09  7.35235E-09  8.25645E-09  8.22615E-09  7.69755E-09  7.10218E-09  6.19219E-09
   5.01811E-09  5.06184E-09  5.18155E-09  5.33984E-09  5.26058E-09  4.63495E-09  5.73223E-09  5.43040E-09  5.47316E-09  5.42112E-09
   5.99011E-09  6.18896E-09  5.90256E-09  5.55217E-09  4.79342E-09  4.23323E-09  3.52289E-09  3.73665E-09  4.27097E-09  3.88457E-09
   3.62502E-09  3.59295E-09  3.74133E-09  4.06188E-09  3.60918E-09  3.91075E-09  3.00539E-09  1.89881E-09  2.00444E-09  3.46731E-09
   4.40383E-09  4.49672E-09  4.19151E-09  3.94845E-09  4.26438E-09  4.71166E-09  5.95118E-09  5.60405E-09  6.09484E-09  6.19310E-09
   6.67882E-09  5.93227E-09  6.40145E-09  6.28029E-09  6.35199E-09  5.98120E-09  6.18579E-09  6.54676E-09  5.90595E-09  5.16784E-09
   5.74440E-09  5.39589E-09  5.40600E-09  4.99303E-09  4.95674E-09  4.74101E-09  3.96212E-09  1.35047E-09 -1.32015E-09 -2.62599E-10
   5.99096E-09  1.18072E-08  1.44634E-08  1.46950E-08  1.53493E-08  1.57001E-08  1.64315E-08  1.70298E-08  1.71520E-08  1.75974E-08
   1.83327E-08  1.86503E-08  1.84334E-08  1.87403E-08  1.88588E-08  1.80611E-08  1.74161E-08  1.70467E-08  1.59933E-08  1.55867E-08
   1.43892E-08  1.26436E-08  1.10995E-08  8.67910E-09  7.55346E-09  5.77982E-09  3.52555E-09  1.50427E-09  3.77143E-13 -1.38219E-09
  -2.99647E-09 -3.87391E-09 -4.92000E-09 -5.24503E-09 -5.62720E-09 -5.65331E-09 -4.97965E-09 -4.53944E-09 -3.84450E-09 -3.76009E-09
  -3.25803E-09 -2.45440E-09 -2.65119E-09 -2.20294E-09 -1.00041E-09 -1.62668E-09 -1.07756E-09 -1.40905E-09 -1.20603E-09 -1.43312E-09
  -1.62040E-09 -1.28553E-09 -1.15536E-09 -8.33381E-10 -5.22730E-10 -8.82796E-10 -8.18273E-10 -1.11310E-09 -6.16650E-10 -9.10302E-10
  -1.19952E-09 -7.43337E-10 -7.49442E-10 -1.13537E-09 -1.42616E-09 -6.76747E-10 -3.10547E-10 -7.13757E-10 -7.62602E-10 -5.36807E-10
  -8.23901E-10 -9.01717E-10 -1.26930E-09 -1.18175E-09 -1.16767E-09 -1.51134E-09 -1.24893E-09 -1.48655E-09 -1.21241E-09 -9.69997E-10
  -8.31797E-10 -6.27438E-10 -4.92962E-10 -5.73714E-10 -4.54301E-10 -2.30653E-10 -6.25542E-10 -6.23900E-10 -9.60237E-10 -4.06785E-10
  -7.62400E-10 -3.85616E-10 -9.50112E-10 -1.58683E-09 -1.43728E-09 -1.91927E-09 -1.96251E-09 -1.95490E-09 -2.11442E-09 -2.24595E-09
  -2.44566E-09 -1.45221E-09 -1.83649E-09 -1.53920E-09 -1.30249E-09 -1.12893E-09 -6.27677E-10 -3.24372E-10 -4.07812E-10 -1.93334E-10
  -2.85136E-10 -2.51066E-10 -5.47865E-10 -6.68473E-10 -3.59895E-10 -6.12952E-10 -6.45048E-10 -5.42551E-10 -2.70285E-10 -9.23637E-10
  -5.53516E-10 -8.56469E-10 -8.12838E-10 -8.33044E-10 -4.36906E-10 -8.59037E-10 -9.37975E-10 -6.51808E-10 -1.25913E-09 -1.02844E-09
  -1.18247E-09 -8.33719E-10 -1.25835E-09 -1.12125E-09 -1.35117E-09 -7.31282E-10 -1.24971E-09 -1.34711E-09 -1.40017E-09 -1.61880E-09
  -1.76979E-09 -1.34736E-09 -1.57083E-09 -1.39211E-09 -1.23855E-09 -1.62153E-09 -1.70066E-09 -1.62705E-09 -1.55562E-09 -1.94532E-09
  -1.77174E-09 -2.24042E-09 -1.86637E-09 -1.95029E-09 -2.06603E-09 -2.14470E-09 -1.79011E-09 -2.01277E-09 -2.11264E-09 -2.06360E-09
  -2.10796E-09 -2.46117E-09 -2.10969E-09 -2.26027E-09 -2.29833E-09 -2.07063E-09 -2.39646E-09 -2.38158E-09 -2.27215E-09 -2.39272E-09
  -2.32937E-09 -2.55688E-09 -2.60058E-09 -2.95811E-09 -2.90477E-09 -2.90386E-09 -2.80712E-09 -2.77522E-09 -2.77267E-09 -2.67756E-09
  -2.61626E-09 -2.72520E-09 -2.77952E-09 -3.36292E-09 -2.96075E-09 -2.42708E-09 -3.34550E-09 -3.12134E-09 -3.07926E-09 -2.93381E-09
  -3.50250E-09 -3.06434E-09 -3.44529E-09 -2.68936E-09 -2.84115E-09 -3.73950E-09 -3.05258E-09 -2.90973E-09 -3.54791E-09 -3.37382E-09
  -3.22919E-09 -3.44009E-09 -3.38187E-09
 NY points of the fit to the data follow
   8.17707E-09  7.33191E-09  7.02793E-09  6.46527E-09  6.40204E-09  6.37345E-09  6.26510E-09  6.83400E-09  8.60462E-09  7.25252E-09
   5.81109E-09  5.40634E-09  5.45487E-09  6.10932E-09  7.07099E-09  7.41026E-09  7.68773E-09  8.11660E-09  8.02687E-09  6.27848E-09
   6.02898E-09  6.91414E-09  7.82171E-09  8.97350E-09  9.23507E-09  9.38300E-09  9.42022E-09  9.24000E-09  9.43469E-09  9.91941E-09
   9.78466E-09  8.78163E-09  8.34818E-09  7.90649E-09  7.16908E-09  6.51464E-09  6.25697E-09  6.26017E-09  6.09298E-09  5.93491E-09
   5.75252E-09  5.83991E-09  6.04192E-09  5.59615E-09  4.89725E-09  4.33069E-09  4.01798E-09  3.13037E-09  2.96299E-09  3.12281E-09
   3.58389E-09  3.85278E-09  3.88500E-09  4.38684E-09  4.75203E-09  4.63195E-09  4.90834E-09  5.17675E-09  5.23613E-09  5.10411E-09
   5.06955E-09  4.87317E-09  5.07042E-09  5.04092E-09  4.70792E-09  5.16625E-09  5.44279E-09  5.13245E-09  5.34777E-09  6.07927E-09
   6.58168E-09  6.76549E-09  7.27189E-09  7.32417E-09  7.63733E-09  8.63126E-09  9.66492E-09  1.03856E-08  1.04319E-08  1.02561E-08
   9.99005E-09  9.80407E-09  9.64449E-09  9.39539E-09  9.34168E-09  9.24137E-09  8.49158E-09  7.06627E-09  6.03380E-09  5.75886E-09
   5.56640E-09  5.39104E-09  5.47309E-09  5.43879E-09  5.09901E-09  5.10522E-09  5.13570E-09  4.92543E-09  4.92440E-09  5.09468E-09
   5.45671E-09  5.34783E-09  5.30348E-09  5.76675E-09  5.92628E-09  5.89184E-09  5.89538E-09  5.93375E-09  5.97868E-09  5.99443E-09
   5.77902E-09  5.35213E-09  5.44447E-09  5.39020E-09  4.95942E-09  4.82167E-09  4.77011E-09  4.74895E-09  4.74147E-09  4.74099E-09
   4.74430E-09  4.74969E-09  4.75610E-09  4.76288E-09  4.76956E-09  4.77584E-09  4.78150E-09  4.78634E-09  4.79024E-09  4.79310E-09
   4.79482E-09  4.79534E-09  4.79460E-09  4.79256E-09  4.78918E-09  4.78441E-09  4.77824E-09  4.77064E-09  4.76160E-09  4.75111E-09
   4.73916E-09  4.72577E-09  4.71094E-09  4.69470E-09  4.67706E-09  4.65807E-09  4.63778E-09  4.61628E-09  4.59367E-09  4.57007E-09
   4.54565E-09  4.52065E-09  4.49537E-09  4.47021E-09  4.44573E-09  4.42271E-09  4.40227E-09  4.38607E-09  4.37665E-09  4.37797E-09
   4.39656E-09  4.44401E-09  4.54302E-09  4.74422E-09  5.18525E-09  6.38100E-09  1.10381E-08  1.84131E-08  1.90925E-08  1.77937E-08
   1.78295E-08  1.84593E-08  1.88436E-08  1.89142E-08  1.88532E-08  1.91371E-08  1.89714E-08  1.43908E-08  6.71970E-09  4.55960E-09
   3.77412E-09  3.36018E-09  3.09137E-09  2.89270E-09  2.73273E-09  2.59618E-09  2.47478E-09  2.36370E-09  2.25999E-09  2.16174E-09
   2.06764E-09  1.97685E-09  1.88874E-09  1.80290E-09  1.71899E-09  1.63683E-09  1.55624E-09  1.47713E-09  1.39942E-09  1.32306E-09
   1.24805E-09  1.17435E-09  1.10200E-09  1.03099E-09  9.61352E-10  8.93114E-10  8.26332E-10  7.61010E-10  6.97205E-10  6.34868E-10
   5.73974E-10  5.14482E-10  4.56367E-10  3.99592E-10  3.44134E-10  2.89957E-10  2.37044E-10  1.85367E-10  1.34894E-10  8.56036E-11
   3.74815E-11 -9.50839E-12 -5.53860E-11 -1.00171E-10 -1.43889E-10 -1.86561E-10 -2.28199E-10 -2.68844E-10 -3.08513E-10 -3.47210E-10
  -3.84967E-10 -4.21810E-10 -4.57749E-10 -4.92816E-10 -5.27022E-10 -5.60397E-10 -5.92958E-10 -6.24715E-10 -6.55700E-10 -6.85929E-10
  -7.15421E-10 -7.44193E-10 -7.72273E-10 -7.99677E-10 -8.26421E-10 -8.52529E-10 -8.78025E-10 -9.02932E-10 -9.27246E-10 -9.50998E-10
  -9.74218E-10 -9.96925E-10 -1.01913E-09 -1.04084E-09 -1.06211E-09 -1.08293E-09 -1.10333E-09 -1.12332E-09 -1.14294E-09 -1.16220E-09
  -1.18111E-09 -1.19968E-09 -1.21793E-09 -1.23588E-09 -1.25354E-09 -1.27092E-09 -1.28804E-09 -1.30491E-09 -1.32154E-09 -1.33795E-09
  -1.35415E-09 -1.37015E-09 -1.38598E-09 -1.40163E-09 -1.41713E-09 -1.43249E-09 -1.44773E-09 -1.46285E-09 -1.47787E-09 -1.49281E-09
  -1.50767E-09 -1.52247E-09 -1.53723E-09 -1.55196E-09 -1.56667E-09 -1.58138E-09 -1.59609E-09 -1.61083E-09 -1.62561E-09 -1.64044E-09
  -1.65533E-09 -1.67030E-09 -1.68536E-09 -1.70052E-09 -1.71581E-09 -1.73122E-09 -1.74678E-09 -1.76251E-09 -1.77840E-09 -1.79448E-09
  -1.81076E-09 -1.82725E-09 -1.84398E-09 -1.86094E-09 -1.87815E-09 -1.89564E-09 -1.91341E-09 -1.93147E-09 -1.94984E-09 -1.96853E-09
  -1.98756E-09 -2.00694E-09 -2.02667E-09 -2.04673E-09 -2.06713E-09 -2.08784E-09 -2.10886E-09 -2.13019E-09 -2.15181E-09 -2.17371E-09
  -2.19589E-09 -2.21834E-09 -2.24104E-09 -2.26399E-09 -2.28718E-09 -2.31060E-09 -2.33424E-09 -2.35810E-09 -2.38215E-09 -2.40640E-09
  -2.43084E-09 -2.45545E-09 -2.48023E-09 -2.50517E-09 -2.53026E-09 -2.55548E-09 -2.58084E-09 -2.60632E-09 -2.63192E-09 -2.65762E-09
  -2.68341E-09 -2.70929E-09 -2.73525E-09 -2.76128E-09 -2.78736E-09 -2.81350E-09 -2.83968E-09 -2.86588E-09 -2.89212E-09 -2.91836E-09
  -2.94462E-09 -2.97086E-09 -2.99710E-09 -3.02332E-09 -3.04950E-09 -3.07564E-09 -3.10174E-09 -3.12777E-09 -3.15375E-09 -3.17964E-09
  -3.20546E-09 -3.23117E-09 -3.25679E-09
 NY background values follow
    -5.102E-09   -5.010E-09   -4.918E-09   -4.825E-09   -4.732E-09   -4.640E-09   -4.547E-09   -4.455E-09   -4.362E-09   -4.269E-09
    -4.177E-09   -4.084E-09   -3.991E-09   -3.899E-09   -3.806E-09   -3.713E-09   -3.621E-09   -3.528E-09   -3.436E-09   -3.344E-09
    -3.251E-09   -3.159E-09   -3.067E-09   -2.975E-09   -2.883E-09   -2.791E-09   -2.700E-09   -2.608E-09   -2.517E-09   -2.426E-09
    -2.335E-09   -2.244E-09   -2.153E-09   -2.063E-09   -1.972E-09   -1.882E-09   -1.792E-09   -1.702E-09   -1.613E-09   -1.524E-09
    -1.435E-09   -1.346E-09   -1.257E-09   -1.169E-09   -1.081E-09   -9.932E-10   -9.058E-10   -8.186E-10   -7.318E-10   -6.452E-10
    -5.590E-10   -4.731E-10   -3.875E-10   -3.023E-10   -2.174E-10   -1.329E-10   -4.883E-11    3.485E-11    1.181E-10    2.009E-10
     2.832E-10    3.651E-10    4.464E-10    5.272E-10    6.075E-10    6.872E-10    7.664E-10    8.449E-10    9.229E-10    1.000E-09
     1.077E-09    1.153E-09    1.228E-09    1.303E-09    1.377E-09    1.450E-09    1.522E-09    1.594E-09    1.665E-09    1.735E-09
     1.804E-09    1.872E-09    1.940E-09    2.007E-09    2.072E-09    2.137E-09    2.201E-09    2.264E-09    2.326E-09    2.387E-09
     2.447E-09    2.506E-09    2.564E-09    2.621E-09    2.677E-09    2.732E-09    2.785E-09    2.838E-09    2.889E-09    2.939E-09
     2.988E-09    3.036E-09    3.083E-09    3.128E-09    3.172E-09    3.215E-09    3.257E-09    3.297E-09    3.336E-09    3.373E-09
     3.410E-09    3.445E-09    3.478E-09    3.510E-09    3.541E-09    3.570E-09    3.598E-09    3.624E-09    3.649E-09    3.673E-09
     3.695E-09    3.715E-09    3.734E-09    3.751E-09    3.767E-09    3.781E-09    3.793E-09    3.804E-09    3.813E-09    3.821E-09
     3.827E-09    3.831E-09    3.833E-09    3.834E-09    3.833E-09    3.830E-09    3.826E-09    3.819E-09    3.811E-09    3.801E-09
     3.790E-09    3.776E-09    3.760E-09    3.743E-09    3.724E-09    3.703E-09    3.679E-09    3.654E-09    3.627E-09    3.598E-09
     3.567E-09    3.534E-09    3.499E-09    3.462E-09    3.423E-09    3.381E-09    3.338E-09    3.292E-09    3.245E-09    3.196E-09
     3.145E-09    3.092E-09    3.037E-09    2.981E-09    2.923E-09    2.863E-09    2.803E-09    2.740E-09    2.677E-09    2.612E-09
     2.546E-09    2.479E-09    2.411E-09    2.342E-09    2.272E-09    2.201E-09    2.129E-09    2.057E-09    1.984E-09    1.910E-09
     1.836E-09    1.762E-09    1.687E-09    1.612E-09    1.536E-09    1.461E-09    1.385E-09    1.309E-09    1.233E-09    1.157E-09
     1.082E-09    1.006E-09    9.314E-10    8.567E-10    7.824E-10    7.086E-10    6.353E-10    5.626E-10    4.907E-10    4.194E-10
     3.490E-10    2.795E-10    2.109E-10    1.433E-10    7.685E-11    1.151E-11   -5.260E-11   -1.155E-10   -1.770E-10   -2.372E-10
    -2.961E-10   -3.537E-10   -4.101E-10   -4.652E-10   -5.191E-10   -5.718E-10   -6.233E-10   -6.737E-10   -7.229E-10   -7.710E-10
    -8.180E-10   -8.639E-10   -9.087E-10   -9.525E-10   -9.953E-10   -1.037E-09   -1.078E-09   -1.118E-09   -1.156E-09   -1.194E-09
    -1.231E-09   -1.267E-09   -1.303E-09   -1.337E-09   -1.370E-09   -1.403E-09   -1.435E-09   -1.466E-09   -1.497E-09   -1.526E-09
    -1.555E-09   -1.583E-09   -1.611E-09   -1.638E-09   -1.664E-09   -1.690E-09   -1.715E-09   -1.739E-09   -1.763E-09   -1.786E-09
    -1.809E-09   -1.831E-09   -1.853E-09   -1.874E-09   -1.895E-09   -1.915E-09   -1.935E-09   -1.955E-09   -1.974E-09   -1.993E-09
    -2.011E-09   -2.029E-09   -2.047E-09   -2.065E-09   -2.082E-09   -2.099E-09   -2.116E-09   -2.132E-09   -2.148E-09   -2.164E-09
    -2.180E-09   -2.196E-09   -2.211E-09   -2.227E-09   -2.242E-09   -2.257E-09   -2.272E-09   -2.286E-09   -2.301E-09   -2.316E-09
    -2.330E-09   -2.345E-09   -2.359E-09   -2.373E-09   -2.388E-09   -2.402E-09   -2.416E-09   -2.431E-09   -2.445E-09   -2.460E-09
    -2.474E-09   -2.489E-09   -2.504E-09   -2.518E-09   -2.533E-09   -2.548E-09   -2.564E-09   -2.579E-09   -2.595E-09   -2.610E-09
    -2.626E-09   -2.642E-09   -2.659E-09   -2.675E-09   -2.692E-09   -2.709E-09   -2.727E-09   -2.745E-09   -2.763E-09   -2.781E-09
    -2.800E-09   -2.819E-09   -2.838E-09   -2.858E-09   -2.878E-09   -2.898E-09   -2.919E-09   -2.940E-09   -2.961E-09   -2.983E-09
    -3.004E-09   -3.027E-09   -3.049E-09   -3.072E-09   -3.094E-09   -3.117E-09   -3.141E-09   -3.164E-09   -3.188E-09   -3.212E-09
    -3.236E-09   -3.260E-09   -3.285E-09   -3.309E-09   -3.334E-09   -3.359E-09   -3.384E-09   -3.409E-09   -3.434E-09   -3.459E-09
    -3.485E-09   -3.510E-09   -3.536E-09   -3.562E-09   -3.587E-09   -3.613E-09   -3.639E-09   -3.665E-09   -3.691E-09   -3.716E-09
    -3.742E-09   -3.768E-09   -3.794E-09   -3.820E-09   -3.846E-09   -3.871E-09   -3.897E-09   -3.923E-09   -3.948E-09   -3.974E-09
    -3.999E-09   -4.024E-09   -4.050E-09
 Ala      Conc. = 3.97E-10
  -4.79442E-09 -4.70276E-09 -4.61305E-09 -4.50021E-09 -4.41319E-09 -4.32736E-09 -4.22149E-09 -4.18136E-09 -4.14196E-09 -4.01744E-09
  -3.96411E-09 -3.94168E-09 -3.85203E-09 -3.77575E-09 -3.71200E-09 -3.63598E-09 -3.55404E-09 -3.46888E-09 -3.38185E-09 -3.29359E-09
  -3.20454E-09 -3.11494E-09 -3.02495E-09 -2.93471E-09 -2.84431E-09 -2.75380E-09 -2.66324E-09 -2.57266E-09 -2.48211E-09 -2.39161E-09
  -2.30115E-09 -2.21083E-09 -2.12060E-09 -2.03050E-09 -1.94053E-09 -1.85074E-09 -1.76111E-09 -1.67165E-09 -1.58239E-09 -1.49336E-09
  -1.40451E-09 -1.31587E-09 -1.22749E-09 -1.13936E-09 -1.05147E-09 -9.63846E-10 -8.76477E-10 -7.89397E-10 -7.02612E-10 -6.16143E-10
  -5.29938E-10 -4.44054E-10 -3.58485E-10 -2.73261E-10 -1.88394E-10 -1.03888E-10 -1.97678E-11  6.39515E-11  1.47249E-10  2.30114E-10
   3.12519E-10  3.94454E-10  4.75905E-10  5.56847E-10  6.37260E-10  7.17146E-10  7.96471E-10  8.75231E-10  9.53400E-10  1.03096E-09
   1.10792E-09  1.18423E-09  1.25991E-09  1.33492E-09  1.40926E-09  1.48292E-09  1.55588E-09  1.62814E-09  1.69970E-09  1.77052E-09
   1.84064E-09  1.91002E-09  1.97871E-09  2.04668E-09  2.11396E-09  2.18059E-09  2.24660E-09  2.31206E-09  2.37705E-09  2.44168E-09
   2.50616E-09  2.57075E-09  2.63588E-09  2.70220E-09  2.77083E-09  2.84378E-09  2.92495E-09  3.02320E-09  3.16325E-09  3.44040E-09
   3.94597E-09  3.92520E-09  3.95290E-09  4.48202E-09  4.69266E-09  4.69871E-09  4.73561E-09  4.80159E-09  4.87058E-09  4.90716E-09
   4.70977E-09  4.29890E-09  4.40549E-09  4.36397E-09  3.94469E-09  3.81726E-09  3.77492E-09  3.76214E-09  3.76231E-09  3.76881E-09
   3.77851E-09  3.78973E-09  3.80147E-09  3.81313E-09  3.82428E-09  3.83465E-09  3.84403E-09  3.85228E-09  3.85926E-09  3.86491E-09
   3.86913E-09  3.87188E-09  3.87310E-09  3.87274E-09  3.87077E-09  3.86716E-09  3.86187E-09  3.85487E-09  3.84615E-09  3.83566E-09
   3.82340E-09  3.80934E-09  3.79346E-09  3.77575E-09  3.75617E-09  3.73472E-09  3.71138E-09  3.68612E-09  3.65895E-09  3.62984E-09
   3.59878E-09  3.56577E-09  3.53079E-09  3.49384E-09  3.45493E-09  3.41407E-09  3.37127E-09  3.32665E-09  3.28035E-09  3.23257E-09
   3.18358E-09  3.13384E-09  3.08413E-09  3.03611E-09  2.99394E-09  2.97161E-09  3.04238E-09  3.34025E-09  3.32826E-09  3.20199E-09
   3.13440E-09  3.09766E-09  3.05050E-09  2.98967E-09  2.91924E-09  2.85943E-09  2.80776E-09  2.61301E-09  2.18109E-09  2.01566E-09
   1.91061E-09  1.82136E-09  1.73803E-09  1.65742E-09  1.57822E-09  1.49987E-09  1.42207E-09  1.34464E-09  1.26757E-09  1.19081E-09
   1.11438E-09  1.03830E-09  9.62604E-10  8.87359E-10  8.12586E-10  7.38356E-10  6.64718E-10  5.91745E-10  5.19475E-10  4.47989E-10
   3.77344E-10  3.07600E-10  2.38825E-10  1.71077E-10  1.04426E-10  3.89303E-11 -2.53249E-11 -8.83102E-11 -1.49947E-10 -2.10265E-10
  -2.69277E-10 -3.27006E-10 -3.83468E-10 -4.38689E-10 -4.92682E-10 -5.45474E-10 -5.97076E-10 -6.47510E-10 -6.96802E-10 -7.44968E-10
  -7.92018E-10 -8.37983E-10 -8.82880E-10 -9.26725E-10 -9.69541E-10 -1.01135E-09 -1.05215E-09 -1.09199E-09 -1.13088E-09 -1.16883E-09
  -1.20586E-09 -1.24200E-09 -1.27725E-09 -1.31166E-09 -1.34522E-09 -1.37797E-09 -1.40992E-09 -1.44109E-09 -1.47150E-09 -1.50116E-09
  -1.53010E-09 -1.55833E-09 -1.58589E-09 -1.61277E-09 -1.63901E-09 -1.66462E-09 -1.68963E-09 -1.71406E-09 -1.73791E-09 -1.76120E-09
  -1.78396E-09 -1.80622E-09 -1.82799E-09 -1.84927E-09 -1.87011E-09 -1.89051E-09 -1.91049E-09 -1.93007E-09 -1.94929E-09 -1.96814E-09
  -1.98665E-09 -2.00483E-09 -2.02270E-09 -2.04026E-09 -2.05754E-09 -2.07455E-09 -2.09129E-09 -2.10779E-09 -2.12405E-09 -2.14009E-09
  -2.15593E-09 -2.17158E-09 -2.18705E-09 -2.20235E-09 -2.21749E-09 -2.23251E-09 -2.24739E-09 -2.26217E-09 -2.27684E-09 -2.29144E-09
  -2.30596E-09 -2.32042E-09 -2.33484E-09 -2.34923E-09 -2.36361E-09 -2.37798E-09 -2.39236E-09 -2.40677E-09 -2.42122E-09 -2.43571E-09
  -2.45027E-09 -2.46491E-09 -2.47964E-09 -2.49448E-09 -2.50944E-09 -2.52453E-09 -2.53976E-09 -2.55515E-09 -2.57072E-09 -2.58648E-09
  -2.60243E-09 -2.61860E-09 -2.63500E-09 -2.65163E-09 -2.66852E-09 -2.68568E-09 -2.70313E-09 -2.72086E-09 -2.73891E-09 -2.75727E-09
  -2.77598E-09 -2.79503E-09 -2.81443E-09 -2.83416E-09 -2.85423E-09 -2.87461E-09 -2.89530E-09 -2.91630E-09 -2.93759E-09 -2.95916E-09
  -2.98101E-09 -3.00312E-09 -3.02549E-09 -3.04810E-09 -3.07096E-09 -3.09404E-09 -3.11734E-09 -3.14086E-09 -3.16458E-09 -3.18849E-09
  -3.21258E-09 -3.23685E-09 -3.26128E-09 -3.28588E-09 -3.31062E-09 -3.33550E-09 -3.36051E-09 -3.38564E-09 -3.41089E-09 -3.43623E-09
  -3.46167E-09 -3.48720E-09 -3.51280E-09 -3.53847E-09 -3.56419E-09 -3.58996E-09 -3.61578E-09 -3.64162E-09 -3.66749E-09 -3.69336E-09
  -3.71925E-09 -3.74512E-09 -3.77099E-09 -3.79682E-09 -3.82263E-09 -3.84839E-09 -3.87411E-09 -3.89976E-09 -3.92535E-09 -3.95085E-09
  -3.97627E-09 -4.00160E-09 -4.02682E-09
 Asp      Conc. = 3.02E-10
  -4.77735E-09 -4.73606E-09 -4.67055E-09 -4.62532E-09 -4.54942E-09 -4.49249E-09 -4.43816E-09 -4.38670E-09 -4.31183E-09 -4.22869E-09
  -4.14186E-09 -4.05314E-09 -3.96312E-09 -3.87172E-09 -3.78002E-09 -3.68817E-09 -3.59616E-09 -3.50398E-09 -3.41169E-09 -3.31930E-09
  -3.22684E-09 -3.13432E-09 -3.04172E-09 -2.94907E-09 -2.85638E-09 -2.76359E-09 -2.67070E-09 -2.57766E-09 -2.48441E-09 -2.39086E-09
  -2.29683E-09 -2.20217E-09 -2.10643E-09 -2.00891E-09 -1.90810E-09 -1.80000E-09 -1.67488E-09 -1.57453E-09 -1.46176E-09 -1.37735E-09
  -1.29435E-09 -1.19423E-09 -1.06106E-09 -9.01183E-10 -7.32210E-10 -5.53521E-10 -4.97566E-10 -4.65589E-10 -3.06639E-10 -2.02175E-10
  -1.11906E-10  5.13756E-12  1.05942E-10  1.55274E-10  1.81004E-10  2.04085E-10  1.92181E-10  2.81690E-10  3.71512E-10  3.81523E-10
   4.34131E-10  5.03414E-10  5.52847E-10  6.22181E-10  7.13785E-10  7.97304E-10  8.48985E-10  9.12143E-10  9.80421E-10  1.05098E-09
   1.12261E-09  1.19469E-09  1.26687E-09  1.33891E-09  1.41066E-09  1.48201E-09  1.55286E-09  1.62314E-09  1.69283E-09  1.76184E-09
   1.83014E-09  1.89770E-09  1.96451E-09  2.03049E-09  2.09564E-09  2.15995E-09  2.22336E-09  2.28588E-09  2.34746E-09  2.40809E-09
   2.46776E-09  2.52642E-09  2.58409E-09  2.64071E-09  2.69627E-09  2.75077E-09  2.80418E-09  2.85648E-09  2.90763E-09  2.95765E-09
   3.00648E-09  3.05414E-09  3.10060E-09  3.14582E-09  3.18982E-09  3.23254E-09  3.27399E-09  3.31414E-09  3.35298E-09  3.39050E-09
   3.42667E-09  3.46149E-09  3.49492E-09  3.52696E-09  3.55759E-09  3.58680E-09  3.61456E-09  3.64086E-09  3.66569E-09  3.68903E-09
   3.71085E-09  3.73115E-09  3.74991E-09  3.76711E-09  3.78274E-09  3.79678E-09  3.80921E-09  3.82002E-09  3.82918E-09  3.83670E-09
   3.84254E-09  3.84669E-09  3.84914E-09  3.84987E-09  3.84886E-09  3.84611E-09  3.84158E-09  3.83527E-09  3.82716E-09  3.81723E-09
   3.80547E-09  3.79187E-09  3.77640E-09  3.75905E-09  3.73982E-09  3.71867E-09  3.69561E-09  3.67061E-09  3.64366E-09  3.61475E-09
   3.58386E-09  3.55100E-09  3.51615E-09  3.47929E-09  3.44045E-09  3.39960E-09  3.35679E-09  3.31209E-09  3.26563E-09  3.21758E-09
   3.16816E-09  3.11772E-09  3.06688E-09  3.01685E-09  2.97072E-09  2.93858E-09  2.97249E-09  3.18924E-09  3.16882E-09  3.05636E-09
   2.98806E-09  2.94404E-09  2.89210E-09  2.82947E-09  2.75897E-09  2.69598E-09  2.64133E-09  2.48158E-09  2.13110E-09  1.98507E-09
   1.88707E-09  1.80131E-09  1.72004E-09  1.64078E-09  1.56253E-09  1.48489E-09  1.40762E-09  1.33063E-09  1.25390E-09  1.17744E-09
   1.10125E-09  1.02538E-09  9.49865E-10  8.74781E-10  8.00150E-10  7.26047E-10  6.52523E-10  5.79653E-10  5.07478E-10  4.36078E-10
   3.65512E-10  2.95841E-10  2.27135E-10  1.59450E-10  9.28580E-11  2.74178E-11 -3.67859E-11 -9.97223E-11 -1.61312E-10 -2.21587E-10
  -2.80557E-10 -3.38246E-10 -3.94670E-10 -4.49855E-10 -5.03812E-10 -5.56571E-10 -6.08141E-10 -6.58543E-10 -7.07805E-10 -7.55942E-10
  -8.02965E-10 -8.48904E-10 -8.93775E-10 -9.37595E-10 -9.80387E-10 -1.02217E-09 -1.06295E-09 -1.10277E-09 -1.14164E-09 -1.17956E-09
