 LCModel (Version 6.3-1R) Copyright: S.W. Provencher.          Ref.: Magn. Reson. Med. 30:672-679 (1993).                
 onepulse 27x24_ftSpec_smooth_lcm
 26 lines in following concentration table = NCONC+1
    Conc.  %SD   /Cr    Metabolite                                         
 1.37E-10 324%   0.000 Ala                                                 
 9.03E-10 120%   0.000 Asp                                                 
    0.000 999%   0.000 Cr                                                  
 3.05E-09  21%   0.000 GABA                                                
 2.58E-09  31%   0.000 Glc                                                 
 2.14E-11 999%   0.000 Gln                                                 
    0.000 999%   0.000 Glu                                                 
    0.000 999%   0.000 Glyc                                                
 1.93E-10  66%   0.000 GPC                                                 
 2.79E-10 217%   0.000 GSH                                                 
 6.73E-10  81%   0.000 Ins                                                 
    0.000 999%   0.000 Lac                                                 
    0.000 999%   0.000 NAAG                                                
 1.32E-09  29%   0.000 NAA                                                 
    0.000 999%   0.000 PCh                                                 
    0.000 999%   0.000 PCr                                                 
    0.000 999%   0.000 PE                                                  
    0.000 999%   0.000 Scyllo                                              
 7.01E-10 182%   0.000 Ser                                                 
    0.000 999%   0.000 Tau                                                 
 1.93E-10  66%   0.000 GPC+PCh                                             
 1.32E-09  29%   0.000 NAA+NAAG                                            
 6.73E-10  81%   0.000 Ins+Glyc                                            
    0.000 999%   0.000 Cr+PCr                                              
 2.14E-11 999%   0.000 Glu+Gln                                             
   6 lines in following misc. output table
  FWHM = 0.089 ppm    S/N =   2                                            
  Data shift = 0.335 ppm                                                   
  Ph:  28 deg      14.8 deg/ppm                                            
  alphaB,S = 1.6E-01,   7.4E+01                                            
   16 spline knots.   Ns = 5(1)                                            
  (10) 2 infls.   ( 5) 1 extrs.                                            
  363 points on ppm-axis = NY
      4.250000     4.238821     4.227641     4.216462     4.205282     4.194103     4.182923     4.171744     4.160564     4.149385
      4.138206     4.127026     4.115847     4.104667     4.093488     4.082308     4.071129     4.059949     4.048770     4.037591
      4.026411     4.015232     4.004052     3.992873     3.981693     3.970514     3.959334     3.948155     3.936975     3.925796
      3.914617     3.903437     3.892258     3.881078     3.869899     3.858719     3.847540     3.836360     3.825181     3.814002
      3.802822     3.791643     3.780463     3.769284     3.758104     3.746925     3.735745     3.724566     3.713387     3.702207
      3.691028     3.679848     3.668669     3.657489     3.646310     3.635130     3.623951     3.612772     3.601592     3.590413
      3.579233     3.568054     3.556874     3.545695     3.534515     3.523336     3.512156     3.500977     3.489798     3.478618
      3.467439     3.456259     3.445080     3.433900     3.422721     3.411541     3.400362     3.389183     3.378003     3.366824
      3.355644     3.344465     3.333285     3.322106     3.310926     3.299747     3.288568     3.277388     3.266209     3.255029
      3.243850     3.232670     3.221491     3.210311     3.199132     3.187953     3.176773     3.165594     3.154414     3.143235
      3.132055     3.120876     3.109696     3.098517     3.087337     3.076158     3.064979     3.053799     3.042620     3.031440
      3.020261     3.009081     2.997902     2.986722     2.975543     2.964364     2.953184     2.942005     2.930825     2.919646
      2.908466     2.897287     2.886107     2.874928     2.863749     2.852569     2.841390     2.830210     2.819031     2.807851
      2.796672     2.785492     2.774313     2.763134     2.751954     2.740775     2.729595     2.718416     2.707236     2.696057
      2.684877     2.673698     2.662519     2.651339     2.640160     2.628980     2.617801     2.606621     2.595442     2.584262
      2.573083     2.561903     2.550724     2.539545     2.528365     2.517186     2.506006     2.494827     2.483647     2.472468
      2.461288     2.450109     2.438930     2.427750     2.416571     2.405391     2.394212     2.383032     2.371853     2.360673
      2.349494     2.338315     2.327135     2.315956     2.304776     2.293597     2.282417     2.271238     2.260058     2.248879
      2.237700     2.226520     2.215341     2.204161     2.192982     2.181802     2.170623     2.159443     2.148264     2.137084
      2.125905     2.114726     2.103546     2.092367     2.081187     2.070008     2.058828     2.047649     2.036469     2.025290
      2.014111     2.002931     1.991752     1.980572     1.969393     1.958213     1.947034     1.935854     1.924675     1.913496
      1.902316     1.891137     1.879957     1.868778     1.857598     1.846419     1.835239     1.824060     1.812881     1.801701
      1.790522     1.779342     1.768163     1.756983     1.745804     1.734624     1.723445     1.712265     1.701086     1.689907
      1.678727     1.667548     1.656368     1.645189     1.634009     1.622830     1.611650     1.600471     1.589292     1.578112
      1.566933     1.555753     1.544574     1.533394     1.522215     1.511035     1.499856     1.488677     1.477497     1.466318
      1.455138     1.443959     1.432779     1.421600     1.410420     1.399241     1.388062     1.376882     1.365703     1.354523
      1.343344     1.332164     1.320985     1.309805     1.298626     1.287446     1.276267     1.265088     1.253908     1.242729
      1.231549     1.220370     1.209190     1.198011     1.186831     1.175652     1.164473     1.153293     1.142114     1.130934
      1.119755     1.108575     1.097396     1.086216     1.075037     1.063858     1.052678     1.041499     1.030319     1.019140
      1.007960     0.996781     0.985601     0.974422     0.963243     0.952063     0.940884     0.929704     0.918525     0.907345
      0.896166     0.884986     0.873807     0.862628     0.851448     0.840269     0.829089     0.817910     0.806730     0.795551
      0.784371     0.773192     0.762012     0.750833     0.739654     0.728474     0.717295     0.706115     0.694936     0.683756
      0.672577     0.661397     0.650218     0.639039     0.627859     0.616680     0.605500     0.594321     0.583141     0.571962
      0.560782     0.549603     0.538424     0.527244     0.516065     0.504885     0.493706     0.482526     0.471347     0.460167
      0.448988     0.437809     0.426629     0.415450     0.404270     0.393091     0.381911     0.370732     0.359552     0.348373
      0.337193     0.326014     0.314835     0.303655     0.292476     0.281296     0.270117     0.258937     0.247758     0.236578
      0.225399     0.214220     0.203040
 NY phased data points follow
   1.75798E-08  1.91770E-08  2.15840E-08  2.31565E-08  2.27239E-08  2.12987E-08  2.04496E-08  1.93092E-08  1.86617E-08  1.81768E-08
   1.79419E-08  1.76329E-08  1.80917E-08  1.76566E-08  1.76522E-08  1.80882E-08  1.90075E-08  1.85321E-08  1.86911E-08  1.83599E-08
   1.84000E-08  1.75878E-08  1.74743E-08  1.65539E-08  1.66068E-08  1.64033E-08  1.66183E-08  1.74778E-08  1.69177E-08  1.59758E-08
   1.62246E-08  1.55626E-08  1.61894E-08  1.72115E-08  1.82405E-08  1.83711E-08  1.79613E-08  1.71031E-08  1.63108E-08  1.51223E-08
   1.39329E-08  1.38759E-08  1.34619E-08  1.37402E-08  1.28183E-08  1.23420E-08  1.18137E-08  1.16898E-08  1.08932E-08  1.07829E-08
   1.03009E-08  1.05843E-08  1.00097E-08  1.12354E-08  1.03634E-08  1.07560E-08  9.73493E-09  9.87882E-09  9.84778E-09  9.80394E-09
   9.97083E-09  1.08109E-08  1.06827E-08  1.19909E-08  1.28774E-08  1.50230E-08  1.54729E-08  1.54131E-08  1.42012E-08  1.26542E-08
   1.20176E-08  1.13142E-08  1.06275E-08  9.38712E-09  9.86409E-09  9.17857E-09  8.79705E-09  9.37015E-09  9.35653E-09  1.02667E-08
   1.30918E-08  1.61969E-08  1.78570E-08  1.86148E-08  1.77891E-08  1.65268E-08  1.55992E-08  1.43970E-08  1.38126E-08  1.30394E-08
   1.28530E-08  1.30274E-08  1.15808E-08  1.16370E-08  1.07796E-08  1.01666E-08  9.76808E-09  9.33717E-09  8.82054E-09  8.95283E-09
   7.96324E-09  8.33915E-09  7.64625E-09  8.48996E-09  8.09280E-09  8.48317E-09  7.87189E-09  7.41959E-09  7.36919E-09  7.23183E-09
   6.04038E-09  6.23629E-09  5.29456E-09  4.71154E-09  5.40656E-09  5.73291E-09  5.88226E-09  5.66714E-09  5.59009E-09  5.49853E-09
   5.13499E-09  5.70719E-09  4.89135E-09  4.78399E-09  4.33419E-09  4.24714E-09  3.26146E-09  3.47861E-09  2.77085E-09  4.08300E-09
   4.06589E-09  3.99504E-09  4.02693E-09  4.36390E-09  4.03969E-09  4.78244E-09  4.50536E-09  4.15778E-09  4.28281E-09  4.52207E-09
   4.83914E-09  5.77365E-09  6.48839E-09  7.28812E-09  6.04023E-09  6.41119E-09  6.41908E-09  7.40664E-09  7.28997E-09  7.78245E-09
   7.47577E-09  7.03326E-09  7.92656E-09  7.95782E-09  7.56058E-09  7.68943E-09  8.03356E-09  8.45939E-09  7.91970E-09  8.46804E-09
   8.08235E-09  8.62981E-09  8.89848E-09  9.32245E-09  9.28545E-09  9.37399E-09  1.00887E-08  1.04623E-08  1.15218E-08  1.21687E-08
   1.30058E-08  1.62456E-08  1.84877E-08  1.96659E-08  1.91916E-08  1.62861E-08  1.34666E-08  1.17034E-08  9.23137E-09  8.66968E-09
   6.59622E-09  5.91505E-09  4.43854E-09  3.43964E-09  2.77180E-09  1.20800E-09  8.73803E-11 -8.97549E-10 -2.19463E-09 -3.22209E-09
  -4.54040E-09 -5.73818E-09 -7.94507E-09 -9.09273E-09 -1.06098E-08 -1.18236E-08 -1.42080E-08 -1.59654E-08 -1.79911E-08 -1.98158E-08
  -2.18853E-08 -2.36906E-08 -2.48470E-08 -2.55934E-08 -2.66777E-08 -2.65949E-08 -2.67295E-08 -2.60748E-08 -2.54727E-08 -2.37862E-08
  -2.28883E-08 -2.01882E-08 -1.79145E-08 -1.53013E-08 -1.28484E-08 -1.01586E-08 -7.05026E-09 -4.76680E-09 -2.55605E-09 -4.57138E-10
   6.81831E-10  2.03235E-09  1.26321E-09  1.76192E-09  1.98957E-09  1.07566E-09  2.38710E-10 -2.91254E-10 -9.56042E-11 -2.59804E-10
   4.39302E-11 -1.54090E-10  1.84854E-10  8.32320E-10  4.34000E-10  1.34991E-10 -1.46077E-10 -3.59060E-13 -2.24596E-11 -3.83749E-10
  -1.43730E-10  9.81657E-11  9.58843E-11  1.08348E-09  4.76081E-10  8.97796E-10  8.55370E-10  8.53509E-10  7.16728E-10  1.25074E-10
  -4.86444E-11  1.85968E-10  5.31353E-10  8.05780E-10  5.94331E-10  1.12999E-09  1.77152E-09  1.60379E-09  1.27236E-09  1.63996E-09
   1.41771E-09  9.55873E-10  7.48950E-10  6.25944E-10  1.34484E-10  2.86640E-11  7.14412E-10  4.52312E-10  5.72018E-10  1.03042E-09
   9.59310E-10  1.60880E-09  1.05636E-09  1.51818E-09  2.03913E-09  1.60031E-09  1.88400E-09  1.52527E-09  1.28212E-09  1.56760E-09
   1.87343E-09  1.70549E-09  1.16667E-09  9.87214E-10  1.26661E-09  1.14301E-09  1.50802E-09  7.93490E-10  1.13733E-09  5.38189E-10
   1.60081E-09  1.40037E-09  1.26083E-09  1.31861E-09  8.50500E-10  1.09886E-09  1.35400E-09  9.28912E-10  9.86475E-10  1.42267E-09
   7.71506E-10  7.33022E-10  6.57210E-10  1.01773E-09  1.03575E-09  1.21977E-09  8.31763E-10  1.29453E-09  1.22085E-09  4.75418E-10
   9.54861E-10  1.05900E-09  1.09456E-09  1.68659E-09  1.42609E-09  1.04942E-09  1.44563E-09  1.48619E-09  1.29325E-09  1.33825E-09
   2.03833E-09  1.66504E-09  1.78424E-09  1.33556E-09  1.59313E-09  1.78691E-09  1.76955E-09  1.85325E-09  1.70779E-09  1.93962E-09
   1.87386E-09  2.56964E-09  2.13792E-09  2.11099E-09  2.00666E-09  2.31341E-09  2.14110E-09  2.23365E-09  1.79660E-09  2.30965E-09
   2.18948E-09  2.52247E-09  2.46539E-09  2.32076E-09  2.66877E-09  2.37151E-09  2.58253E-09  2.55560E-09  2.31025E-09  2.92061E-09
   2.81818E-09  2.81671E-09  2.96808E-09  3.22106E-09  2.52713E-09  3.20639E-09  3.11510E-09  3.14526E-09  3.14023E-09  3.50698E-09
   2.96176E-09  3.45506E-09  2.68033E-09
 NY points of the fit to the data follow
   1.99685E-08  2.02788E-08  2.05224E-08  2.08384E-08  2.09546E-08  2.07526E-08  2.01178E-08  1.92272E-08  1.84148E-08  1.76114E-08
   1.72471E-08  1.72028E-08  1.73043E-08  1.75829E-08  1.79799E-08  1.84418E-08  1.89259E-08  1.93272E-08  1.93970E-08  1.92213E-08
   1.91130E-08  1.88537E-08  1.82162E-08  1.74898E-08  1.67389E-08  1.59691E-08  1.55415E-08  1.57041E-08  1.62026E-08  1.68857E-08
   1.72003E-08  1.71733E-08  1.72496E-08  1.70432E-08  1.65366E-08  1.65250E-08  1.68520E-08  1.69927E-08  1.67932E-08  1.63143E-08
   1.56899E-08  1.50244E-08  1.38748E-08  1.27610E-08  1.22187E-08  1.16331E-08  1.09625E-08  1.05891E-08  1.04977E-08  1.05742E-08
   1.07274E-08  1.08317E-08  1.08369E-08  1.07053E-08  1.05071E-08  1.03784E-08  1.03806E-08  1.04932E-08  1.04953E-08  1.03586E-08
   1.02889E-08  1.04906E-08  1.09067E-08  1.13605E-08  1.21811E-08  1.30671E-08  1.36200E-08  1.39871E-08  1.42716E-08  1.43246E-08
   1.40802E-08  1.34312E-08  1.25389E-08  1.17129E-08  1.07927E-08  9.81545E-09  9.63109E-09  1.05315E-08  1.16404E-08  1.28734E-08
   1.41224E-08  1.52478E-08  1.63530E-08  1.72591E-08  1.75374E-08  1.71172E-08  1.59931E-08  1.41680E-08  1.22756E-08  1.16037E-08
   1.13797E-08  1.12724E-08  1.10270E-08  1.04915E-08  1.00658E-08  9.71570E-09  9.11497E-09  8.60314E-09  8.28859E-09  7.98000E-09
   7.76044E-09  7.61715E-09  7.51894E-09  7.48743E-09  7.48473E-09  7.48108E-09  7.46275E-09  7.42161E-09  7.34916E-09  7.23998E-09
   7.10168E-09  6.96778E-09  6.86997E-09  6.73948E-09  6.60893E-09  6.54194E-09  6.49647E-09  6.46031E-09  6.42914E-09  6.40092E-09
   6.37450E-09  6.34911E-09  6.32417E-09  6.29920E-09  6.27384E-09  6.24777E-09  6.22069E-09  6.19236E-09  6.16253E-09  6.13098E-09
   6.09748E-09  6.06183E-09  6.02385E-09  5.98332E-09  5.94009E-09  5.89395E-09  5.84474E-09  5.79228E-09  5.73643E-09  5.67701E-09
   5.61385E-09  5.54677E-09  5.47549E-09  5.39977E-09  5.31939E-09  5.23414E-09  5.14381E-09  5.04821E-09  4.94717E-09  4.84054E-09
   4.72823E-09  4.61015E-09  4.48631E-09  4.35678E-09  4.22175E-09  4.08151E-09  3.93663E-09  3.78796E-09  3.63686E-09  3.48542E-09
   3.33710E-09  3.19765E-09  3.07742E-09  2.99664E-09  3.00145E-09  3.22614E-09  4.25800E-09  7.13883E-09  1.05850E-08  1.36631E-08
   1.63031E-08  1.85578E-08  2.01975E-08  2.07752E-08  1.98197E-08  1.69903E-08  1.22472E-08  6.24419E-09  1.00220E-09 -1.22943E-09
  -2.19743E-09 -2.83357E-09 -3.33890E-09 -3.77763E-09 -4.17598E-09 -4.54630E-09 -4.89481E-09 -5.22470E-09 -5.53753E-09 -5.83394E-09
  -6.11400E-09 -6.37744E-09 -6.62369E-09 -6.85207E-09 -7.06179E-09 -7.25197E-09 -7.42201E-09 -7.57233E-09 -7.70351E-09 -7.81614E-09
  -7.91075E-09 -7.98790E-09 -8.04811E-09 -8.09190E-09 -8.11978E-09 -8.13226E-09 -8.12985E-09 -8.11303E-09 -8.08231E-09 -8.03817E-09
  -7.98112E-09 -7.91163E-09 -7.83020E-09 -7.73731E-09 -7.63344E-09 -7.51910E-09 -7.39474E-09 -7.26086E-09 -7.11795E-09 -6.96647E-09
  -6.80692E-09 -6.63976E-09 -6.46549E-09 -6.28459E-09 -6.09754E-09 -5.90487E-09 -5.70708E-09 -5.50470E-09 -5.29824E-09 -5.08824E-09
  -4.87520E-09 -4.65963E-09 -4.44208E-09 -4.22305E-09 -4.00303E-09 -3.78258E-09 -3.56219E-09 -3.34241E-09 -3.12368E-09 -2.90661E-09
  -2.69168E-09 -2.47938E-09 -2.27026E-09 -2.06484E-09 -1.86358E-09 -1.66705E-09 -1.47574E-09 -1.29017E-09 -1.11087E-09 -9.38359E-10
  -7.73094E-10 -6.15666E-10 -4.66219E-10 -3.24562E-10 -1.90472E-10 -6.37256E-11  5.59291E-11  1.68706E-10  2.74850E-10  3.74586E-10
   4.68139E-10  5.55758E-10  6.37654E-10  7.14075E-10  7.85237E-10  8.51379E-10  9.12756E-10  9.69546E-10  1.02201E-09  1.07038E-09
   1.11490E-09  1.15577E-09  1.19325E-09  1.22756E-09  1.25891E-09  1.28757E-09  1.31373E-09  1.33764E-09  1.35953E-09  1.37964E-09
   1.39811E-09  1.41503E-09  1.43050E-09  1.44460E-09  1.45744E-09  1.46910E-09  1.47966E-09  1.48923E-09  1.49789E-09  1.50573E-09
   1.51285E-09  1.51933E-09  1.52526E-09  1.53074E-09  1.53586E-09  1.54070E-09  1.54536E-09  1.54993E-09  1.55449E-09  1.55914E-09
   1.56397E-09  1.56907E-09  1.57453E-09  1.58043E-09  1.58688E-09  1.59395E-09  1.60175E-09  1.61034E-09  1.61977E-09  1.63002E-09
   1.64109E-09  1.65296E-09  1.66562E-09  1.67907E-09  1.69330E-09  1.70831E-09  1.72407E-09  1.74058E-09  1.75784E-09  1.77583E-09
   1.79454E-09  1.81398E-09  1.83412E-09  1.85496E-09  1.87649E-09  1.89871E-09  1.92160E-09  1.94515E-09  1.96936E-09  1.99422E-09
   2.01971E-09  2.04583E-09  2.07257E-09  2.09993E-09  2.12789E-09  2.15644E-09  2.18557E-09  2.21523E-09  2.24541E-09  2.27609E-09
   2.30722E-09  2.33879E-09  2.37077E-09  2.40312E-09  2.43584E-09  2.46888E-09  2.50222E-09  2.53583E-09  2.56969E-09  2.60378E-09
   2.63805E-09  2.67249E-09  2.70707E-09  2.74176E-09  2.77653E-09  2.81137E-09  2.84623E-09  2.88110E-09  2.91595E-09  2.95076E-09
   2.98548E-09  3.02011E-09  3.05460E-09
 NY background values follow
     7.673E-09    7.630E-09    7.586E-09    7.543E-09    7.499E-09    7.456E-09    7.412E-09    7.369E-09    7.325E-09    7.282E-09
     7.239E-09    7.195E-09    7.152E-09    7.110E-09    7.067E-09    7.024E-09    6.982E-09    6.940E-09    6.898E-09    6.856E-09
     6.815E-09    6.774E-09    6.733E-09    6.693E-09    6.653E-09    6.613E-09    6.574E-09    6.535E-09    6.496E-09    6.458E-09
     6.421E-09    6.384E-09    6.347E-09    6.311E-09    6.275E-09    6.240E-09    6.206E-09    6.172E-09    6.139E-09    6.106E-09
     6.075E-09    6.043E-09    6.013E-09    5.983E-09    5.954E-09    5.926E-09    5.898E-09    5.872E-09    5.846E-09    5.821E-09
     5.797E-09    5.773E-09    5.751E-09    5.730E-09    5.709E-09    5.690E-09    5.671E-09    5.653E-09    5.637E-09    5.621E-09
     5.606E-09    5.592E-09    5.579E-09    5.566E-09    5.555E-09    5.544E-09    5.533E-09    5.523E-09    5.514E-09    5.505E-09
     5.497E-09    5.489E-09    5.481E-09    5.474E-09    5.467E-09    5.461E-09    5.454E-09    5.448E-09    5.442E-09    5.436E-09
     5.431E-09    5.425E-09    5.419E-09    5.413E-09    5.408E-09    5.402E-09    5.396E-09    5.389E-09    5.383E-09    5.377E-09
     5.371E-09    5.365E-09    5.359E-09    5.352E-09    5.346E-09    5.340E-09    5.334E-09    5.328E-09    5.322E-09    5.316E-09
     5.311E-09    5.305E-09    5.299E-09    5.294E-09    5.289E-09    5.284E-09    5.279E-09    5.275E-09    5.270E-09    5.266E-09
     5.262E-09    5.258E-09    5.255E-09    5.252E-09    5.248E-09    5.245E-09    5.241E-09    5.237E-09    5.232E-09    5.227E-09
     5.220E-09    5.212E-09    5.203E-09    5.193E-09    5.181E-09    5.167E-09    5.151E-09    5.133E-09    5.113E-09    5.090E-09
     5.064E-09    5.036E-09    5.005E-09    4.971E-09    4.934E-09    4.893E-09    4.849E-09    4.801E-09    4.749E-09    4.693E-09
     4.632E-09    4.567E-09    4.498E-09    4.423E-09    4.343E-09    4.258E-09    4.166E-09    4.069E-09    3.965E-09    3.855E-09
     3.738E-09    3.613E-09    3.481E-09    3.341E-09    3.193E-09    3.037E-09    2.873E-09    2.700E-09    2.517E-09    2.325E-09
     2.124E-09    1.913E-09    1.691E-09    1.459E-09    1.216E-09    9.629E-10    6.981E-10    4.217E-10    1.337E-10   -1.650E-10
    -4.734E-10   -7.902E-10   -1.114E-09   -1.445E-09   -1.781E-09   -2.120E-09   -2.463E-09   -2.807E-09   -3.152E-09   -3.496E-09
    -3.839E-09   -4.179E-09   -4.515E-09   -4.846E-09   -5.171E-09   -5.489E-09   -5.798E-09   -6.098E-09   -6.387E-09   -6.665E-09
    -6.929E-09   -7.180E-09   -7.415E-09   -7.634E-09   -7.836E-09   -8.019E-09   -8.183E-09   -8.328E-09   -8.454E-09   -8.562E-09
    -8.653E-09   -8.726E-09   -8.783E-09   -8.824E-09   -8.849E-09   -8.859E-09   -8.854E-09   -8.835E-09   -8.802E-09   -8.756E-09
    -8.697E-09   -8.625E-09   -8.542E-09   -8.448E-09   -8.342E-09   -8.226E-09   -8.100E-09   -7.965E-09   -7.821E-09   -7.668E-09
    -7.507E-09   -7.339E-09   -7.163E-09   -6.981E-09   -6.793E-09   -6.599E-09   -6.400E-09   -6.197E-09   -5.989E-09   -5.778E-09
    -5.564E-09   -5.347E-09   -5.129E-09   -4.909E-09   -4.688E-09   -4.466E-09   -4.245E-09   -4.025E-09   -3.805E-09   -3.587E-09
    -3.371E-09   -3.158E-09   -2.948E-09   -2.742E-09   -2.540E-09   -2.342E-09   -2.150E-09   -1.964E-09   -1.784E-09   -1.611E-09
    -1.445E-09   -1.287E-09   -1.136E-09   -9.941E-10   -8.593E-10   -7.318E-10   -6.115E-10   -4.980E-10   -3.912E-10   -2.908E-10
    -1.966E-10   -1.083E-10   -2.581E-11    5.124E-11    1.230E-10    1.898E-10    2.518E-10    3.092E-10    3.623E-10    4.112E-10
     4.563E-10    4.978E-10    5.358E-10    5.707E-10    6.026E-10    6.319E-10    6.586E-10    6.831E-10    7.055E-10    7.262E-10
     7.452E-10    7.626E-10    7.786E-10    7.932E-10    8.066E-10    8.188E-10    8.299E-10    8.399E-10    8.491E-10    8.574E-10
     8.651E-10    8.720E-10    8.785E-10    8.844E-10    8.900E-10    8.954E-10    9.005E-10    9.055E-10    9.106E-10    9.157E-10
     9.210E-10    9.265E-10    9.324E-10    9.388E-10    9.457E-10    9.532E-10    9.615E-10    9.705E-10    9.804E-10    9.911E-10
     1.003E-09    1.015E-09    1.028E-09    1.042E-09    1.057E-09    1.072E-09    1.088E-09    1.105E-09    1.123E-09    1.141E-09
     1.160E-09    1.180E-09    1.201E-09    1.222E-09    1.244E-09    1.266E-09    1.290E-09    1.314E-09    1.338E-09    1.364E-09
     1.389E-09    1.416E-09    1.443E-09    1.471E-09    1.499E-09    1.528E-09    1.558E-09    1.588E-09    1.618E-09    1.649E-09
     1.681E-09    1.713E-09    1.745E-09    1.778E-09    1.811E-09    1.844E-09    1.878E-09    1.912E-09    1.946E-09    1.981E-09
     2.015E-09    2.050E-09    2.085E-09    2.120E-09    2.155E-09    2.191E-09    2.226E-09    2.261E-09    2.296E-09    2.331E-09
     2.367E-09    2.402E-09    2.436E-09
 Ala      Conc. = 1.37E-10
   7.75893E-09  7.72822E-09  7.69359E-09  7.65661E-09  7.61697E-09  7.57464E-09  7.52781E-09  7.47342E-09  7.42065E-09  7.37102E-09
   7.31196E-09  7.25399E-09  7.20393E-09  7.15212E-09  7.10076E-09  7.05272E-09  7.00659E-09  6.96170E-09  6.91770E-09  6.87440E-09
   6.83169E-09  6.78951E-09  6.74783E-09  6.70662E-09  6.66585E-09  6.62557E-09  6.58574E-09  6.54636E-09  6.50747E-09  6.46906E-09
   6.43115E-09  6.39375E-09  6.35688E-09  6.32055E-09  6.28479E-09  6.24960E-09  6.21502E-09  6.18106E-09  6.14773E-09  6.11505E-09
   6.08305E-09  6.05172E-09  6.02112E-09  5.99124E-09  5.96213E-09  5.93376E-09  5.90619E-09  5.87945E-09  5.85350E-09  5.82841E-09
   5.80421E-09  5.78086E-09  5.75844E-09  5.73694E-09  5.71645E-09  5.69685E-09  5.67823E-09  5.66062E-09  5.64396E-09  5.62821E-09
   5.61332E-09  5.59928E-09  5.58602E-09  5.57352E-09  5.56173E-09  5.55062E-09  5.54015E-09  5.53027E-09  5.52095E-09  5.51215E-09
   5.50383E-09  5.49596E-09  5.48848E-09  5.48138E-09  5.47460E-09  5.46812E-09  5.46189E-09  5.45587E-09  5.45003E-09  5.44434E-09
   5.43874E-09  5.43323E-09  5.42773E-09  5.42227E-09  5.41675E-09  5.41122E-09  5.40569E-09  5.40019E-09  5.39476E-09  5.38944E-09
   5.38431E-09  5.37942E-09  5.37490E-09  5.37090E-09  5.36766E-09  5.36556E-09  5.36534E-09  5.36842E-09  5.37833E-09  5.40703E-09
   5.47595E-09  5.53887E-09  5.59570E-09  5.68579E-09  5.78160E-09  5.85981E-09  5.91051E-09  5.92827E-09  5.90666E-09  5.84189E-09
   5.74303E-09  5.64449E-09  5.57844E-09  5.47655E-09  5.37179E-09  5.32808E-09  5.30391E-09  5.28733E-09  5.27422E-09  5.26267E-09
   5.25166E-09  5.24053E-09  5.22880E-09  5.21614E-09  5.20223E-09  5.18683E-09  5.16971E-09  5.15066E-09  5.12949E-09  5.10599E-09
   5.07999E-09  5.05130E-09  5.01976E-09  4.98517E-09  4.94740E-09  4.90623E-09  4.86153E-09  4.81312E-09  4.76083E-09  4.70450E-09
   4.64392E-09  4.57890E-09  4.50915E-09  4.43440E-09  4.35437E-09  4.26880E-09  4.17741E-09  4.07993E-09  3.97610E-09  3.86562E-09
   3.74827E-09  3.62373E-09  3.49177E-09  3.35210E-09  3.20447E-09  3.04861E-09  2.88427E-09  2.71117E-09  2.52910E-09  2.33778E-09
   2.13701E-09  1.92660E-09  1.70645E-09  1.47652E-09  1.23725E-09  9.90217E-10  7.43594E-10  5.16887E-10  2.83116E-10  3.17186E-11
  -2.35251E-10 -5.15638E-10 -8.12216E-10 -1.13073E-09 -1.47693E-09 -1.85453E-09 -2.26287E-09 -2.69101E-09 -3.10656E-09 -3.47006E-09
  -3.82002E-09 -4.16368E-09 -4.50197E-09 -4.83450E-09 -5.16043E-09 -5.47885E-09 -5.78871E-09 -6.08894E-09 -6.37843E-09 -6.65609E-09
  -6.92082E-09 -7.17152E-09 -7.40705E-09 -7.62627E-09 -7.82810E-09 -8.01141E-09 -8.17541E-09 -8.32036E-09 -8.44675E-09 -8.55506E-09
  -8.64577E-09 -8.71935E-09 -8.77629E-09 -8.81706E-09 -8.84215E-09 -8.85202E-09 -8.84717E-09 -8.82807E-09 -8.79519E-09 -8.74902E-09
  -8.69004E-09 -8.61872E-09 -8.53553E-09 -8.44097E-09 -8.33549E-09 -8.21961E-09 -8.09377E-09 -7.95846E-09 -7.81416E-09 -7.66134E-09
  -7.50049E-09 -7.33208E-09 -7.15659E-09 -6.97449E-09 -6.78629E-09 -6.59248E-09 -6.39360E-09 -6.19014E-09 -5.98263E-09 -5.77160E-09
  -5.55755E-09 -5.34100E-09 -5.12249E-09 -4.90250E-09 -4.68155E-09 -4.46019E-09 -4.23891E-09 -4.01824E-09 -3.79864E-09 -3.58072E-09
  -3.36495E-09 -3.15182E-09 -2.94188E-09 -2.73566E-09 -2.53361E-09 -2.33630E-09 -2.14422E-09 -1.95790E-09 -1.77785E-09 -1.60460E-09
  -1.43860E-09 -1.28045E-09 -1.13030E-09 -9.87936E-10 -8.53153E-10 -7.25720E-10 -6.05388E-10 -4.91941E-10 -3.85135E-10 -2.84744E-10
  -1.90543E-10 -1.02283E-10 -1.97535E-11  5.72951E-11  1.29077E-10  1.95833E-10  2.57818E-10  3.15210E-10  3.68269E-10  4.17235E-10
   4.62338E-10  5.03786E-10  5.41839E-10  5.76715E-10  6.08625E-10  6.37847E-10  6.64560E-10  6.89024E-10  7.11456E-10  7.32102E-10
   7.51102E-10  7.68553E-10  7.84547E-10  7.99176E-10  8.12529E-10  8.24698E-10  8.35772E-10  8.45845E-10  8.55006E-10  8.63345E-10
   8.70953E-10  8.77923E-10  8.84343E-10  8.90305E-10  8.95900E-10  9.01217E-10  9.06348E-10  9.11382E-10  9.16411E-10  9.21525E-10
   9.26813E-10  9.32368E-10  9.38279E-10  9.44634E-10  9.51527E-10  9.59046E-10  9.67281E-10  9.76319E-10  9.86183E-10  9.96868E-10
   1.00836E-09  1.02066E-09  1.03375E-09  1.04763E-09  1.06228E-09  1.07770E-09  1.09388E-09  1.11081E-09  1.12848E-09  1.14688E-09
   1.16601E-09  1.18585E-09  1.20640E-09  1.22764E-09  1.24957E-09  1.27219E-09  1.29548E-09  1.31942E-09  1.34403E-09  1.36928E-09
   1.39516E-09  1.42168E-09  1.44881E-09  1.47655E-09  1.50490E-09  1.53383E-09  1.56334E-09  1.59339E-09  1.62395E-09  1.65500E-09
   1.68652E-09  1.71846E-09  1.75081E-09  1.78355E-09  1.81664E-09  1.85005E-09  1.88376E-09  1.91775E-09  1.95198E-09  1.98643E-09
   2.02108E-09  2.05588E-09  2.09083E-09  2.12589E-09  2.16103E-09  2.19623E-09  2.23147E-09  2.26670E-09  2.30192E-09  2.33708E-09
   2.37218E-09  2.40717E-09  2.44202E-09
 Asp      Conc. = 9.03E-10
   8.75989E-09  8.60620E-09  8.44886E-09  8.28132E-09  8.11312E-09  7.92241E-09  7.75394E-09  7.60265E-09  7.50386E-09  7.42700E-09
   7.36145E-09  7.30281E-09  7.24893E-09  7.19833E-09  7.14948E-09  7.10179E-09  7.05523E-09  7.00972E-09  6.96514E-09  6.92139E-09
   6.87844E-09  6.83626E-09  6.79486E-09  6.75424E-09  6.71442E-09  6.67549E-09  6.63749E-09  6.60052E-09  6.56474E-09  6.53034E-09
   6.49763E-09  6.46698E-09  6.43909E-09  6.41503E-09  6.39687E-09  6.38927E-09  6.40459E-09  6.42932E-09  6.47005E-09  6.50185E-09
   6.51799E-09  6.52422E-09  6.53778E-09  6.58942E-09  6.66535E-09  6.80149E-09  6.91161E-09  6.98633E-09  7.11427E-09  7.26953E-09
   7.41243E-09  7.47220E-09  7.41612E-09  7.22781E-09  6.95276E-09  6.70747E-09  6.52052E-09  6.45427E-09  6.34743E-09  6.19573E-09
   6.10222E-09  6.04626E-09  5.99847E-09  5.97286E-09  5.95023E-09  5.89551E-09  5.81384E-09  5.75928E-09  5.71982E-09  5.68890E-09
   5.66348E-09  5.64191E-09  5.62319E-09  5.60665E-09  5.59183E-09  5.57842E-09  5.56614E-09  5.55478E-09  5.54418E-09  5.53423E-09
   5.52475E-09  5.51572E-09  5.50696E-09  5.49849E-09  5.49013E-09  5.48192E-09  5.47381E-09  5.46580E-09  5.45789E-09  5.45006E-09
   5.44234E-09  5.43470E-09  5.42717E-09  5.41973E-09  5.41240E-09  5.40517E-09  5.39808E-09  5.39111E-09  5.38427E-09  5.37760E-09
   5.37106E-09  5.36469E-09  5.35850E-09  5.35250E-09  5.34669E-09  5.34108E-09  5.33570E-09  5.33054E-09  5.32562E-09  5.32096E-09
   5.31658E-09  5.31247E-09  5.30861E-09  5.30497E-09  5.30136E-09  5.29760E-09  5.29356E-09  5.28906E-09  5.28392E-09  5.27799E-09
   5.27112E-09  5.26311E-09  5.25383E-09  5.24311E-09  5.23078E-09  5.21667E-09  5.20063E-09  5.18250E-09  5.16211E-09  5.13929E-09
   5.11388E-09  5.08573E-09  5.05466E-09  5.02051E-09  4.98314E-09  4.94236E-09  4.89802E-09  4.84997E-09  4.79803E-09  4.74205E-09
   4.68183E-09  4.61718E-09  4.54781E-09  4.47347E-09  4.39387E-09  4.30877E-09  4.21789E-09  4.12097E-09  4.01775E-09  3.90796E-09
   3.79138E-09  3.66772E-09  3.53676E-09  3.39825E-09  3.25197E-09  3.09769E-09  2.93522E-09  2.76440E-09  2.58511E-09  2.39728E-09
   2.20096E-09  1.99644E-09  1.78437E-09  1.56620E-09  1.34553E-09  1.13258E-09  9.69426E-10  1.00780E-09  1.07982E-09  1.09813E-09
   1.06529E-09  9.91834E-10  8.56502E-10  6.16415E-10  2.26753E-10 -3.45090E-10 -1.10569E-09 -2.00150E-09 -2.84452E-09 -3.33844E-09
  -3.73269E-09 -4.09740E-09 -4.44759E-09 -4.78756E-09 -5.11847E-09 -5.44039E-09 -5.75279E-09 -6.05492E-09 -6.34587E-09 -6.62467E-09
  -6.89031E-09 -7.14173E-09 -7.37786E-09 -7.59757E-09 -7.79981E-09 -7.98346E-09 -8.14775E-09 -8.29294E-09 -8.41955E-09 -8.52805E-09
  -8.61891E-09 -8.69263E-09 -8.74970E-09 -8.79058E-09 -8.81576E-09 -8.82573E-09 -8.82095E-09 -8.80192E-09 -8.76911E-09 -8.72300E-09
  -8.66407E-09 -8.59280E-09 -8.50966E-09 -8.41514E-09 -8.30971E-09 -8.19386E-09 -8.06805E-09 -7.93278E-09 -7.78851E-09 -7.63572E-09
  -7.47490E-09 -7.30651E-09 -7.13105E-09 -6.94898E-09 -6.76080E-09 -6.56702E-09 -6.36815E-09 -6.16472E-09 -5.95723E-09 -5.74622E-09
