 LCModel (Version 6.3-1R) Copyright: S.W. Provencher.          Ref.: Magn. Reson. Med. 30:672-679 (1993).                
 onepulse 27x27_ftSpec_smooth_lcm
 26 lines in following concentration table = NCONC+1
    Conc.  %SD /Cr+PCr  Metabolite                                         
    0.000 999%   0.000 Ala                                                 
    0.000 999%   0.000 Asp                                                 
    0.000 999%   0.000 Cr                                                  
 4.06E-10 182%   1.043 GABA                                                
 8.07E-10 159%   2.075 Glc                                                 
 9.78E-10  77%   2.517 Gln                                                 
    0.000 999%   0.000 Glu                                                 
    0.000 999%   0.000 Glyc                                                
 1.93E-10 672%   0.496 GPC                                                 
    0.000 999%   0.000 GSH                                                 
 1.45E-09  59%   3.723 Ins                                                 
    0.000 999%   0.000 Lac                                                 
    0.000 999%   0.000 NAAG                                                
 8.30E-10  41%   2.135 NAA                                                 
    0.000 999%   0.000 PCh                                                 
 3.89E-10 102%   1.000 PCr                                                 
    0.000 999%   0.000 PE                                                  
 1.06E-10 460%   0.272 Scyllo                                              
 4.62E-09  24%  11.879 Ser                                                 
 1.68E-10 999%   0.432 Tau                                                 
 1.93E-10  95%   0.496 GPC+PCh                                             
 8.30E-10  41%   2.135 NAA+NAAG                                            
 1.45E-09  59%   3.723 Ins+Glyc                                            
 3.89E-10 102%   1.000 Cr+PCr                                              
 9.78E-10  77%   2.517 Glu+Gln                                             
   6 lines in following misc. output table
  FWHM = 0.112 ppm    S/N =   3                                            
  Data shift = 0.358 ppm                                                   
  Ph: -17 deg     -16.0 deg/ppm                                            
  alphaB,S = 1.7E-01,   2.2E+01                                            
   16 spline knots.   Ns = 5(1)                                            
  (11) 4 infls.   (11) 1 extrs.                                            
  363 points on ppm-axis = NY
      4.250000     4.238821     4.227641     4.216462     4.205282     4.194103     4.182923     4.171744     4.160564     4.149385
      4.138206     4.127026     4.115847     4.104667     4.093488     4.082308     4.071129     4.059949     4.048770     4.037591
      4.026411     4.015232     4.004052     3.992873     3.981693     3.970514     3.959334     3.948155     3.936975     3.925796
      3.914617     3.903437     3.892258     3.881078     3.869899     3.858719     3.847540     3.836360     3.825181     3.814002
      3.802822     3.791643     3.780463     3.769284     3.758104     3.746925     3.735745     3.724566     3.713387     3.702207
      3.691028     3.679848     3.668669     3.657489     3.646310     3.635130     3.623951     3.612772     3.601592     3.590413
      3.579233     3.568054     3.556874     3.545695     3.534515     3.523336     3.512156     3.500977     3.489798     3.478618
      3.467439     3.456259     3.445080     3.433900     3.422721     3.411541     3.400362     3.389183     3.378003     3.366824
      3.355644     3.344465     3.333285     3.322106     3.310926     3.299747     3.288568     3.277388     3.266209     3.255029
      3.243850     3.232670     3.221491     3.210311     3.199132     3.187953     3.176773     3.165594     3.154414     3.143235
      3.132055     3.120876     3.109696     3.098517     3.087337     3.076158     3.064979     3.053799     3.042620     3.031440
      3.020261     3.009081     2.997902     2.986722     2.975543     2.964364     2.953184     2.942005     2.930825     2.919646
      2.908466     2.897287     2.886107     2.874928     2.863749     2.852569     2.841390     2.830210     2.819031     2.807851
      2.796672     2.785492     2.774313     2.763134     2.751954     2.740775     2.729595     2.718416     2.707236     2.696057
      2.684877     2.673698     2.662519     2.651339     2.640160     2.628980     2.617801     2.606621     2.595442     2.584262
      2.573083     2.561903     2.550724     2.539545     2.528365     2.517186     2.506006     2.494827     2.483647     2.472468
      2.461288     2.450109     2.438930     2.427750     2.416571     2.405391     2.394212     2.383032     2.371853     2.360673
      2.349494     2.338315     2.327135     2.315956     2.304776     2.293597     2.282417     2.271238     2.260058     2.248879
      2.237700     2.226520     2.215341     2.204161     2.192982     2.181802     2.170623     2.159443     2.148264     2.137084
      2.125905     2.114726     2.103546     2.092367     2.081187     2.070008     2.058828     2.047649     2.036469     2.025290
      2.014111     2.002931     1.991752     1.980572     1.969393     1.958213     1.947034     1.935854     1.924675     1.913496
      1.902316     1.891137     1.879957     1.868778     1.857598     1.846419     1.835239     1.824060     1.812881     1.801701
      1.790522     1.779342     1.768163     1.756983     1.745804     1.734624     1.723445     1.712265     1.701086     1.689907
      1.678727     1.667548     1.656368     1.645189     1.634009     1.622830     1.611650     1.600471     1.589292     1.578112
      1.566933     1.555753     1.544574     1.533394     1.522215     1.511035     1.499856     1.488677     1.477497     1.466318
      1.455138     1.443959     1.432779     1.421600     1.410420     1.399241     1.388062     1.376882     1.365703     1.354523
      1.343344     1.332164     1.320985     1.309805     1.298626     1.287446     1.276267     1.265088     1.253908     1.242729
      1.231549     1.220370     1.209190     1.198011     1.186831     1.175652     1.164473     1.153293     1.142114     1.130934
      1.119755     1.108575     1.097396     1.086216     1.075037     1.063858     1.052678     1.041499     1.030319     1.019140
      1.007960     0.996781     0.985601     0.974422     0.963243     0.952063     0.940884     0.929704     0.918525     0.907345
      0.896166     0.884986     0.873807     0.862628     0.851448     0.840269     0.829089     0.817910     0.806730     0.795551
      0.784371     0.773192     0.762012     0.750833     0.739654     0.728474     0.717295     0.706115     0.694936     0.683756
      0.672577     0.661397     0.650218     0.639039     0.627859     0.616680     0.605500     0.594321     0.583141     0.571962
      0.560782     0.549603     0.538424     0.527244     0.516065     0.504885     0.493706     0.482526     0.471347     0.460167
      0.448988     0.437809     0.426629     0.415450     0.404270     0.393091     0.381911     0.370732     0.359552     0.348373
      0.337193     0.326014     0.314835     0.303655     0.292476     0.281296     0.270117     0.258937     0.247758     0.236578
      0.225399     0.214220     0.203040
 NY phased data points follow
   5.30495E-09  1.00758E-08  8.09756E-09  1.06158E-08  7.58446E-09  9.83818E-09  6.93615E-09  9.42957E-09  6.68627E-09  8.76604E-09
   6.64256E-09  8.98380E-09  6.81615E-09  9.61501E-09  7.73644E-09  1.05702E-08  8.04224E-09  1.08026E-08  8.79998E-09  1.11312E-08
   8.67286E-09  1.06049E-08  7.72387E-09  9.97589E-09  7.74421E-09  1.11966E-08  9.04424E-09  1.08242E-08  8.62071E-09  1.00484E-08
   7.77897E-09  1.07727E-08  1.04187E-08  1.32355E-08  1.10727E-08  1.31472E-08  1.06276E-08  1.21720E-08  9.68453E-09  1.10022E-08
   9.31123E-09  1.14911E-08  8.77513E-09  1.06232E-08  8.27285E-09  1.05184E-08  7.69232E-09  9.07590E-09  7.37021E-09  8.78390E-09
   6.86468E-09  8.58855E-09  7.09122E-09  8.42159E-09  6.56959E-09  7.51905E-09  5.94727E-09  7.26554E-09  5.77914E-09  7.35635E-09
   5.84399E-09  7.17586E-09  6.37224E-09  9.81415E-09  9.75411E-09  1.14357E-08  9.69655E-09  1.03802E-08  8.42212E-09  9.38750E-09
   7.40244E-09  7.72488E-09  5.96475E-09  7.50168E-09  5.79849E-09  6.68687E-09  4.77161E-09  4.97991E-09  5.32991E-09  9.79581E-09
   1.07755E-08  1.46152E-08  1.27833E-08  1.38425E-08  1.17228E-08  1.27338E-08  1.09543E-08  1.20630E-08  1.06778E-08  1.21380E-08
   1.03076E-08  1.13911E-08  9.87379E-09  1.04882E-08  9.29609E-09  1.02957E-08  8.21178E-09  9.91182E-09  8.22609E-09  9.01833E-09
   7.62546E-09  9.37426E-09  8.02009E-09  9.45204E-09  8.12369E-09  9.20023E-09  7.77127E-09  9.37773E-09  6.96466E-09  8.17562E-09
   6.14224E-09  6.51105E-09  5.71754E-09  7.52051E-09  6.34993E-09  7.07342E-09  5.82968E-09  7.11652E-09  5.48913E-09  7.28233E-09
   5.34431E-09  6.60924E-09  5.14734E-09  5.80545E-09  3.59707E-09  4.93234E-09  2.97196E-09  4.42685E-09  3.14513E-09  4.19057E-09
   3.00248E-09  4.13459E-09  2.77605E-09  3.98887E-09  3.43092E-09  4.18652E-09  2.48625E-09  3.74736E-09  2.91631E-09  5.01171E-09
   4.53606E-09  6.61827E-09  5.60005E-09  6.28162E-09  5.38601E-09  7.64069E-09  6.73871E-09  8.32826E-09  7.29535E-09  8.36593E-09
   7.17728E-09  8.52970E-09  7.46389E-09  8.45650E-09  7.69983E-09  9.46192E-09  8.28467E-09  9.36214E-09  8.78113E-09  1.03512E-08
   9.70315E-09  1.12607E-08  1.04536E-08  1.18641E-08  1.06225E-08  1.19005E-08  1.18131E-08  1.27839E-08  1.15917E-08  1.48093E-08
   1.77096E-08  2.12524E-08  2.11183E-08  2.11909E-08  1.82417E-08  1.82637E-08  1.53841E-08  1.58487E-08  1.35559E-08  1.33833E-08
   1.15234E-08  1.16642E-08  9.67054E-09  9.72943E-09  7.24520E-09  7.65939E-09  5.10917E-09  5.63869E-09  2.95289E-09  3.23431E-09
   4.61777E-10 -4.97025E-11 -2.47616E-09 -2.75257E-09 -5.87930E-09 -6.32965E-09 -9.77472E-09 -1.10989E-08 -1.42185E-08 -1.50719E-08
  -1.77676E-08 -1.79471E-08 -1.93878E-08 -1.84174E-08 -1.88095E-08 -1.63719E-08 -1.62724E-08 -1.29651E-08 -1.24738E-08 -9.31773E-09
  -8.40047E-09 -5.83818E-09 -5.76309E-09 -4.03113E-09 -4.94052E-09 -3.04164E-09 -4.34317E-09 -2.39796E-09 -3.39067E-09 -1.80531E-09
  -2.65976E-09 -1.39529E-09 -2.27814E-09 -1.58303E-09 -2.81966E-09 -2.30240E-09 -3.76316E-09 -2.59634E-09 -3.48829E-09 -1.79208E-09
  -2.31485E-09  3.81405E-11 -7.40999E-10 -2.56077E-10 -1.76136E-09 -1.76798E-09 -3.26199E-09 -2.28227E-09 -3.07606E-09 -1.62449E-09
  -2.17778E-09 -2.09154E-10 -1.50210E-09 -4.67037E-10 -1.78178E-09 -9.17536E-10 -1.88893E-09 -1.07122E-09 -1.82219E-09 -5.48696E-10
  -1.36960E-09  4.97176E-10 -1.95000E-10  8.42405E-10  1.41799E-10  1.11954E-09 -3.73568E-10  8.11322E-10 -3.27628E-10  5.99635E-10
  -1.22596E-10  7.21359E-10 -2.34582E-10  4.96829E-10  1.71345E-10  8.70431E-10 -4.90341E-11  1.43847E-09 -3.10897E-10  7.71814E-10
   1.18816E-11  6.80364E-10  1.86265E-10  7.55885E-10  1.03378E-10  9.52245E-10 -3.35238E-10  5.52611E-10 -4.08984E-10  4.12350E-10
  -7.44587E-10 -1.64079E-10 -1.07641E-09 -5.28902E-10 -7.67512E-10 -3.32498E-10 -1.12023E-09 -3.33949E-10 -7.55252E-10 -2.14785E-10
  -1.00471E-09 -6.36141E-11 -9.53366E-10  4.96850E-11 -9.51206E-10  9.63895E-11 -1.29966E-09 -9.44646E-11 -9.31100E-10 -2.13090E-10
  -1.04582E-09 -1.01740E-10 -4.46853E-10  2.35231E-10 -1.08110E-09  8.24050E-11 -4.47294E-10 -3.78348E-10 -1.20331E-09  3.57864E-10
  -9.26899E-10 -3.52101E-10 -4.84942E-10 -8.65796E-11 -1.10417E-09  5.71573E-11 -7.10576E-10 -8.50674E-11 -5.86882E-10  3.52239E-10
  -5.85031E-10  7.12919E-11 -7.78380E-10  1.31900E-10 -2.85556E-10 -2.99379E-11 -4.85703E-10  2.30048E-10 -4.33120E-10  3.48803E-10
  -2.07868E-10  1.45514E-10 -4.17888E-10  2.90076E-10 -1.95488E-10  7.26426E-10 -2.41671E-10  1.85947E-10 -2.96254E-10  3.16001E-10
  -2.30801E-10  6.54739E-10  2.85978E-10  4.22588E-10  3.66214E-11  6.32773E-10  2.31614E-10  1.22962E-09  1.29111E-10  8.14337E-10
   2.77495E-10  8.29487E-10  4.86595E-11  7.82952E-10  1.54517E-10  9.38335E-10  1.59649E-10  1.10973E-09 -6.80727E-11  1.12782E-09
   2.85492E-10  9.54069E-10  7.00698E-10
 NY points of the fit to the data follow
   5.60783E-09  8.80705E-09  1.02660E-08  8.98313E-09  8.29519E-09  8.94715E-09  9.37785E-09  8.61553E-09  7.77950E-09  7.67201E-09
   7.58354E-09  7.44503E-09  7.55680E-09  8.03949E-09  8.93706E-09  9.48502E-09  9.28139E-09  9.64471E-09  1.06587E-08  1.06259E-08
   9.82084E-09  9.12994E-09  8.78060E-09  8.61900E-09  8.85268E-09  8.97500E-09  9.22559E-09  9.78491E-09  1.02863E-08  1.02541E-08
   1.01958E-08  1.02001E-08  1.08901E-08  1.15772E-08  1.16845E-08  1.12015E-08  1.10417E-08  1.09213E-08  1.07270E-08  1.05543E-08
   1.05094E-08  1.06390E-08  1.04587E-08  9.56372E-09  8.96101E-09  8.64646E-09  8.33006E-09  8.00540E-09  7.72038E-09  7.50744E-09
   7.30922E-09  7.18165E-09  7.13953E-09  7.08187E-09  6.97095E-09  6.97762E-09  6.96731E-09  7.05195E-09  7.42950E-09  7.79074E-09
   7.97063E-09  8.20916E-09  8.48234E-09  8.58546E-09  8.66693E-09  8.82147E-09  8.83847E-09  8.82492E-09  8.69056E-09  8.23380E-09
   7.91058E-09  7.79390E-09  7.60326E-09  7.24424E-09  7.07833E-09  6.95662E-09  6.64698E-09  7.33231E-09  8.45342E-09  9.37207E-09
   1.04207E-08  1.15189E-08  1.22143E-08  1.25711E-08  1.27766E-08  1.29144E-08  1.32614E-08  1.34083E-08  1.20872E-08  1.08626E-08
   1.02270E-08  9.80754E-09  9.57131E-09  9.35021E-09  9.06875E-09  8.91479E-09  8.78219E-09  8.57220E-09  8.41636E-09  8.29255E-09
   8.15924E-09  8.04011E-09  7.93474E-09  7.84030E-09  7.75477E-09  7.67654E-09  7.60440E-09  7.53741E-09  7.47491E-09  7.41639E-09
   7.36144E-09  7.30957E-09  7.26044E-09  7.21380E-09  7.16931E-09  7.12674E-09  7.08586E-09  7.04640E-09  7.00814E-09  6.97089E-09
   6.93447E-09  6.89869E-09  6.86342E-09  6.82847E-09  6.79371E-09  6.75898E-09  6.72415E-09  6.68907E-09  6.65363E-09  6.61770E-09
   6.58112E-09  6.54380E-09  6.50561E-09  6.46641E-09  6.42613E-09  6.38460E-09  6.34175E-09  6.29745E-09  6.25160E-09  6.20406E-09
   6.15470E-09  6.10339E-09  6.04989E-09  5.99397E-09  5.93541E-09  5.87398E-09  5.80949E-09  5.74171E-09  5.67043E-09  5.59546E-09
   5.51663E-09  5.43374E-09  5.34666E-09  5.25527E-09  5.15951E-09  5.05939E-09  4.95504E-09  4.84677E-09  4.73519E-09  4.62141E-09
   4.50747E-09  4.39717E-09  4.29797E-09  4.22584E-09  4.22038E-09  4.40551E-09  5.36394E-09  9.34276E-09  1.34581E-08  1.63134E-08
   1.89799E-08  2.10778E-08  2.16224E-08  2.06901E-08  1.93707E-08  1.86974E-08  1.81829E-08  1.53238E-08  8.56951E-09  4.29235E-09
   2.82662E-09  2.04220E-09  1.49746E-09  1.06471E-09  6.94263E-10  3.62884E-10  5.84221E-11 -2.26002E-10 -4.94444E-10 -7.49413E-10
  -9.92434E-10 -1.22443E-09 -1.44591E-09 -1.65708E-09 -1.85804E-09 -2.04868E-09 -2.22895E-09 -2.39913E-09 -2.55955E-09 -2.71047E-09
  -2.85213E-09 -2.98473E-09 -3.10848E-09 -3.22354E-09 -3.33010E-09 -3.42829E-09 -3.51829E-09 -3.60022E-09 -3.67422E-09 -3.74043E-09
  -3.79900E-09 -3.85003E-09 -3.89368E-09 -3.93006E-09 -3.95931E-09 -3.98155E-09 -3.99691E-09 -4.00552E-09 -4.00752E-09 -4.00301E-09
  -3.99215E-09 -3.97505E-09 -3.95185E-09 -3.92268E-09 -3.88774E-09 -3.84732E-09 -3.80174E-09 -3.75132E-09 -3.69638E-09 -3.63722E-09
  -3.57416E-09 -3.50750E-09 -3.43756E-09 -3.36464E-09 -3.28902E-09 -3.21102E-09 -3.13093E-09 -3.04904E-09 -2.96563E-09 -2.88100E-09
  -2.79543E-09 -2.70918E-09 -2.62254E-09 -2.53578E-09 -2.44915E-09 -2.36293E-09 -2.27736E-09 -2.19271E-09 -2.10921E-09 -2.02711E-09
  -1.94663E-09 -1.86803E-09 -1.79141E-09 -1.71676E-09 -1.64406E-09 -1.57328E-09 -1.50440E-09 -1.43739E-09 -1.37223E-09 -1.30888E-09
  -1.24734E-09 -1.18755E-09 -1.12952E-09 -1.07319E-09 -1.01856E-09 -9.65596E-10 -9.14255E-10 -8.64537E-10 -8.16404E-10 -7.69823E-10
  -7.24769E-10 -6.81226E-10 -6.39153E-10 -5.98532E-10 -5.59343E-10 -5.21541E-10 -4.85121E-10 -4.50045E-10 -4.16293E-10 -3.83830E-10
  -3.52629E-10 -3.22650E-10 -2.93848E-10 -2.66184E-10 -2.39623E-10 -2.14123E-10 -1.89650E-10 -1.66165E-10 -1.43633E-10 -1.22022E-10
  -1.01297E-10 -8.14254E-11 -6.23764E-11 -4.41195E-11 -2.66266E-11 -9.86777E-12  6.18261E-12  2.15511E-11  3.62598E-11  5.03385E-11
   6.38015E-11  7.66760E-11  8.89809E-11  1.00731E-10  1.11948E-10  1.22647E-10  1.32840E-10  1.42545E-10  1.51752E-10  1.60449E-10
   1.68621E-10  1.76254E-10  1.83334E-10  1.89847E-10  1.95779E-10  2.01117E-10  2.05848E-10  2.09959E-10  2.13436E-10  2.16268E-10
   2.18440E-10  2.19942E-10  2.20762E-10  2.20887E-10  2.20305E-10  2.19006E-10  2.16978E-10  2.14210E-10  2.10692E-10  2.06412E-10
   2.01361E-10  1.95528E-10  1.88904E-10  1.81479E-10  1.73243E-10  1.64189E-10  1.54305E-10  1.43582E-10  1.32010E-10  1.19580E-10
   1.06283E-10  9.21104E-11  7.70552E-11  6.11096E-11  4.42671E-11  2.65201E-11  7.86349E-12 -1.17089E-11 -3.22016E-11 -5.36198E-11
  -7.59680E-11 -9.92496E-11 -1.23469E-10 -1.48628E-10 -1.74729E-10 -2.01775E-10 -2.29767E-10 -2.58707E-10 -2.88596E-10 -3.19432E-10
  -3.51216E-10 -3.83947E-10 -4.17625E-10
 NY background values follow
     6.553E-10    7.289E-10    8.021E-10    8.747E-10    9.468E-10    1.018E-09    1.090E-09    1.160E-09    1.230E-09    1.300E-09
     1.369E-09    1.437E-09    1.505E-09    1.573E-09    1.639E-09    1.706E-09    1.771E-09    1.837E-09    1.901E-09    1.965E-09
     2.029E-09    2.091E-09    2.154E-09    2.215E-09    2.276E-09    2.337E-09    2.397E-09    2.456E-09    2.515E-09    2.573E-09
     2.630E-09    2.687E-09    2.743E-09    2.798E-09    2.853E-09    2.908E-09    2.961E-09    3.014E-09    3.067E-09    3.118E-09
     3.169E-09    3.220E-09    3.270E-09    3.319E-09    3.368E-09    3.416E-09    3.463E-09    3.510E-09    3.556E-09    3.601E-09
     3.646E-09    3.691E-09    3.734E-09    3.777E-09    3.820E-09    3.862E-09    3.903E-09    3.944E-09    3.984E-09    4.023E-09
     4.062E-09    4.101E-09    4.138E-09    4.175E-09    4.212E-09    4.248E-09    4.283E-09    4.318E-09    4.352E-09    4.385E-09
     4.418E-09    4.450E-09    4.482E-09    4.513E-09    4.543E-09    4.573E-09    4.602E-09    4.630E-09    4.658E-09    4.684E-09
     4.711E-09    4.736E-09    4.761E-09    4.785E-09    4.809E-09    4.832E-09    4.854E-09    4.875E-09    4.896E-09    4.916E-09
     4.936E-09    4.955E-09    4.973E-09    4.991E-09    5.009E-09    5.025E-09    5.041E-09    5.057E-09    5.072E-09    5.087E-09
     5.102E-09    5.116E-09    5.129E-09    5.142E-09    5.155E-09    5.168E-09    5.180E-09    5.192E-09    5.204E-09    5.215E-09
     5.227E-09    5.238E-09    5.249E-09    5.259E-09    5.270E-09    5.280E-09    5.290E-09    5.299E-09    5.308E-09    5.316E-09
     5.324E-09    5.331E-09    5.337E-09    5.343E-09    5.347E-09    5.350E-09    5.353E-09    5.354E-09    5.354E-09    5.352E-09
     5.350E-09    5.345E-09    5.340E-09    5.332E-09    5.323E-09    5.312E-09    5.299E-09    5.284E-09    5.267E-09    5.248E-09
     5.227E-09    5.204E-09    5.177E-09    5.148E-09    5.116E-09    5.081E-09    5.042E-09    5.000E-09    4.954E-09    4.904E-09
     4.850E-09    4.791E-09    4.727E-09    4.659E-09    4.585E-09    4.507E-09    4.422E-09    4.332E-09    4.236E-09    4.134E-09
     4.026E-09    3.911E-09    3.790E-09    3.661E-09    3.525E-09    3.382E-09    3.232E-09    3.074E-09    2.908E-09    2.734E-09
     2.554E-09    2.367E-09    2.175E-09    1.977E-09    1.775E-09    1.570E-09    1.360E-09    1.148E-09    9.341E-10    7.183E-10
     5.015E-10    2.843E-10    6.730E-11   -1.489E-10   -3.636E-10   -5.764E-10   -7.866E-10   -9.937E-10   -1.197E-09   -1.396E-09
    -1.590E-09   -1.778E-09   -1.960E-09   -2.136E-09   -2.304E-09   -2.465E-09   -2.617E-09   -2.761E-09   -2.897E-09   -3.025E-09
    -3.144E-09   -3.256E-09   -3.360E-09   -3.456E-09   -3.544E-09   -3.624E-09   -3.697E-09   -3.762E-09   -3.820E-09   -3.871E-09
    -3.914E-09   -3.951E-09   -3.980E-09   -4.002E-09   -4.018E-09   -4.027E-09   -4.029E-09   -4.025E-09   -4.014E-09   -3.998E-09
    -3.975E-09   -3.946E-09   -3.911E-09   -3.871E-09   -3.824E-09   -3.773E-09   -3.717E-09   -3.656E-09   -3.590E-09   -3.521E-09
    -3.448E-09   -3.371E-09   -3.291E-09   -3.209E-09   -3.123E-09   -3.036E-09   -2.947E-09   -2.856E-09   -2.763E-09   -2.670E-09
    -2.575E-09   -2.480E-09   -2.385E-09   -2.290E-09   -2.195E-09   -2.100E-09   -2.006E-09   -1.914E-09   -1.822E-09   -1.732E-09
    -1.644E-09   -1.558E-09   -1.473E-09   -1.391E-09   -1.311E-09   -1.233E-09   -1.157E-09   -1.083E-09   -1.010E-09   -9.400E-10
    -8.715E-10   -8.049E-10   -7.400E-10   -6.770E-10   -6.157E-10   -5.561E-10   -4.983E-10   -4.421E-10   -3.876E-10   -3.347E-10
    -2.835E-10   -2.337E-10   -1.856E-10   -1.389E-10   -9.375E-11   -5.004E-11   -7.781E-12    3.308E-11    7.255E-11    1.107E-10
     1.475E-10    1.830E-10    2.173E-10    2.504E-10    2.823E-10    3.131E-10    3.428E-10    3.715E-10    3.992E-10    4.259E-10
     4.516E-10    4.765E-10    5.004E-10    5.236E-10    5.459E-10    5.674E-10    5.881E-10    6.082E-10    6.275E-10    6.461E-10
     6.641E-10    6.814E-10    6.981E-10    7.142E-10    7.298E-10    7.447E-10    7.591E-10    7.730E-10    7.863E-10    7.991E-10
     8.113E-10    8.229E-10    8.339E-10    8.443E-10    8.541E-10    8.632E-10    8.717E-10    8.795E-10    8.866E-10    8.931E-10
     8.988E-10    9.038E-10    9.081E-10    9.117E-10    9.145E-10    9.166E-10    9.178E-10    9.183E-10    9.180E-10    9.170E-10
     9.150E-10    9.123E-10    9.087E-10    9.043E-10    8.991E-10    8.930E-10    8.860E-10    8.781E-10    8.693E-10    8.597E-10
     8.491E-10    8.377E-10    8.253E-10    8.119E-10    7.977E-10    7.825E-10    7.663E-10    7.492E-10    7.311E-10    7.121E-10
     6.921E-10    6.711E-10    6.492E-10    6.262E-10    6.023E-10    5.775E-10    5.516E-10    5.247E-10    4.969E-10    4.681E-10
     4.383E-10    4.075E-10    3.757E-10
 GABA     Conc. = 4.06E-10
   4.51280E-10  5.21154E-10  5.90354E-10  6.58865E-10  7.26663E-10  7.93728E-10  8.60031E-10  9.25546E-10  9.90237E-10  1.05407E-09
   1.11702E-09  1.17900E-09  1.24003E-09  1.29999E-09  1.35884E-09  1.41653E-09  1.47291E-09  1.52788E-09  1.58137E-09  1.63312E-09
   1.68294E-09  1.73061E-09  1.77580E-09  1.81805E-09  1.85688E-09  1.89152E-09  1.92112E-09  1.94516E-09  1.96699E-09  2.03435E-09
   2.11713E-09  2.15133E-09  2.28146E-09  2.48396E-09  2.62531E-09  2.78847E-09  3.00323E-09  3.21757E-09  3.40995E-09  3.55581E-09
   3.62658E-09  3.73914E-09  3.88013E-09  3.83439E-09  3.77708E-09  3.82182E-09  3.80645E-09  3.76379E-09  3.74268E-09  3.73536E-09
   3.73681E-09  3.74382E-09  3.75424E-09  3.76688E-09  3.78086E-09  3.79520E-09  3.80932E-09  3.82269E-09  3.83488E-09  3.84628E-09
   3.85996E-09  3.89726E-09  4.00599E-09  4.07001E-09  4.14751E-09  4.36237E-09  4.52944E-09  4.64186E-09  4.79732E-09  4.95407E-09
   5.08269E-09  5.16795E-09  5.17796E-09  5.14278E-09  5.21362E-09  5.18581E-09  5.01482E-09  4.98590E-09  4.97348E-09  4.91475E-09
   4.91148E-09  4.88864E-09  4.86928E-09  4.94817E-09  5.00392E-09  5.02742E-09  5.12277E-09  5.22274E-09  5.30395E-09  5.40241E-09
   5.46641E-09  5.50490E-09  5.60477E-09  5.64698E-09  5.58238E-09  5.61235E-09  5.63889E-09  5.56934E-09  5.53910E-09  5.52864E-09
   5.49862E-09  5.47457E-09  5.45730E-09  5.44498E-09  5.43630E-09  5.43025E-09  5.42623E-09  5.42376E-09  5.42257E-09  5.42247E-09
   5.42332E-09  5.42486E-09  5.42698E-09  5.42960E-09  5.43256E-09  5.43573E-09  5.43905E-09  5.44234E-09  5.44550E-09  5.44841E-09
   5.45098E-09  5.45311E-09  5.45471E-09  5.45568E-09  5.45593E-09  5.45537E-09  5.45390E-09  5.45143E-09  5.44788E-09  5.44316E-09
   5.43717E-09  5.42983E-09  5.42104E-09  5.41072E-09  5.39878E-09  5.38513E-09  5.36969E-09  5.35236E-09  5.33307E-09  5.31170E-09
   5.28814E-09  5.26227E-09  5.23387E-09  5.20273E-09  5.16864E-09  5.13139E-09  5.09077E-09  5.04657E-09  4.99858E-09  4.94658E-09
   4.89039E-09  4.82977E-09  4.76452E-09  4.69443E-09  4.61931E-09  4.53893E-09  4.45313E-09  4.36168E-09  4.26444E-09  4.16123E-09
   4.05196E-09  3.93659E-09  3.81533E-09  3.68875E-09  3.55890E-09  3.43332E-09  3.35460E-09  3.42087E-09  3.40135E-09  3.34255E-09
   3.28069E-09  3.17105E-09  2.98000E-09  2.73477E-09  2.49102E-09  2.28023E-09  2.04717E-09  1.66377E-09  1.13978E-09  8.38309E-10
   5.88355E-10  3.53437E-10  1.25199E-10 -9.89017E-11 -3.19627E-10 -5.37118E-10 -7.51173E-10 -9.61449E-10 -1.16748E-09 -1.36882E-09
  -1.56494E-09 -1.75533E-09 -1.93944E-09 -2.11670E-09 -2.28659E-09 -2.44856E-09 -2.60218E-09 -2.74744E-09 -2.88443E-09 -3.01322E-09
  -3.13389E-09 -3.24652E-09 -3.35118E-09 -3.44797E-09 -3.53696E-09 -3.61825E-09 -3.69193E-09 -3.75810E-09 -3.81682E-09 -3.86822E-09
  -3.91239E-09 -3.94942E-09 -3.97943E-09 -4.00251E-09 -4.01878E-09 -4.02834E-09 -4.03130E-09 -4.02777E-09 -4.01788E-09 -4.00172E-09
  -3.97943E-09 -3.95112E-09 -3.91692E-09 -3.87694E-09 -3.83137E-09 -3.78050E-09 -3.72465E-09 -3.66412E-09 -3.59922E-09 -3.53027E-09
  -3.45756E-09 -3.38139E-09 -3.30208E-09 -3.21992E-09 -3.13519E-09 -3.04821E-09 -2.95926E-09 -2.86863E-09 -2.77659E-09 -2.68345E-09
  -2.58947E-09 -2.49492E-09 -2.40009E-09 -2.30524E-09 -2.21061E-09 -2.11649E-09 -2.02313E-09 -1.93076E-09 -1.83964E-09 -1.75001E-09
  -1.66209E-09 -1.57614E-09 -1.49225E-09 -1.41041E-09 -1.33059E-09 -1.25279E-09 -1.17696E-09 -1.10308E-09 -1.03111E-09 -9.61047E-10
  -8.92851E-10 -8.26491E-10 -7.61950E-10 -6.99190E-10 -6.38194E-10 -5.78930E-10 -5.21358E-10 -4.65477E-10 -4.11245E-10 -3.58631E-10
  -3.07607E-10 -2.58159E-10 -2.10243E-10 -1.63840E-10 -1.18931E-10 -7.54689E-11 -3.34489E-11  7.16888E-12  4.64044E-11  8.42925E-11
   1.20862E-10  1.56154E-10  1.90212E-10  2.23076E-10  2.54783E-10  2.85375E-10  3.14886E-10  3.43356E-10  3.70820E-10  3.97311E-10
   4.22864E-10  4.47511E-10  4.71285E-10  4.94217E-10  5.16334E-10  5.37667E-10  5.58243E-10  5.78088E-10  5.97224E-10  6.15683E-10
   6.33477E-10  6.50637E-10  6.67179E-10  6.83119E-10  6.98480E-10  7.13277E-10  7.27523E-10  7.41235E-10  7.54404E-10  7.67017E-10
   7.79061E-10  7.90522E-10  8.01385E-10  8.11638E-10  8.21267E-10  8.30259E-10  8.38600E-10  8.46278E-10  8.53281E-10  8.59596E-10
   8.65210E-10  8.70112E-10  8.74289E-10  8.77731E-10  8.80426E-10  8.82362E-10  8.83529E-10  8.83915E-10  8.83511E-10  8.82306E-10
   8.80290E-10  8.77452E-10  8.73784E-10  8.69276E-10  8.63920E-10  8.57704E-10  8.50621E-10  8.42660E-10  8.33812E-10  8.24068E-10
   8.13420E-10  8.01858E-10  7.89376E-10  7.75967E-10  7.61623E-10  7.46338E-10  7.30106E-10  7.12922E-10  6.94781E-10  6.75678E-10
   6.55608E-10  6.34569E-10  6.12556E-10  5.89567E-10  5.65600E-10  5.40653E-10  5.14724E-10  4.87812E-10  4.59917E-10  4.31039E-10
   4.01178E-10  3.70335E-10  3.38511E-10
 Glc      Conc. = 8.07E-10
  -5.26977E-10 -1.53836E-10  1.47454E-10  4.51269E-10  7.45721E-10  1.06711E-09  1.27635E-09  1.45308E-09  1.63082E-09  1.57230E-09
   1.48491E-09  1.41515E-09  1.30273E-09  1.24903E-09  1.43040E-09  1.75793E-09  2.10218E-09  2.52847E-09  2.98237E-09  3.37053E-09
   3.74350E-09  4.03802E-09  4.26643E-09  4.56826E-09  4.81825E-09  4.77067E-09  4.58207E-09  4.45702E-09  4.40029E-09  4.41623E-09
   4.43134E-09  4.40173E-09  4.40912E-09  4.43580E-09  4.39913E-09  4.34895E-09  4.34215E-09  4.33074E-09  4.29269E-09  4.26578E-09
   4.25091E-09  4.24398E-09  4.24324E-09  4.24727E-09  4.25507E-09  4.26594E-09  4.27936E-09  4.29488E-09  4.31213E-09  4.33084E-09
   4.35077E-09  4.37169E-09  4.39346E-09  4.41594E-09  4.43903E-09  4.46255E-09  4.48645E-09  4.51067E-09  4.53511E-09  4.55971E-09
   4.58441E-09  4.60916E-09  4.63390E-09  4.65859E-09  4.68318E-09  4.70765E-09  4.73195E-09  4.75606E-09  4.77994E-09  4.80357E-09
   4.82691E-09  4.84995E-09  4.87267E-09  4.89503E-09  4.91702E-09  4.93864E-09  4.95985E-09  4.98062E-09  5.00096E-09  5.02085E-09
   5.04025E-09  5.05919E-09  5.07759E-09  5.09551E-09  5.11287E-09  5.12972E-09  5.14604E-09  5.16184E-09  5.17714E-09  5.19193E-09
   5.20624E-09  5.22007E-09  5.23343E-09  5.24634E-09  5.25881E-09  5.27084E-09  5.28248E-09  5.29372E-09  5.30457E-09  5.31508E-09
   5.32522E-09  5.33505E-09  5.34457E-09  5.35379E-09  5.36275E-09  5.37145E-09  5.37994E-09  5.38820E-09  5.39628E-09  5.40419E-09
   5.41197E-09  5.41963E-09  5.42715E-09  5.43457E-09  5.44181E-09  5.44878E-09  5.45544E-09  5.46171E-09  5.46753E-09  5.47281E-09
   5.47751E-09  5.48152E-09  5.48481E-09  5.48727E-09  5.48884E-09  5.48945E-09  5.48901E-09  5.48745E-09  5.48469E-09  5.48065E-09
   5.47524E-09  5.46839E-09  5.46002E-09  5.45003E-09  5.43836E-09  5.42490E-09  5.40960E-09  5.39235E-09  5.37308E-09  5.35170E-09
   5.32807E-09  5.30210E-09  5.27355E-09  5.24223E-09  5.20793E-09  5.17043E-09  5.12954E-09  5.08504E-09  5.03673E-09  4.98440E-09
   4.92785E-09  4.86686E-09  4.80124E-09  4.73079E-09  4.65531E-09  4.57459E-09  4.48849E-09  4.39681E-09  4.29944E-09  4.19627E-09
   4.08730E-09  3.97268E-09  3.85295E-09  3.72938E-09  3.60570E-09  3.49452E-09  3.46011E-09  3.74794E-09  3.88822E-09  3.94466E-09
   4.00397E-09  3.98365E-09  3.80610E-09  3.51513E-09  3.22108E-09  3.00004E-09  2.76186E-09  2.24789E-09  1.38709E-09  9.72405E-10
   6.84557E-10  4.31103E-10  1.91779E-10 -3.97867E-11 -2.65946E-10 -4.87617E-10 -7.05024E-10 -9.18075E-10 -1.12647E-09 -1.32985E-09
  -1.52778E-09 -1.71979E-09 -1.90538E-09 -2.08398E-09 -2.25512E-09 -2.41826E-09 -2.57298E-09 -2.71928E-09 -2.85726E-09 -2.98700E-09
  -3.10857E-09 -3.22206E-09 -3.32757E-09 -3.42517E-09 -3.51496E-09 -3.59702E-09 -3.67145E-09 -3.73835E-09 -3.79779E-09 -3.84989E-09
  -3.89475E-09 -3.93246E-09 -3.96313E-09 -3.98687E-09 -4.00378E-09 -4.01397E-09 -4.01756E-09 -4.01465E-09 -4.00536E-09 -3.98981E-09
  -3.96812E-09 -3.94040E-09 -3.90677E-09 -3.86737E-09 -3.82237E-09 -3.77207E-09 -3.71677E-09 -3.65680E-09 -3.59245E-09 -3.52404E-09
