 LCModel (Version 6.3-1R) Copyright: S.W. Provencher.          Ref.: Magn. Reson. Med. 30:672-679 (1993).                
 onepulse 27x23_ftSpec_smooth_lcm
 26 lines in following concentration table = NCONC+1
    Conc.  %SD   /Cr    Metabolite                                         
 1.13E-11 999%   0.000 Ala                                                 
 3.68E-10 315%   0.000 Asp                                                 
    0.000 999%   0.000 Cr                                                  
 2.66E-09  28%   0.000 GABA                                                
 2.50E-09  33%   0.000 Glc                                                 
    0.000 999%   0.000 Gln                                                 
 2.58E-10 332%   0.000 Glu                                                 
    0.000 999%   0.000 Glyc                                                
 1.80E-10  74%   0.000 GPC                                                 
 3.56E-10 158%   0.000 GSH                                                 
 6.70E-10  83%   0.000 Ins                                                 
    0.000 999%   0.000 Lac                                                 
    0.000 999%   0.000 NAAG                                                
 1.12E-09  37%   0.000 NAA                                                 
    0.000 999%   0.000 PCh                                                 
    0.000 999%   0.000 PCr                                                 
    0.000 999%   0.000 PE                                                  
    0.000 999%   0.000 Scyllo                                              
 9.49E-10 148%   0.000 Ser                                                 
    0.000 999%   0.000 Tau                                                 
 1.80E-10  74%   0.000 GPC+PCh                                             
 1.12E-09  37%   0.000 NAA+NAAG                                            
 6.70E-10  83%   0.000 Ins+Glyc                                            
    0.000 999%   0.000 Cr+PCr                                              
 2.58E-10 332%   0.000 Glu+Gln                                             
   6 lines in following misc. output table
  FWHM = 0.089 ppm    S/N =   2                                            
  Data shift = 0.324 ppm                                                   
  Ph:  10 deg       8.8 deg/ppm                                            
  alphaB,S = 1.6E-01,   1.2E+02                                            
   16 spline knots.   Ns = 5(1)                                            
  (10) 2 infls.   ( 7) 1 extrs.                                            
  363 points on ppm-axis = NY
      4.250000     4.238821     4.227641     4.216462     4.205282     4.194103     4.182923     4.171744     4.160564     4.149385
      4.138206     4.127026     4.115847     4.104667     4.093488     4.082308     4.071129     4.059949     4.048770     4.037591
      4.026411     4.015232     4.004052     3.992873     3.981693     3.970514     3.959334     3.948155     3.936975     3.925796
      3.914617     3.903437     3.892258     3.881078     3.869899     3.858719     3.847540     3.836360     3.825181     3.814002
      3.802822     3.791643     3.780463     3.769284     3.758104     3.746925     3.735745     3.724566     3.713387     3.702207
      3.691028     3.679848     3.668669     3.657489     3.646310     3.635130     3.623951     3.612772     3.601592     3.590413
      3.579233     3.568054     3.556874     3.545695     3.534515     3.523336     3.512156     3.500977     3.489798     3.478618
      3.467439     3.456259     3.445080     3.433900     3.422721     3.411541     3.400362     3.389183     3.378003     3.366824
      3.355644     3.344465     3.333285     3.322106     3.310926     3.299747     3.288568     3.277388     3.266209     3.255029
      3.243850     3.232670     3.221491     3.210311     3.199132     3.187953     3.176773     3.165594     3.154414     3.143235
      3.132055     3.120876     3.109696     3.098517     3.087337     3.076158     3.064979     3.053799     3.042620     3.031440
      3.020261     3.009081     2.997902     2.986722     2.975543     2.964364     2.953184     2.942005     2.930825     2.919646
      2.908466     2.897287     2.886107     2.874928     2.863749     2.852569     2.841390     2.830210     2.819031     2.807851
      2.796672     2.785492     2.774313     2.763134     2.751954     2.740775     2.729595     2.718416     2.707236     2.696057
      2.684877     2.673698     2.662519     2.651339     2.640160     2.628980     2.617801     2.606621     2.595442     2.584262
      2.573083     2.561903     2.550724     2.539545     2.528365     2.517186     2.506006     2.494827     2.483647     2.472468
      2.461288     2.450109     2.438930     2.427750     2.416571     2.405391     2.394212     2.383032     2.371853     2.360673
      2.349494     2.338315     2.327135     2.315956     2.304776     2.293597     2.282417     2.271238     2.260058     2.248879
      2.237700     2.226520     2.215341     2.204161     2.192982     2.181802     2.170623     2.159443     2.148264     2.137084
      2.125905     2.114726     2.103546     2.092367     2.081187     2.070008     2.058828     2.047649     2.036469     2.025290
      2.014111     2.002931     1.991752     1.980572     1.969393     1.958213     1.947034     1.935854     1.924675     1.913496
      1.902316     1.891137     1.879957     1.868778     1.857598     1.846419     1.835239     1.824060     1.812881     1.801701
      1.790522     1.779342     1.768163     1.756983     1.745804     1.734624     1.723445     1.712265     1.701086     1.689907
      1.678727     1.667548     1.656368     1.645189     1.634009     1.622830     1.611650     1.600471     1.589292     1.578112
      1.566933     1.555753     1.544574     1.533394     1.522215     1.511035     1.499856     1.488677     1.477497     1.466318
      1.455138     1.443959     1.432779     1.421600     1.410420     1.399241     1.388062     1.376882     1.365703     1.354523
      1.343344     1.332164     1.320985     1.309805     1.298626     1.287446     1.276267     1.265088     1.253908     1.242729
      1.231549     1.220370     1.209190     1.198011     1.186831     1.175652     1.164473     1.153293     1.142114     1.130934
      1.119755     1.108575     1.097396     1.086216     1.075037     1.063858     1.052678     1.041499     1.030319     1.019140
      1.007960     0.996781     0.985601     0.974422     0.963243     0.952063     0.940884     0.929704     0.918525     0.907345
      0.896166     0.884986     0.873807     0.862628     0.851448     0.840269     0.829089     0.817910     0.806730     0.795551
      0.784371     0.773192     0.762012     0.750833     0.739654     0.728474     0.717295     0.706115     0.694936     0.683756
      0.672577     0.661397     0.650218     0.639039     0.627859     0.616680     0.605500     0.594321     0.583141     0.571962
      0.560782     0.549603     0.538424     0.527244     0.516065     0.504885     0.493706     0.482526     0.471347     0.460167
      0.448988     0.437809     0.426629     0.415450     0.404270     0.393091     0.381911     0.370732     0.359552     0.348373
      0.337193     0.326014     0.314835     0.303655     0.292476     0.281296     0.270117     0.258937     0.247758     0.236578
      0.225399     0.214220     0.203040
 NY phased data points follow
   1.88766E-08  2.00589E-08  2.15113E-08  2.32535E-08  2.40435E-08  2.26607E-08  2.14687E-08  2.01640E-08  1.95180E-08  1.85176E-08
   1.82540E-08  1.76162E-08  1.75670E-08  1.77430E-08  1.75620E-08  1.72174E-08  1.81214E-08  1.84528E-08  1.81100E-08  1.79400E-08
   1.75100E-08  1.69725E-08  1.65634E-08  1.63300E-08  1.55904E-08  1.58400E-08  1.55695E-08  1.56993E-08  1.64458E-08  1.56670E-08
   1.50240E-08  1.51343E-08  1.50754E-08  1.56631E-08  1.62379E-08  1.69492E-08  1.67889E-08  1.63595E-08  1.50711E-08  1.42846E-08
   1.29066E-08  1.19687E-08  1.21336E-08  1.15769E-08  1.17364E-08  1.09425E-08  1.05620E-08  1.01364E-08  9.70634E-09  9.50854E-09
   9.16014E-09  8.78265E-09  9.32476E-09  9.10318E-09  1.00824E-08  9.12089E-09  9.63184E-09  8.60895E-09  9.18035E-09  8.81850E-09
   9.20875E-09  9.43164E-09  1.03826E-08  1.02965E-08  1.20896E-08  1.26919E-08  1.44796E-08  1.45320E-08  1.44492E-08  1.28302E-08
   1.13954E-08  1.06315E-08  1.01387E-08  9.03817E-09  8.65102E-09  8.85659E-09  8.11045E-09  8.04095E-09  9.12186E-09  9.29311E-09
   1.05351E-08  1.32166E-08  1.57914E-08  1.66046E-08  1.67413E-08  1.58937E-08  1.46582E-08  1.37607E-08  1.22086E-08  1.20078E-08
   1.10833E-08  1.10319E-08  1.08405E-08  9.68842E-09  9.57347E-09  8.70533E-09  8.10521E-09  7.64597E-09  7.37102E-09  6.92669E-09
   6.83227E-09  6.24374E-09  6.72163E-09  6.04162E-09  6.80606E-09  6.48179E-09  6.88583E-09  6.02261E-09  5.79716E-09  5.55612E-09
   5.48476E-09  4.43161E-09  4.64688E-09  3.82508E-09  3.46812E-09  4.05478E-09  4.20928E-09  4.66935E-09  4.38923E-09  4.27968E-09
   4.00202E-09  3.92622E-09  4.32343E-09  3.61097E-09  3.65515E-09  3.23697E-09  3.09021E-09  2.37050E-09  2.43345E-09  1.84500E-09
   3.33794E-09  3.13802E-09  3.13206E-09  3.17848E-09  3.62691E-09  3.20809E-09  3.92219E-09  3.49798E-09  3.41942E-09  3.53268E-09
   3.78701E-09  3.98197E-09  4.89223E-09  5.57383E-09  6.03569E-09  4.71183E-09  5.57197E-09  5.26016E-09  6.50884E-09  6.27960E-09
   6.72407E-09  6.35224E-09  6.05085E-09  6.92259E-09  6.98298E-09  6.67442E-09  6.77050E-09  7.04334E-09  7.35186E-09  6.93364E-09
   7.45798E-09  7.07194E-09  7.59590E-09  7.86576E-09  8.40064E-09  8.10604E-09  8.35682E-09  8.97351E-09  9.43749E-09  1.05113E-08
   1.15364E-08  1.23824E-08  1.51619E-08  1.66466E-08  1.74602E-08  1.68118E-08  1.41744E-08  1.15429E-08  9.71738E-09  7.49629E-09
   6.76729E-09  4.78630E-09  4.11545E-09  2.48052E-09  1.80329E-09  1.04140E-09 -4.02250E-10 -1.41596E-09 -2.33121E-09 -3.42965E-09
  -4.47194E-09 -5.82495E-09 -6.92851E-09 -9.08015E-09 -1.01009E-08 -1.15046E-08 -1.28410E-08 -1.53967E-08 -1.70575E-08 -1.90725E-08
  -2.11226E-08 -2.32731E-08 -2.50637E-08 -2.63880E-08 -2.72953E-08 -2.87575E-08 -2.86658E-08 -2.92912E-08 -2.86110E-08 -2.79174E-08
  -2.60694E-08 -2.47028E-08 -2.16731E-08 -1.87623E-08 -1.59282E-08 -1.30117E-08 -9.78145E-09 -6.23079E-09 -3.81437E-09 -1.35832E-09
   4.36645E-10  1.79634E-09  2.94084E-09  2.22584E-09  2.48169E-09  2.74252E-09  1.63037E-09  6.67550E-10  1.71953E-10  1.65260E-10
  -7.57178E-11  3.52896E-10 -6.63511E-12  5.03807E-10  1.17092E-09  8.69109E-10  4.87126E-10  1.72235E-10  3.74491E-10  2.10438E-10
  -1.51372E-10  9.21531E-12  1.44947E-10  3.55442E-10  1.02450E-09  8.12882E-10  9.97829E-10  1.17736E-09  1.03913E-09  8.17623E-10
   1.71400E-10  5.11761E-11  1.96242E-10  6.52499E-10  5.90656E-10  4.84161E-10  1.03238E-09  1.71103E-09  1.53532E-09  1.52286E-09
   1.59084E-09  1.63296E-09  8.90392E-10  8.62380E-10  5.21179E-10  3.59250E-10  1.21360E-10  5.66267E-10  4.93243E-10  6.05504E-10
   8.84559E-10  1.10569E-09  1.50481E-09  1.07357E-09  1.30474E-09  2.00675E-09  1.69657E-09  2.08890E-09  1.50720E-09  1.45164E-09
   1.66044E-09  2.02532E-09  1.64722E-09  1.54821E-09  1.13976E-09  1.54762E-09  1.25128E-09  1.76697E-09  1.02795E-09  1.33830E-09
   5.10944E-10  1.78475E-09  1.55596E-09  1.57516E-09  1.26638E-09  1.17019E-09  1.24226E-09  1.75460E-09  9.20787E-10  1.46739E-09
   1.17409E-09  1.03825E-09  7.09406E-10  8.97420E-10  1.10271E-09  1.03735E-09  1.30289E-09  1.07671E-09  1.29959E-09  1.27226E-09
   6.18513E-10  1.02245E-09  9.05557E-10  1.17314E-09  1.63827E-09  1.36798E-09  8.79240E-10  1.52061E-09  1.25339E-09  1.43253E-09
   1.11293E-09  2.07090E-09  1.55526E-09  1.73693E-09  1.11627E-09  1.70478E-09  1.80250E-09  1.73725E-09  1.72154E-09  1.77016E-09
   1.67518E-09  1.78769E-09  2.40309E-09  2.12713E-09  1.96174E-09  1.92402E-09  2.25964E-09  2.13794E-09  2.18997E-09  1.73720E-09
   2.40129E-09  2.10636E-09  2.43078E-09  2.55661E-09  2.10968E-09  2.55992E-09  2.36824E-09  2.52820E-09  2.21121E-09  2.22672E-09
   2.63533E-09  2.73561E-09  2.76812E-09  3.12701E-09  3.00589E-09  2.47606E-09  2.85296E-09  3.22039E-09  2.98704E-09  3.03647E-09
   3.28828E-09  2.91134E-09  3.15505E-09
 NY points of the fit to the data follow
   2.05081E-08  2.09292E-08  2.13380E-08  2.17333E-08  2.17931E-08  2.14328E-08  2.06489E-08  1.96004E-08  1.86029E-08  1.77030E-08
   1.72683E-08  1.71857E-08  1.72306E-08  1.73793E-08  1.76161E-08  1.79860E-08  1.84641E-08  1.88984E-08  1.90657E-08  1.89896E-08
   1.88515E-08  1.84851E-08  1.77409E-08  1.68599E-08  1.60323E-08  1.53507E-08  1.50465E-08  1.52566E-08  1.56623E-08  1.61308E-08
   1.63106E-08  1.60858E-08  1.58304E-08  1.55231E-08  1.51772E-08  1.52436E-08  1.55494E-08  1.57104E-08  1.55910E-08  1.52254E-08
   1.46603E-08  1.39620E-08  1.28944E-08  1.17709E-08  1.10553E-08  1.03819E-08  9.70791E-09  9.30271E-09  9.12949E-09  9.08907E-09
   9.11812E-09  9.15827E-09  9.18367E-09  9.18998E-09  9.20784E-09  9.25633E-09  9.34820E-09  9.43849E-09  9.45271E-09  9.40462E-09
   9.38797E-09  9.54347E-09  9.99260E-09  1.05298E-08  1.12080E-08  1.20337E-08  1.27142E-08  1.31638E-08  1.34450E-08  1.34662E-08
   1.31946E-08  1.25656E-08  1.17007E-08  1.08545E-08  1.00944E-08  9.31635E-09  9.03024E-09  9.68970E-09  1.06873E-08  1.18561E-08
   1.31242E-08  1.42224E-08  1.50646E-08  1.56156E-08  1.56247E-08  1.49416E-08  1.36821E-08  1.20875E-08  1.06896E-08  1.02208E-08
   1.00612E-08  9.94124E-09  9.73934E-09  9.30159E-09  8.85004E-09  8.50732E-09  8.00340E-09  7.49850E-09  7.17662E-09  6.87777E-09
   6.60646E-09  6.41117E-09  6.26400E-09  6.14966E-09  6.05700E-09  5.97839E-09  5.90896E-09  5.84528E-09  5.78509E-09  5.72717E-09
   5.67162E-09  5.61986E-09  5.57290E-09  5.52665E-09  5.48349E-09  5.44656E-09  5.41238E-09  5.37966E-09  5.34781E-09  5.31641E-09
   5.28515E-09  5.25375E-09  5.22194E-09  5.18946E-09  5.15608E-09  5.12159E-09  5.08578E-09  5.04846E-09  5.00946E-09  4.96859E-09
   4.92567E-09  4.88053E-09  4.83300E-09  4.78292E-09  4.73015E-09  4.67450E-09  4.61585E-09  4.55402E-09  4.48890E-09  4.42032E-09
   4.34812E-09  4.27220E-09  4.19232E-09  4.10832E-09  4.02005E-09  3.92733E-09  3.83004E-09  3.72803E-09  3.62119E-09  3.50941E-09
   3.39263E-09  3.27081E-09  3.14397E-09  3.01219E-09  2.87562E-09  2.73454E-09  2.58940E-09  2.44090E-09  2.29015E-09  2.13880E-09
   1.98956E-09  1.84689E-09  1.71861E-09  1.61957E-09  1.58212E-09  1.69347E-09  2.29867E-09  4.43198E-09  7.63847E-09  1.10799E-08
   1.42583E-08  1.68848E-08  1.86685E-08  1.92234E-08  1.81412E-08  1.51717E-08  1.04824E-08  4.93624E-09  2.20164E-10 -1.92904E-09
  -2.84319E-09 -3.43204E-09 -3.89487E-09 -4.29372E-09 -4.65386E-09 -4.98725E-09 -5.29998E-09 -5.59529E-09 -5.87481E-09 -6.13932E-09
  -6.38904E-09 -6.62385E-09 -6.84336E-09 -7.04705E-09 -7.23431E-09 -7.40444E-09 -7.55693E-09 -7.69215E-09 -7.81058E-09 -7.91268E-09
  -7.99891E-09 -8.06968E-09 -8.12543E-09 -8.16656E-09 -8.19349E-09 -8.20660E-09 -8.20630E-09 -8.19297E-09 -8.16701E-09 -8.12880E-09
  -8.07871E-09 -8.01714E-09 -7.94445E-09 -7.86103E-09 -7.76726E-09 -7.66352E-09 -7.55017E-09 -7.42759E-09 -7.29615E-09 -7.15624E-09
  -7.00821E-09 -6.85245E-09 -6.68932E-09 -6.51920E-09 -6.34250E-09 -6.15972E-09 -5.97136E-09 -5.77793E-09 -5.57993E-09 -5.37788E-09
  -5.17229E-09 -4.96364E-09 -4.75247E-09 -4.53926E-09 -4.32452E-09 -4.10876E-09 -3.89249E-09 -3.67622E-09 -3.46041E-09 -3.24563E-09
  -3.03236E-09 -2.82109E-09 -2.61234E-09 -2.40663E-09 -2.20441E-09 -2.00624E-09 -1.81259E-09 -1.62398E-09 -1.44092E-09 -1.26393E-09
  -1.09344E-09 -9.30053E-10 -7.73910E-10 -6.24864E-10 -4.82736E-10 -3.47343E-10 -2.18478E-10 -9.59696E-11  2.03862E-11  1.30770E-10
   2.35365E-10  3.34379E-10  4.27978E-10  5.16370E-10  5.99727E-10  6.78245E-10  7.52140E-10  8.21544E-10  8.86677E-10  9.47736E-10
   1.00491E-09  1.05836E-09  1.10831E-09  1.15494E-09  1.19840E-09  1.23895E-09  1.27671E-09  1.31190E-09  1.34470E-09  1.37532E-09
   1.40387E-09  1.43045E-09  1.45515E-09  1.47806E-09  1.49928E-09  1.51889E-09  1.53697E-09  1.55364E-09  1.56896E-09  1.58304E-09
   1.59596E-09  1.60782E-09  1.61870E-09  1.62869E-09  1.63789E-09  1.64639E-09  1.65427E-09  1.66163E-09  1.66855E-09  1.67513E-09
   1.68145E-09  1.68761E-09  1.69370E-09  1.69980E-09  1.70601E-09  1.71242E-09  1.71912E-09  1.72618E-09  1.73366E-09  1.74156E-09
   1.74988E-09  1.75864E-09  1.76785E-09  1.77750E-09  1.78762E-09  1.79820E-09  1.80926E-09  1.82081E-09  1.83285E-09  1.84539E-09
   1.85844E-09  1.87201E-09  1.88610E-09  1.90074E-09  1.91591E-09  1.93163E-09  1.94791E-09  1.96476E-09  1.98219E-09  2.00020E-09
   2.01880E-09  2.03800E-09  2.05781E-09  2.07824E-09  2.09929E-09  2.12097E-09  2.14327E-09  2.16614E-09  2.18958E-09  2.21354E-09
   2.23800E-09  2.26293E-09  2.28831E-09  2.31410E-09  2.34028E-09  2.36683E-09  2.39371E-09  2.42089E-09  2.44836E-09  2.47607E-09
   2.50401E-09  2.53214E-09  2.56044E-09  2.58888E-09  2.61743E-09  2.64607E-09  2.67476E-09  2.70348E-09  2.73221E-09  2.76091E-09
   2.78956E-09  2.81812E-09  2.84658E-09
 NY background values follow
     7.718E-09    7.665E-09    7.612E-09    7.559E-09    7.506E-09    7.453E-09    7.400E-09    7.347E-09    7.294E-09    7.241E-09
     7.189E-09    7.136E-09    7.084E-09    7.032E-09    6.981E-09    6.929E-09    6.878E-09    6.827E-09    6.777E-09    6.727E-09
     6.677E-09    6.628E-09    6.579E-09    6.531E-09    6.483E-09    6.436E-09    6.390E-09    6.344E-09    6.298E-09    6.254E-09
     6.209E-09    6.166E-09    6.123E-09    6.081E-09    6.040E-09    5.999E-09    5.959E-09    5.920E-09    5.881E-09    5.843E-09
     5.806E-09    5.769E-09    5.733E-09    5.698E-09    5.664E-09    5.630E-09    5.597E-09    5.565E-09    5.533E-09    5.503E-09
     5.473E-09    5.443E-09    5.415E-09    5.387E-09    5.360E-09    5.334E-09    5.308E-09    5.284E-09    5.260E-09    5.237E-09
     5.214E-09    5.192E-09    5.171E-09    5.150E-09    5.130E-09    5.110E-09    5.091E-09    5.073E-09    5.055E-09    5.037E-09
     5.020E-09    5.003E-09    4.986E-09    4.970E-09    4.954E-09    4.938E-09    4.922E-09    4.907E-09    4.892E-09    4.877E-09
     4.862E-09    4.847E-09    4.832E-09    4.817E-09    4.802E-09    4.787E-09    4.773E-09    4.758E-09    4.743E-09    4.728E-09
     4.713E-09    4.698E-09    4.683E-09    4.668E-09    4.653E-09    4.638E-09    4.623E-09    4.608E-09    4.593E-09    4.579E-09
     4.564E-09    4.549E-09    4.534E-09    4.520E-09    4.505E-09    4.490E-09    4.476E-09    4.461E-09    4.447E-09    4.432E-09
     4.418E-09    4.404E-09    4.389E-09    4.375E-09    4.361E-09    4.346E-09    4.331E-09    4.315E-09    4.299E-09    4.281E-09
     4.263E-09    4.243E-09    4.222E-09    4.200E-09    4.175E-09    4.149E-09    4.122E-09    4.092E-09    4.060E-09    4.025E-09
     3.988E-09    3.948E-09    3.906E-09    3.861E-09    3.812E-09    3.760E-09    3.705E-09    3.646E-09    3.584E-09    3.518E-09
     3.447E-09    3.373E-09    3.294E-09    3.211E-09    3.123E-09    3.030E-09    2.932E-09    2.828E-09    2.719E-09    2.604E-09
     2.483E-09    2.356E-09    2.222E-09    2.082E-09    1.936E-09    1.782E-09    1.621E-09    1.453E-09    1.277E-09    1.093E-09
     9.017E-10    7.020E-10    4.939E-10    2.772E-10    5.176E-11   -1.826E-10   -4.262E-10   -6.791E-10   -9.415E-10   -1.213E-09
    -1.491E-09   -1.777E-09   -2.068E-09   -2.365E-09   -2.665E-09   -2.968E-09   -3.273E-09   -3.580E-09   -3.886E-09   -4.192E-09
    -4.495E-09   -4.797E-09   -5.094E-09   -5.387E-09   -5.674E-09   -5.955E-09   -6.228E-09   -6.492E-09   -6.748E-09   -6.993E-09
    -7.226E-09   -7.448E-09   -7.656E-09   -7.850E-09   -8.029E-09   -8.191E-09   -8.337E-09   -8.467E-09   -8.580E-09   -8.678E-09
    -8.760E-09   -8.827E-09   -8.879E-09   -8.917E-09   -8.941E-09   -8.952E-09   -8.949E-09   -8.933E-09   -8.905E-09   -8.865E-09
    -8.813E-09   -8.749E-09   -8.675E-09   -8.590E-09   -8.494E-09   -8.389E-09   -8.274E-09   -8.151E-09   -8.018E-09   -7.877E-09
    -7.727E-09   -7.570E-09   -7.406E-09   -7.235E-09   -7.057E-09   -6.873E-09   -6.684E-09   -6.490E-09   -6.291E-09   -6.088E-09
    -5.881E-09   -5.672E-09   -5.460E-09   -5.246E-09   -5.030E-09   -4.814E-09   -4.597E-09   -4.380E-09   -4.163E-09   -3.947E-09
    -3.733E-09   -3.522E-09   -3.312E-09   -3.106E-09   -2.903E-09   -2.704E-09   -2.510E-09   -2.320E-09   -2.137E-09   -1.959E-09
    -1.788E-09   -1.624E-09   -1.467E-09   -1.318E-09   -1.175E-09   -1.039E-09   -9.097E-10   -7.867E-10   -6.698E-10   -5.588E-10
    -4.537E-10   -3.542E-10   -2.601E-10   -1.712E-10   -8.732E-11   -8.311E-12    6.607E-11    1.360E-10    2.016E-10    2.631E-10
     3.208E-10    3.747E-10    4.251E-10    4.722E-10    5.161E-10    5.571E-10    5.953E-10    6.309E-10    6.641E-10    6.952E-10
     7.242E-10    7.512E-10    7.763E-10    7.996E-10    8.213E-10    8.413E-10    8.598E-10    8.768E-10    8.926E-10    9.071E-10
     9.204E-10    9.326E-10    9.439E-10    9.543E-10    9.639E-10    9.728E-10    9.810E-10    9.888E-10    9.961E-10    1.003E-09
     1.010E-09    1.016E-09    1.023E-09    1.029E-09    1.036E-09    1.043E-09    1.050E-09    1.057E-09    1.065E-09    1.073E-09
     1.082E-09    1.091E-09    1.100E-09    1.110E-09    1.121E-09    1.132E-09    1.143E-09    1.155E-09    1.168E-09    1.180E-09
     1.194E-09    1.208E-09    1.222E-09    1.237E-09    1.253E-09    1.269E-09    1.285E-09    1.303E-09    1.320E-09    1.339E-09
     1.358E-09    1.377E-09    1.397E-09    1.418E-09    1.439E-09    1.461E-09    1.484E-09    1.507E-09    1.531E-09    1.555E-09
     1.580E-09    1.605E-09    1.631E-09    1.657E-09    1.684E-09    1.711E-09    1.738E-09    1.765E-09    1.793E-09    1.821E-09
     1.849E-09    1.878E-09    1.907E-09    1.935E-09    1.964E-09    1.993E-09    2.022E-09    2.051E-09    2.080E-09    2.109E-09
     2.138E-09    2.167E-09    2.196E-09
 Ala      Conc. = 1.13E-11
   7.72503E-09  7.67313E-09  7.62090E-09  7.56840E-09  7.51563E-09  7.46260E-09  7.40922E-09  7.35544E-09  7.30184E-09  7.24840E-09
   7.19456E-09  7.14107E-09  7.08828E-09  7.03559E-09  6.98324E-09  6.93141E-09  6.88000E-09  6.82902E-09  6.77845E-09  6.72829E-09
   6.67857E-09  6.62929E-09  6.58052E-09  6.53224E-09  6.48446E-09  6.43728E-09  6.39065E-09  6.34462E-09  6.29922E-09  6.25448E-09
   6.21039E-09  6.16696E-09  6.12420E-09  6.08211E-09  6.04068E-09  5.99994E-09  5.95989E-09  5.92052E-09  5.88184E-09  5.84385E-09
   5.80658E-09  5.76999E-09  5.73413E-09  5.69897E-09  5.66454E-09  5.63082E-09  5.59784E-09  5.56560E-09  5.53407E-09  5.50330E-09
   5.47329E-09  5.44400E-09  5.41549E-09  5.38773E-09  5.36080E-09  5.33456E-09  5.30908E-09  5.28440E-09  5.26046E-09  5.23723E-09
   5.21467E-09  5.19278E-09  5.17151E-09  5.15083E-09  5.13072E-09  5.11115E-09  5.09209E-09  5.07350E-09  5.05537E-09  5.03766E-09
   5.02034E-09  5.00340E-09  4.98678E-09  4.97048E-09  4.95444E-09  4.93867E-09  4.92312E-09  4.90775E-09  4.89255E-09  4.87750E-09
   4.86253E-09  4.84766E-09  4.83282E-09  4.81803E-09  4.80319E-09  4.78837E-09  4.77352E-09  4.75867E-09  4.74381E-09  4.72895E-09
   4.71412E-09  4.69929E-09  4.68450E-09  4.66975E-09  4.65508E-09  4.64049E-09  4.62607E-09  4.61192E-09  4.59830E-09  4.58606E-09
   4.57679E-09  4.56814E-09  4.55948E-09  4.55268E-09  4.54636E-09  4.53893E-09  4.52911E-09  4.51603E-09  4.49927E-09  4.47910E-09
   4.45681E-09  4.43475E-09  4.41434E-09  4.39188E-09  4.37007E-09  4.35237E-09  4.33567E-09  4.31896E-09  4.30181E-09  4.28393E-09
   4.26513E-09  4.24520E-09  4.22400E-09  4.20134E-09  4.17708E-09  4.15106E-09  4.12313E-09  4.09315E-09  4.06096E-09  4.02641E-09
   3.98934E-09  3.94963E-09  3.90712E-09  3.86165E-09  3.81309E-09  3.76128E-09  3.70608E-09  3.64735E-09  3.58493E-09  3.51868E-09
   3.44842E-09  3.37402E-09  3.29524E-09  3.21191E-09  3.12380E-09  3.03073E-09  2.93249E-09  2.82888E-09  2.71971E-09  2.60476E-09
   2.48386E-09  2.35678E-09  2.22335E-09  2.08334E-09  1.93658E-09  1.78284E-09  1.62195E-09  1.45369E-09  1.27788E-09  1.09430E-09
   9.02778E-10  7.03101E-10  4.95110E-10  2.78584E-10  5.34025E-11 -1.80517E-10 -4.22803E-10 -6.72199E-10 -9.29954E-10 -1.19634E-09
  -1.47090E-09 -1.75303E-09 -2.04213E-09 -2.33778E-09 -2.63953E-09 -2.94668E-09 -3.25791E-09 -3.57094E-09 -3.88244E-09 -4.18948E-09
  -4.49386E-09 -4.79525E-09 -5.09283E-09 -5.38572E-09 -5.67296E-09 -5.95365E-09 -6.22683E-09 -6.49155E-09 -6.74685E-09 -6.99179E-09
  -7.22543E-09 -7.44681E-09 -7.65498E-09 -7.84897E-09 -8.02785E-09 -8.19066E-09 -8.33673E-09 -8.46625E-09 -8.57959E-09 -8.67713E-09
  -8.75922E-09 -8.82624E-09 -8.87856E-09 -8.91654E-09 -8.94056E-09 -8.95098E-09 -8.94818E-09 -8.93252E-09 -8.90437E-09 -8.86411E-09
  -8.81209E-09 -8.74868E-09 -8.67426E-09 -8.58921E-09 -8.49387E-09 -8.38864E-09 -8.27386E-09 -8.14991E-09 -8.01717E-09 -7.87599E-09
  -7.72675E-09 -7.56982E-09 -7.40556E-09 -7.23434E-09 -7.05659E-09 -6.87279E-09 -6.68343E-09 -6.48904E-09 -6.29010E-09 -6.08714E-09
  -5.88066E-09 -5.67115E-09 -5.45913E-09 -5.24510E-09 -5.02955E-09 -4.81301E-09 -4.59596E-09 -4.37893E-09 -4.16238E-09 -3.94688E-09
  -3.73290E-09 -3.52093E-09 -3.31150E-09 -3.10511E-09 -2.90224E-09 -2.70341E-09 -2.50913E-09 -2.31989E-09 -2.13621E-09 -1.95861E-09
  -1.78752E-09 -1.62354E-09 -1.46682E-09 -1.31720E-09 -1.17450E-09 -1.03855E-09 -9.09135E-10 -7.86082E-10 -6.69189E-10 -5.58274E-10
  -4.53156E-10 -3.53624E-10 -2.59513E-10 -1.70615E-10 -8.67591E-11 -7.74593E-12  6.66378E-11  1.36526E-10  2.02137E-10  2.63671E-10
   3.21313E-10  3.75230E-10  4.25640E-10  4.72721E-10  5.16638E-10  5.57630E-10  5.95833E-10  6.31466E-10  6.64704E-10  6.95752E-10
   7.24730E-10  7.51736E-10  7.76859E-10  8.00191E-10  8.21820E-10  8.41839E-10  8.60336E-10  8.77404E-10  8.93133E-10  9.07611E-10
   9.20930E-10  9.33181E-10  9.44454E-10  9.54839E-10  9.64425E-10  9.73305E-10  9.81568E-10  9.89305E-10  9.96603E-10  1.00356E-09
   1.01026E-09  1.01679E-09  1.02325E-09  1.02972E-09  1.03629E-09  1.04307E-09  1.05012E-09  1.05755E-09  1.06539E-09  1.07364E-09
   1.08232E-09  1.09144E-09  1.10100E-09  1.11100E-09  1.12147E-09  1.13240E-09  1.14381E-09  1.15570E-09  1.16809E-09  1.18097E-09
   1.19437E-09  1.20828E-09  1.22271E-09  1.23768E-09  1.25320E-09  1.26926E-09  1.28588E-09  1.30306E-09  1.32083E-09  1.33917E-09
   1.35811E-09  1.37765E-09  1.39779E-09  1.41855E-09  1.43994E-09  1.46195E-09  1.48458E-09  1.50779E-09  1.53155E-09  1.55584E-09
   1.58063E-09  1.60589E-09  1.63160E-09  1.65773E-09  1.68424E-09  1.71111E-09  1.73832E-09  1.76584E-09  1.79363E-09  1.82168E-09
   1.84994E-09  1.87841E-09  1.90704E-09  1.93581E-09  1.96469E-09  1.99366E-09  2.02269E-09  2.05174E-09  2.08080E-09  2.10984E-09
   2.13882E-09  2.16772E-09  2.19651E-09
 Asp      Conc. = 3.68E-10
   8.15793E-09  8.05633E-09  7.95352E-09  7.84479E-09  7.73626E-09  7.62295E-09  7.52043E-09  7.43027E-09  7.35840E-09  7.29422E-09
   7.23417E-09  7.17672E-09  7.12111E-09  7.06674E-09  7.01313E-09  6.96014E-09  6.90778E-09  6.85607E-09  6.80496E-09  6.75444E-09
   6.70453E-09  6.65524E-09  6.60660E-09  6.55863E-09  6.51135E-09  6.46485E-09  6.41914E-09  6.37429E-09  6.33039E-09  6.28755E-09
   6.24588E-09  6.20555E-09  6.16683E-09  6.13016E-09  6.09636E-09  6.06724E-09  6.04737E-09  6.03309E-09  6.02598E-09  6.01765E-09
   6.00360E-09  5.98338E-09  5.96255E-09  5.95189E-09  5.95443E-09  5.98194E-09  6.01268E-09  6.03917E-09  6.08064E-09  6.12414E-09
   6.15426E-09  6.14460E-09  6.08534E-09  5.97863E-09  5.84811E-09  5.73309E-09  5.64710E-09  5.59524E-09  5.52872E-09  5.45445E-09
   5.40511E-09  5.36828E-09  5.33579E-09  5.31017E-09  5.28135E-09  5.24102E-09  5.19547E-09  5.16046E-09  5.13118E-09  5.10527E-09
   5.08162E-09  5.05961E-09  5.03885E-09  5.01908E-09  5.00011E-09  4.98182E-09  4.96408E-09  4.94680E-09  4.92990E-09  4.91335E-09
   4.89703E-09  4.88095E-09  4.86500E-09  4.84921E-09  4.83345E-09  4.81778E-09  4.80214E-09  4.78655E-09  4.77101E-09  4.75549E-09
   4.74002E-09  4.72458E-09  4.70918E-09  4.69380E-09  4.67847E-09  4.66316E-09  4.64791E-09  4.63268E-09  4.61750E-09  4.60237E-09
   4.58727E-09  4.57223E-09  4.55723E-09  4.54229E-09  4.52740E-09  4.51256E-09  4.49780E-09  4.48308E-09  4.46844E-09  4.45387E-09
   4.43938E-09  4.42495E-09  4.41058E-09  4.39621E-09  4.38169E-09  4.36686E-09  4.35158E-09  4.33570E-09  4.31908E-09  4.30155E-09
   4.28300E-09  4.26325E-09  4.24216E-09  4.21960E-09  4.19541E-09  4.16945E-09  4.14156E-09  4.11161E-09  4.07944E-09  4.04492E-09
   4.00788E-09  3.96819E-09  3.92570E-09  3.88025E-09  3.83172E-09  3.77994E-09  3.72478E-09  3.66610E-09  3.60373E-09  3.53754E-09
   3.46735E-09  3.39302E-09  3.31434E-09  3.23110E-09  3.14311E-09  3.05017E-09  2.95209E-09  2.84866E-09  2.73969E-09  2.62498E-09
   2.50436E-09  2.37760E-09  2.24453E-09  2.10496E-09  1.95871E-09  1.80559E-09  1.64545E-09  1.47810E-09  1.30342E-09  1.12128E-09
   9.31602E-10  7.34391E-10  5.29819E-10  3.18302E-10  1.01106E-10 -1.18099E-10 -3.23936E-10 -4.64455E-10 -5.77211E-10 -6.94881E-10
  -8.34133E-10 -1.00454E-09 -1.21737E-09 -1.48844E-09 -1.83375E-09 -2.26143E-09 -2.76045E-09 -3.28891E-09 -3.76966E-09 -4.12668E-09
  -4.44951E-09 -4.76017E-09 -5.06323E-09 -5.35965E-09 -5.64934E-09 -5.93178E-09 -6.20627E-09 -6.47200E-09 -6.72809E-09 -6.97367E-09
  -7.20782E-09 -7.42962E-09 -7.63815E-09 -7.83243E-09 -8.01157E-09 -8.17460E-09 -8.32086E-09 -8.45055E-09 -8.56403E-09 -8.66169E-09
  -8.74390E-09 -8.81102E-09 -8.86343E-09 -8.90150E-09 -8.92559E-09 -8.93608E-09 -8.93334E-09 -8.91774E-09 -8.88964E-09 -8.84942E-09
  -8.79745E-09 -8.73409E-09 -8.65971E-09 -8.57469E-09 -8.47939E-09 -8.37418E-09 -8.25943E-09 -8.13552E-09 -8.00280E-09 -7.86165E-09
  -7.71244E-09 -7.55553E-09 -7.39129E-09 -7.22010E-09 -7.04236E-09 -6.85858E-09 -6.66925E-09 -6.47487E-09 -6.27595E-09 -6.07301E-09
