 LCModel (Version 6.3-1R) Copyright: S.W. Provencher.          Ref.: Magn. Reson. Med. 30:672-679 (1993).                
 onepulse 27x22_ftSpec_smooth_lcm
 26 lines in following concentration table = NCONC+1
    Conc.  %SD   /Cr    Metabolite                                         
 8.72E-11 569%   0.000 Ala                                                 
 5.84E-10 204%   0.000 Asp                                                 
    0.000 999%   0.000 Cr                                                  
 2.93E-09  27%   0.000 GABA                                                
 2.50E-09  35%   0.000 Glc                                                 
    0.000 999%   0.000 Gln                                                 
 8.97E-11 989%   0.000 Glu                                                 
    0.000 999%   0.000 Glyc                                                
 1.91E-10  73%   0.000 GPC                                                 
 3.36E-10 176%   0.000 GSH                                                 
 6.85E-10  85%   0.000 Ins                                                 
    0.000 999%   0.000 Lac                                                 
    0.000 999%   0.000 NAAG                                                
 1.05E-09  40%   0.000 NAA                                                 
    0.000 999%   0.000 PCh                                                 
    0.000 999%   0.000 PCr                                                 
    0.000 999%   0.000 PE                                                  
    0.000 999%   0.000 Scyllo                                              
 6.40E-10 236%   0.000 Ser                                                 
    0.000 999%   0.000 Tau                                                 
 1.91E-10  73%   0.000 GPC+PCh                                             
 1.05E-09  40%   0.000 NAA+NAAG                                            
 6.85E-10  85%   0.000 Ins+Glyc                                            
    0.000 999%   0.000 Cr+PCr                                              
 8.97E-11 989%   0.000 Glu+Gln                                             
   6 lines in following misc. output table
  FWHM = 0.089 ppm    S/N =   2                                            
  Data shift = 0.324 ppm                                                   
  Ph:  22 deg      12.0 deg/ppm                                            
  alphaB,S = 1.7E-01,   8.2E+01                                            
   16 spline knots.   Ns = 5(1)                                            
  (10) 2 infls.   ( 7) 1 extrs.                                            
  363 points on ppm-axis = NY
      4.250000     4.238821     4.227641     4.216462     4.205282     4.194103     4.182923     4.171744     4.160564     4.149385
      4.138206     4.127026     4.115847     4.104667     4.093488     4.082308     4.071129     4.059949     4.048770     4.037591
      4.026411     4.015232     4.004052     3.992873     3.981693     3.970514     3.959334     3.948155     3.936975     3.925796
      3.914617     3.903437     3.892258     3.881078     3.869899     3.858719     3.847540     3.836360     3.825181     3.814002
      3.802822     3.791643     3.780463     3.769284     3.758104     3.746925     3.735745     3.724566     3.713387     3.702207
      3.691028     3.679848     3.668669     3.657489     3.646310     3.635130     3.623951     3.612772     3.601592     3.590413
      3.579233     3.568054     3.556874     3.545695     3.534515     3.523336     3.512156     3.500977     3.489798     3.478618
      3.467439     3.456259     3.445080     3.433900     3.422721     3.411541     3.400362     3.389183     3.378003     3.366824
      3.355644     3.344465     3.333285     3.322106     3.310926     3.299747     3.288568     3.277388     3.266209     3.255029
      3.243850     3.232670     3.221491     3.210311     3.199132     3.187953     3.176773     3.165594     3.154414     3.143235
      3.132055     3.120876     3.109696     3.098517     3.087337     3.076158     3.064979     3.053799     3.042620     3.031440
      3.020261     3.009081     2.997902     2.986722     2.975543     2.964364     2.953184     2.942005     2.930825     2.919646
      2.908466     2.897287     2.886107     2.874928     2.863749     2.852569     2.841390     2.830210     2.819031     2.807851
      2.796672     2.785492     2.774313     2.763134     2.751954     2.740775     2.729595     2.718416     2.707236     2.696057
      2.684877     2.673698     2.662519     2.651339     2.640160     2.628980     2.617801     2.606621     2.595442     2.584262
      2.573083     2.561903     2.550724     2.539545     2.528365     2.517186     2.506006     2.494827     2.483647     2.472468
      2.461288     2.450109     2.438930     2.427750     2.416571     2.405391     2.394212     2.383032     2.371853     2.360673
      2.349494     2.338315     2.327135     2.315956     2.304776     2.293597     2.282417     2.271238     2.260058     2.248879
      2.237700     2.226520     2.215341     2.204161     2.192982     2.181802     2.170623     2.159443     2.148264     2.137084
      2.125905     2.114726     2.103546     2.092367     2.081187     2.070008     2.058828     2.047649     2.036469     2.025290
      2.014111     2.002931     1.991752     1.980572     1.969393     1.958213     1.947034     1.935854     1.924675     1.913496
      1.902316     1.891137     1.879957     1.868778     1.857598     1.846419     1.835239     1.824060     1.812881     1.801701
      1.790522     1.779342     1.768163     1.756983     1.745804     1.734624     1.723445     1.712265     1.701086     1.689907
      1.678727     1.667548     1.656368     1.645189     1.634009     1.622830     1.611650     1.600471     1.589292     1.578112
      1.566933     1.555753     1.544574     1.533394     1.522215     1.511035     1.499856     1.488677     1.477497     1.466318
      1.455138     1.443959     1.432779     1.421600     1.410420     1.399241     1.388062     1.376882     1.365703     1.354523
      1.343344     1.332164     1.320985     1.309805     1.298626     1.287446     1.276267     1.265088     1.253908     1.242729
      1.231549     1.220370     1.209190     1.198011     1.186831     1.175652     1.164473     1.153293     1.142114     1.130934
      1.119755     1.108575     1.097396     1.086216     1.075037     1.063858     1.052678     1.041499     1.030319     1.019140
      1.007960     0.996781     0.985601     0.974422     0.963243     0.952063     0.940884     0.929704     0.918525     0.907345
      0.896166     0.884986     0.873807     0.862628     0.851448     0.840269     0.829089     0.817910     0.806730     0.795551
      0.784371     0.773192     0.762012     0.750833     0.739654     0.728474     0.717295     0.706115     0.694936     0.683756
      0.672577     0.661397     0.650218     0.639039     0.627859     0.616680     0.605500     0.594321     0.583141     0.571962
      0.560782     0.549603     0.538424     0.527244     0.516065     0.504885     0.493706     0.482526     0.471347     0.460167
      0.448988     0.437809     0.426629     0.415450     0.404270     0.393091     0.381911     0.370732     0.359552     0.348373
      0.337193     0.326014     0.314835     0.303655     0.292476     0.281296     0.270117     0.258937     0.247758     0.236578
      0.225399     0.214220     0.203040
 NY phased data points follow
   1.89448E-08  1.90947E-08  2.13619E-08  2.21125E-08  2.38122E-08  2.18552E-08  2.19594E-08  1.99464E-08  2.04660E-08  1.84522E-08
   1.90344E-08  1.73196E-08  1.79065E-08  1.74364E-08  1.80806E-08  1.67771E-08  1.85404E-08  1.79691E-08  1.85505E-08  1.77011E-08
   1.79729E-08  1.65225E-08  1.71427E-08  1.62355E-08  1.61400E-08  1.59272E-08  1.61574E-08  1.54499E-08  1.69886E-08  1.57600E-08
   1.58845E-08  1.50707E-08  1.60737E-08  1.58620E-08  1.67473E-08  1.69564E-08  1.73644E-08  1.67968E-08  1.59172E-08  1.47093E-08
   1.39643E-08  1.24245E-08  1.30901E-08  1.18928E-08  1.23780E-08  1.13729E-08  1.15024E-08  1.06014E-08  1.03330E-08  9.93990E-09
   9.85714E-09  9.02350E-09  9.95499E-09  9.59474E-09  1.05219E-08  9.42556E-09  1.00283E-08  8.83784E-09  9.81212E-09  8.77307E-09
   9.66017E-09  9.42649E-09  1.06985E-08  1.03226E-08  1.24695E-08  1.27781E-08  1.47454E-08  1.47946E-08  1.51197E-08  1.34880E-08
   1.23914E-08  1.10982E-08  1.10162E-08  9.38101E-09  9.65886E-09  9.16325E-09  8.73014E-09  8.23723E-09  9.68815E-09  9.39656E-09
   1.07662E-08  1.31235E-08  1.57082E-08  1.63068E-08  1.64870E-08  1.59851E-08  1.51352E-08  1.43289E-08  1.28057E-08  1.27428E-08
   1.19646E-08  1.16326E-08  1.14405E-08  1.04955E-08  1.02874E-08  9.40134E-09  8.89998E-09  8.22708E-09  8.19826E-09  7.50718E-09
   7.38035E-09  7.01714E-09  7.40735E-09  6.72194E-09  7.33183E-09  6.98255E-09  7.50919E-09  6.54128E-09  6.53005E-09  6.01511E-09
   6.15493E-09  5.06628E-09  5.25333E-09  4.37457E-09  4.10165E-09  4.51063E-09  4.57648E-09  5.13015E-09  4.77066E-09  4.71065E-09
   4.32647E-09  4.44818E-09  4.74421E-09  4.14656E-09  4.25437E-09  3.81286E-09  3.54465E-09  2.99849E-09  2.77763E-09  2.20259E-09
   3.58554E-09  3.40900E-09  3.41282E-09  3.43145E-09  3.94047E-09  3.36351E-09  4.01795E-09  3.40016E-09  3.71678E-09  3.54987E-09
   3.85020E-09  3.89711E-09  4.76154E-09  5.39076E-09  5.72941E-09  4.55419E-09  5.58661E-09  5.04270E-09  6.61170E-09  6.33265E-09
   6.65834E-09  6.36382E-09  6.13867E-09  6.80188E-09  7.05362E-09  6.66660E-09  6.89208E-09  6.97573E-09  7.13112E-09  6.92473E-09
   7.46957E-09  7.16892E-09  7.63709E-09  7.64278E-09  8.41626E-09  7.87216E-09  8.25998E-09  8.48509E-09  9.30044E-09  1.01070E-08
   1.15188E-08  1.22100E-08  1.47906E-08  1.61587E-08  1.69075E-08  1.64123E-08  1.45817E-08  1.21264E-08  1.03518E-08  8.37221E-09
   7.45609E-09  5.58620E-09  4.88680E-09  3.17451E-09  2.65671E-09  1.76007E-09  5.33046E-10 -6.57524E-10 -1.40901E-09 -2.37535E-09
  -3.31548E-09 -5.06017E-09 -5.86962E-09 -8.13217E-09 -9.13887E-09 -1.05421E-08 -1.19737E-08 -1.47753E-08 -1.63117E-08 -1.86072E-08
  -2.08254E-08 -2.32211E-08 -2.48966E-08 -2.65642E-08 -2.76352E-08 -2.93870E-08 -2.92771E-08 -3.02984E-08 -2.94921E-08 -2.87838E-08
  -2.68348E-08 -2.52999E-08 -2.18923E-08 -1.87182E-08 -1.59588E-08 -1.29874E-08 -9.38718E-09 -6.04803E-09 -3.44137E-09 -1.07898E-09
   5.12571E-10  1.86303E-09  2.98861E-09  2.36361E-09  2.46194E-09  2.53679E-09  1.63557E-09  5.85776E-10  3.03429E-10 -2.89849E-11
   3.36874E-11  3.15366E-10  9.65358E-11  3.88690E-10  1.32970E-09  9.17562E-10  6.23507E-10  1.35023E-10  5.37595E-10  7.96514E-11
   4.34773E-11 -9.95024E-13  1.40805E-10  4.61257E-10  8.73713E-10  8.69888E-10  9.82065E-10  1.22136E-09  9.85258E-10  6.52833E-10
   3.29043E-10  3.82349E-11  2.68808E-10  5.58558E-10  5.50230E-10  4.46524E-10  1.02238E-09  1.51309E-09  1.36297E-09  1.70659E-09
   1.57553E-09  1.65911E-09  9.19593E-10  8.46137E-10  3.96371E-10  4.02962E-10  3.06682E-10  3.47959E-10  5.46700E-10  5.85190E-10
   9.16731E-10  1.08848E-09  1.33932E-09  1.13906E-09  1.17853E-09  1.82926E-09  1.97306E-09  2.08711E-09  1.44236E-09  1.47508E-09
   1.88510E-09  1.85689E-09  1.54179E-09  1.70413E-09  1.31030E-09  1.46326E-09  1.30074E-09  1.73343E-09  1.29781E-09  1.32338E-09
   4.80853E-10  1.79393E-09  1.54898E-09  1.52567E-09  1.05969E-09  1.41510E-09  1.26464E-09  1.92916E-09  9.30215E-10  1.57989E-09
   9.06849E-10  1.14353E-09  7.14099E-10  9.98801E-10  1.24709E-09  9.91048E-10  1.43905E-09  1.08272E-09  1.32273E-09  1.18271E-09
   8.13286E-10  9.71077E-10  1.07246E-09  1.21268E-09  1.57315E-09  1.22489E-09  8.79124E-10  1.50046E-09  1.25663E-09  1.42051E-09
   1.19204E-09  1.98325E-09  1.58028E-09  1.61766E-09  1.05364E-09  1.85261E-09  1.78725E-09  1.81567E-09  1.60301E-09  1.87300E-09
   1.59479E-09  1.89367E-09  2.32129E-09  2.01878E-09  1.94418E-09  1.88059E-09  2.32833E-09  2.17525E-09  2.29809E-09  1.74316E-09
   2.62987E-09  1.99577E-09  2.52667E-09  2.63268E-09  2.15774E-09  2.50048E-09  2.42859E-09  2.51842E-09  2.02413E-09  2.42696E-09
   2.59300E-09  2.78855E-09  2.93371E-09  3.40448E-09  2.81042E-09  2.61619E-09  2.69404E-09  3.44818E-09  3.01208E-09  2.99468E-09
   3.27320E-09  2.96216E-09  3.08272E-09
 NY points of the fit to the data follow
   2.01801E-08  2.05159E-08  2.08328E-08  2.11986E-08  2.13209E-08  2.10953E-08  2.04412E-08  1.95073E-08  1.85874E-08  1.77144E-08
   1.73510E-08  1.73337E-08  1.74443E-08  1.76828E-08  1.79902E-08  1.83689E-08  1.87979E-08  1.91199E-08  1.91123E-08  1.89081E-08
   1.87852E-08  1.85129E-08  1.78763E-08  1.71196E-08  1.63232E-08  1.55739E-08  1.52104E-08  1.54245E-08  1.58975E-08  1.64892E-08
   1.67830E-08  1.66203E-08  1.64146E-08  1.60862E-08  1.56390E-08  1.57262E-08  1.61149E-08  1.63349E-08  1.62347E-08  1.58611E-08
   1.52881E-08  1.46207E-08  1.35121E-08  1.22620E-08  1.15438E-08  1.08975E-08  1.01534E-08  9.70645E-09  9.57813E-09  9.61594E-09
   9.73328E-09  9.82645E-09  9.84805E-09  9.79291E-09  9.72559E-09  9.71790E-09  9.80777E-09  9.93614E-09  9.95841E-09  9.87802E-09
   9.83714E-09  9.97028E-09  1.04267E-08  1.09432E-08  1.15840E-08  1.24280E-08  1.31179E-08  1.35767E-08  1.39308E-08  1.40710E-08
   1.39202E-08  1.33624E-08  1.25182E-08  1.16679E-08  1.08982E-08  9.96714E-09  9.52884E-09  1.02297E-08  1.10997E-08  1.19656E-08
   1.29630E-08  1.38655E-08  1.46395E-08  1.53166E-08  1.55718E-08  1.51347E-08  1.40635E-08  1.25222E-08  1.10944E-08  1.07260E-08
   1.06337E-08  1.05774E-08  1.04524E-08  1.00009E-08  9.49320E-09  9.18823E-09  8.66743E-09  8.07616E-09  7.73982E-09  7.44404E-09
   7.17275E-09  6.99172E-09  6.86629E-09  6.79247E-09  6.74592E-09  6.70704E-09  6.66287E-09  6.60431E-09  6.52479E-09  6.42238E-09
   6.30528E-09  6.19376E-09  6.10089E-09  5.98680E-09  5.87709E-09  5.80805E-09  5.75193E-09  5.70088E-09  5.65218E-09  5.60456E-09
   5.55730E-09  5.50992E-09  5.46205E-09  5.41336E-09  5.36362E-09  5.31262E-09  5.26016E-09  5.20607E-09  5.15021E-09  5.09243E-09
   5.03258E-09  4.97053E-09  4.90616E-09  4.83934E-09  4.76998E-09  4.69793E-09  4.62310E-09  4.54538E-09  4.46467E-09  4.38088E-09
   4.29388E-09  4.20364E-09  4.11001E-09  4.01291E-09  3.91223E-09  3.80792E-09  3.69991E-09  3.58817E-09  3.47263E-09  3.35330E-09
   3.23021E-09  3.10340E-09  2.97300E-09  2.83919E-09  2.70224E-09  2.56254E-09  2.42069E-09  2.27753E-09  2.13434E-09  1.99300E-09
   1.85649E-09  1.72959E-09  1.62064E-09  1.54524E-09  1.53714E-09  1.68645E-09  2.34536E-09  4.62680E-09  7.77086E-09  1.08590E-08
   1.35799E-08  1.59057E-08  1.77362E-08  1.87254E-08  1.83399E-08  1.60485E-08  1.16657E-08  5.85243E-09  5.54100E-10 -1.73971E-09
  -2.64305E-09 -3.19660E-09 -3.61818E-09 -3.97481E-09 -4.29336E-09 -4.58645E-09 -4.86046E-09 -5.11882E-09 -5.36330E-09 -5.59482E-09
  -5.81374E-09 -6.02007E-09 -6.21359E-09 -6.39391E-09 -6.56058E-09 -6.71308E-09 -6.85100E-09 -6.97462E-09 -7.08431E-09 -7.18042E-09
  -7.26329E-09 -7.33323E-09 -7.39055E-09 -7.43557E-09 -7.46858E-09 -7.48987E-09 -7.49973E-09 -7.49846E-09 -7.48632E-09 -7.46360E-09
  -7.43059E-09 -7.38756E-09 -7.33478E-09 -7.27254E-09 -7.20110E-09 -7.12075E-09 -7.03175E-09 -6.93439E-09 -6.82892E-09 -6.71564E-09
  -6.59479E-09 -6.46666E-09 -6.33152E-09 -6.18964E-09 -6.04135E-09 -5.88708E-09 -5.72726E-09 -5.56235E-09 -5.39278E-09 -5.21901E-09
  -5.04148E-09 -4.86063E-09 -4.67691E-09 -4.49076E-09 -4.30260E-09 -4.11292E-09 -3.92213E-09 -3.73070E-09 -3.53903E-09 -3.34761E-09
  -3.15688E-09 -2.96724E-09 -2.77918E-09 -2.59314E-09 -2.40952E-09 -2.22881E-09 -2.05142E-09 -1.87782E-09 -1.70844E-09 -1.54375E-09
  -1.38413E-09 -1.23010E-09 -1.08181E-09 -9.39160E-10 -8.02030E-10 -6.70298E-10 -5.43816E-10 -4.22470E-10 -3.06119E-10 -1.94640E-10
  -8.79098E-11  1.42200E-11  1.11857E-10  2.05149E-10  2.94208E-10  3.79172E-10  4.60196E-10  5.37354E-10  6.10806E-10  6.80691E-10
   7.47135E-10  8.10247E-10  8.70184E-10  9.27063E-10  9.80994E-10  1.03215E-09  1.08062E-09  1.12655E-09  1.17006E-09  1.21130E-09
   1.25036E-09  1.28732E-09  1.32227E-09  1.35530E-09  1.38647E-09  1.41588E-09  1.44360E-09  1.46973E-09  1.49434E-09  1.51751E-09
   1.53934E-09  1.55989E-09  1.57926E-09  1.59753E-09  1.61478E-09  1.63108E-09  1.64654E-09  1.66122E-09  1.67520E-09  1.68859E-09
   1.70144E-09  1.71386E-09  1.72591E-09  1.73769E-09  1.74927E-09  1.76074E-09  1.77218E-09  1.78367E-09  1.79526E-09  1.80694E-09
   1.81875E-09  1.83069E-09  1.84279E-09  1.85505E-09  1.86749E-09  1.88013E-09  1.89298E-09  1.90607E-09  1.91939E-09  1.93298E-09
   1.94684E-09  1.96099E-09  1.97545E-09  1.99023E-09  2.00534E-09  2.02081E-09  2.03664E-09  2.05285E-09  2.06947E-09  2.08650E-09
   2.10395E-09  2.12185E-09  2.14022E-09  2.15905E-09  2.17838E-09  2.19821E-09  2.21853E-09  2.23931E-09  2.26054E-09  2.28220E-09
   2.30425E-09  2.32668E-09  2.34947E-09  2.37258E-09  2.39601E-09  2.41973E-09  2.44371E-09  2.46794E-09  2.49239E-09  2.51703E-09
   2.54185E-09  2.56683E-09  2.59194E-09  2.61715E-09  2.64245E-09  2.66782E-09  2.69323E-09  2.71865E-09  2.74408E-09  2.76947E-09
   2.79483E-09  2.82011E-09  2.84529E-09
 NY background values follow
     7.543E-09    7.505E-09    7.466E-09    7.428E-09    7.390E-09    7.351E-09    7.313E-09    7.275E-09    7.237E-09    7.198E-09
     7.161E-09    7.123E-09    7.085E-09    7.048E-09    7.010E-09    6.973E-09    6.937E-09    6.900E-09    6.864E-09    6.828E-09
     6.792E-09    6.757E-09    6.722E-09    6.688E-09    6.654E-09    6.620E-09    6.587E-09    6.554E-09    6.522E-09    6.491E-09
     6.459E-09    6.429E-09    6.399E-09    6.369E-09    6.340E-09    6.311E-09    6.283E-09    6.256E-09    6.229E-09    6.203E-09
     6.177E-09    6.152E-09    6.127E-09    6.103E-09    6.079E-09    6.056E-09    6.033E-09    6.012E-09    5.990E-09    5.969E-09
     5.949E-09    5.929E-09    5.910E-09    5.892E-09    5.874E-09    5.856E-09    5.839E-09    5.823E-09    5.807E-09    5.792E-09
     5.777E-09    5.763E-09    5.749E-09    5.736E-09    5.722E-09    5.710E-09    5.697E-09    5.684E-09    5.672E-09    5.660E-09
     5.648E-09    5.636E-09    5.624E-09    5.612E-09    5.601E-09    5.589E-09    5.577E-09    5.565E-09    5.552E-09    5.540E-09
     5.527E-09    5.514E-09    5.501E-09    5.487E-09    5.473E-09    5.459E-09    5.444E-09    5.429E-09    5.413E-09    5.397E-09
     5.381E-09    5.364E-09    5.346E-09    5.328E-09    5.310E-09    5.291E-09    5.272E-09    5.252E-09    5.232E-09    5.211E-09
     5.190E-09    5.168E-09    5.145E-09    5.122E-09    5.099E-09    5.075E-09    5.050E-09    5.025E-09    4.999E-09    4.972E-09
     4.945E-09    4.917E-09    4.889E-09    4.860E-09    4.830E-09    4.799E-09    4.767E-09    4.734E-09    4.700E-09    4.665E-09
     4.628E-09    4.589E-09    4.549E-09    4.507E-09    4.463E-09    4.417E-09    4.370E-09    4.319E-09    4.267E-09    4.212E-09
     4.155E-09    4.095E-09    4.032E-09    3.967E-09    3.898E-09    3.827E-09    3.752E-09    3.674E-09    3.593E-09    3.509E-09
     3.420E-09    3.328E-09    3.232E-09    3.133E-09    3.029E-09    2.921E-09    2.808E-09    2.691E-09    2.570E-09    2.444E-09
     2.313E-09    2.177E-09    2.035E-09    1.889E-09    1.737E-09    1.580E-09    1.417E-09    1.248E-09    1.074E-09    8.931E-10
     7.064E-10    5.133E-10    3.139E-10    1.079E-10   -1.047E-10   -3.241E-10   -5.505E-10   -7.839E-10   -1.024E-09   -1.271E-09
    -1.524E-09   -1.782E-09   -2.043E-09   -2.309E-09   -2.577E-09   -2.846E-09   -3.117E-09   -3.389E-09   -3.660E-09   -3.930E-09
    -4.198E-09   -4.463E-09   -4.725E-09   -4.983E-09   -5.235E-09   -5.483E-09   -5.723E-09   -5.957E-09   -6.182E-09   -6.399E-09
    -6.606E-09   -6.803E-09   -6.989E-09   -7.163E-09   -7.324E-09   -7.472E-09   -7.606E-09   -7.727E-09   -7.834E-09   -7.928E-09
    -8.009E-09   -8.077E-09   -8.133E-09   -8.177E-09   -8.209E-09   -8.229E-09   -8.238E-09   -8.236E-09   -8.224E-09   -8.200E-09
    -8.167E-09   -8.124E-09   -8.070E-09   -8.008E-09   -7.936E-09   -7.856E-09   -7.766E-09   -7.669E-09   -7.563E-09   -7.450E-09
    -7.329E-09   -7.201E-09   -7.065E-09   -6.924E-09   -6.775E-09   -6.621E-09   -6.461E-09   -6.296E-09   -6.126E-09   -5.953E-09
    -5.775E-09   -5.594E-09   -5.411E-09   -5.224E-09   -5.036E-09   -4.847E-09   -4.656E-09   -4.464E-09   -4.273E-09   -4.081E-09
    -3.891E-09   -3.701E-09   -3.513E-09   -3.327E-09   -3.143E-09   -2.963E-09   -2.785E-09   -2.612E-09   -2.442E-09   -2.278E-09
    -2.118E-09   -1.964E-09   -1.816E-09   -1.673E-09   -1.536E-09   -1.404E-09   -1.278E-09   -1.156E-09   -1.040E-09   -9.285E-10
    -8.217E-10   -7.196E-10   -6.219E-10   -5.286E-10   -4.396E-10   -3.546E-10   -2.736E-10   -1.964E-10   -1.229E-10   -5.302E-11
     1.345E-11    7.658E-11    1.365E-10    1.934E-10    2.474E-10    2.986E-10    3.471E-10    3.931E-10    4.366E-10    4.779E-10
     5.170E-10    5.540E-10    5.890E-10    6.220E-10    6.532E-10    6.827E-10    7.105E-10    7.367E-10    7.613E-10    7.846E-10
     8.064E-10    8.271E-10    8.465E-10    8.648E-10    8.821E-10    8.985E-10    9.140E-10    9.288E-10    9.428E-10    9.563E-10
     9.692E-10    9.817E-10    9.939E-10    1.006E-09    1.017E-09    1.029E-09    1.040E-09    1.052E-09    1.064E-09    1.076E-09
     1.087E-09    1.099E-09    1.112E-09    1.124E-09    1.137E-09    1.149E-09    1.162E-09    1.176E-09    1.189E-09    1.203E-09
     1.217E-09    1.231E-09    1.245E-09    1.260E-09    1.276E-09    1.291E-09    1.307E-09    1.324E-09    1.340E-09    1.357E-09
     1.375E-09    1.393E-09    1.412E-09    1.431E-09    1.450E-09    1.470E-09    1.491E-09    1.512E-09    1.533E-09    1.555E-09
     1.577E-09    1.600E-09    1.623E-09    1.646E-09    1.669E-09    1.693E-09    1.717E-09    1.742E-09    1.767E-09    1.791E-09
     1.816E-09    1.842E-09    1.867E-09    1.892E-09    1.918E-09    1.943E-09    1.969E-09    1.995E-09    2.020E-09    2.046E-09
     2.071E-09    2.097E-09    2.122E-09
 Ala      Conc. = 8.72E-11
   7.60489E-09  7.57361E-09  7.54008E-09  7.50483E-09  7.46776E-09  7.42878E-09  7.38666E-09  7.34069E-09  7.29639E-09  7.25288E-09
   7.20404E-09  7.15738E-09  7.11527E-09  7.07200E-09  7.02961E-09  6.98951E-09  6.95069E-09  6.91275E-09  6.87548E-09  6.83875E-09
   6.80254E-09  6.76680E-09  6.73155E-09  6.69675E-09  6.66240E-09  6.62857E-09  6.59522E-09  6.56236E-09  6.53003E-09  6.49824E-09
   6.46699E-09  6.43627E-09  6.40608E-09  6.37643E-09  6.34732E-09  6.31874E-09  6.29071E-09  6.26322E-09  6.23628E-09  6.20987E-09
   6.18402E-09  6.15870E-09  6.13395E-09  6.10975E-09  6.08611E-09  6.06301E-09  6.04048E-09  6.01854E-09  5.99712E-09  5.97629E-09
   5.95604E-09  5.93633E-09  5.91722E-09  5.89868E-09  5.88078E-09  5.86339E-09  5.84657E-09  5.83035E-09  5.81467E-09  5.79950E-09
   5.78480E-09  5.77054E-09  5.75668E-09  5.74318E-09  5.73001E-09  5.71715E-09  5.70455E-09  5.69218E-09  5.68000E-09  5.66798E-09
   5.65608E-09  5.64429E-09  5.63254E-09  5.62083E-09  5.60909E-09  5.59732E-09  5.58548E-09  5.57352E-09  5.56141E-09  5.54915E-09
   5.53666E-09  5.52395E-09  5.51094E-09  5.49768E-09  5.48405E-09  5.47011E-09  5.45583E-09  5.44121E-09  5.42629E-09  5.41105E-09
   5.39554E-09  5.37979E-09  5.36386E-09  5.34784E-09  5.33187E-09  5.31620E-09  5.30128E-09  5.28799E-09  5.27842E-09  5.27935E-09
   5.30234E-09  5.32469E-09  5.34415E-09  5.37900E-09  5.41708E-09  5.44613E-09  5.45745E-09  5.44478E-09  5.40360E-09  5.33359E-09
   5.24434E-09  5.15723E-09  5.08572E-09  4.99035E-09  4.89701E-09  4.84226E-09  4.79877E-09  4.75899E-09  4.72038E-09  4.68179E-09
   4.64261E-09  4.60242E-09  4.56096E-09  4.51800E-09  4.47337E-09  4.42692E-09  4.37849E-09  4.32796E-09  4.27521E-09  4.22011E-09
   4.16254E-09  4.10240E-09  4.03956E-09  3.97391E-09  3.90536E-09  3.83378E-09  3.75907E-09  3.68112E-09  3.59982E-09  3.51507E-09
   3.42671E-09  3.33470E-09  3.23886E-09  3.13908E-09  3.03522E-09  2.92716E-09  2.81476E-09  2.69790E-09  2.57644E-09  2.45026E-09
   2.31925E-09  2.18325E-09  2.04215E-09  1.89583E-09  1.74416E-09  1.58700E-09  1.42425E-09  1.25578E-09  1.08149E-09  9.01251E-10
   7.14972E-10  5.22572E-10  3.24041E-10  1.19372E-10 -9.11450E-11 -3.06575E-10 -5.22412E-10 -7.27427E-10 -9.34085E-10 -1.14932E-09
  -1.37409E-09 -1.60756E-09 -1.85036E-09 -2.10570E-09 -2.37834E-09 -2.67247E-09 -2.98798E-09 -3.31522E-09 -3.63135E-09 -3.91337E-09
  -4.18588E-09 -4.45347E-09 -4.71671E-09 -4.97530E-09 -5.22867E-09 -5.47617E-09 -5.71710E-09 -5.95074E-09 -6.17632E-09 -6.39312E-09
  -6.60038E-09 -6.79735E-09 -6.98327E-09 -7.15736E-09 -7.31889E-09 -7.46709E-09 -7.60142E-09 -7.72200E-09 -7.82911E-09 -7.92303E-09
  -8.00402E-09 -8.07234E-09 -8.12828E-09 -8.17210E-09 -8.20407E-09 -8.22446E-09 -8.23354E-09 -8.23158E-09 -8.21884E-09 -8.19561E-09
  -8.16215E-09 -8.11872E-09 -8.06560E-09 -8.00306E-09 -7.93136E-09 -7.85078E-09 -7.76159E-09 -7.66405E-09 -7.55844E-09 -7.44503E-09
  -7.32407E-09 -7.19585E-09 -7.06063E-09 -6.91868E-09 -6.77033E-09 -6.61602E-09 -6.45616E-09 -6.29122E-09 -6.12163E-09 -5.94784E-09
  -5.77030E-09 -5.58943E-09 -5.40571E-09 -5.21956E-09 -5.03141E-09 -4.84173E-09 -4.65095E-09 -4.45952E-09 -4.26786E-09 -4.07646E-09
  -3.88573E-09 -3.69611E-09 -3.50806E-09 -3.32203E-09 -3.13842E-09 -2.95772E-09 -2.78035E-09 -2.60676E-09 -2.43739E-09 -2.27271E-09
  -2.11310E-09 -1.95908E-09 -1.81079E-09 -1.66815E-09 -1.53102E-09 -1.39930E-09 -1.27282E-09 -1.15147E-09 -1.03512E-09 -9.23640E-10
  -8.16906E-10 -7.14772E-10 -6.17129E-10 -5.23830E-10 -4.34762E-10 -3.49786E-10 -2.68751E-10 -1.91578E-10 -1.18110E-10 -4.82077E-11
   1.82560E-11  8.13886E-11  1.41349E-10  1.98253E-10  2.52210E-10  3.03398E-10  3.51894E-10  3.97857E-10  4.41404E-10  4.82681E-10
   5.21777E-10  5.58778E-10  5.93770E-10  6.26835E-10  6.58052E-10  6.87509E-10  7.15283E-10  7.41461E-10  7.66126E-10  7.89356E-10
   8.11238E-10  8.31853E-10  8.51284E-10  8.69614E-10  8.86924E-10  9.03299E-10  9.18820E-10  9.33571E-10  9.47631E-10  9.61090E-10
   9.74021E-10  9.86516E-10  9.98653E-10  1.01051E-09  1.02218E-09  1.03374E-09  1.04527E-09  1.05686E-09  1.06853E-09  1.08031E-09
   1.09222E-09  1.10426E-09  1.11646E-09  1.12883E-09  1.14138E-09  1.15413E-09  1.16709E-09  1.18029E-09  1.19373E-09  1.20743E-09
   1.22142E-09  1.23569E-09  1.25027E-09  1.26517E-09  1.28042E-09  1.29602E-09  1.31198E-09  1.32833E-09  1.34509E-09  1.36226E-09
   1.37986E-09  1.39790E-09  1.41641E-09  1.43540E-09  1.45488E-09  1.47486E-09  1.49534E-09  1.51629E-09  1.53768E-09  1.55950E-09
   1.58172E-09  1.60432E-09  1.62728E-09  1.65057E-09  1.67418E-09  1.69808E-09  1.72224E-09  1.74666E-09  1.77129E-09  1.79613E-09
   1.82114E-09  1.84631E-09  1.87162E-09  1.89704E-09  1.92254E-09  1.94812E-09  1.97373E-09  1.99937E-09  2.02501E-09  2.05063E-09
   2.07620E-09  2.10171E-09  2.12712E-09
 Asp      Conc. = 5.84E-10
   8.23768E-09  8.11540E-09  7.99754E-09  7.87078E-09  7.74649E-09  7.61015E-09  7.49080E-09  7.39198E-09  7.32556E-09  7.27166E-09
   7.22406E-09  7.18027E-09  7.13910E-09  7.09961E-09  7.06091E-09  7.02283E-09  6.98542E-09  6.94867E-09  6.91254E-09  6.87701E-09
   6.84209E-09  6.80777E-09  6.77411E-09  6.74112E-09  6.70883E-09  6.67734E-09  6.64670E-09  6.61699E-09  6.58835E-09  6.56093E-09
   6.53493E-09  6.51064E-09  6.48850E-09  6.46926E-09  6.45425E-09  6.44639E-09  6.45273E-09  6.46520E-09  6.48679E-09  6.50350E-09
   6.51104E-09  6.51228E-09  6.51812E-09  6.54351E-09  6.58683E-09  6.66000E-09  6.72035E-09  6.76515E-09  6.84313E-09  6.93444E-09
   7.01656E-09  7.03865E-09  6.97664E-09  6.82773E-09  6.63280E-09  6.46482E-09  6.35062E-09  6.30211E-09  6.21923E-09  6.11307E-09
   6.05186E-09  6.01220E-09  5.98017E-09  5.96373E-09  5.94285E-09  5.89873E-09  5.84163E-09  5.80305E-09  5.77379E-09  5.74958E-09
   5.72849E-09  5.70949E-09  5.69194E-09  5.67545E-09  5.65971E-09  5.64454E-09  5.62976E-09  5.61523E-09  5.60086E-09  5.58658E-09
   5.57225E-09  5.55788E-09  5.54332E-09  5.52861E-09  5.51359E-09  5.49832E-09  5.48273E-09  5.46680E-09  5.45052E-09  5.43387E-09
   5.41685E-09  5.39941E-09  5.38157E-09  5.36330E-09  5.34460E-09  5.32543E-09  5.30581E-09  5.28572E-09  5.26513E-09  5.24407E-09
   5.22247E-09  5.20037E-09  5.17774E-09  5.15457E-09  5.13086E-09  5.10658E-09  5.08174E-09  5.05632E-09  5.03031E-09  5.00371E-09
   4.97651E-09  4.94869E-09  4.92022E-09  4.89107E-09  4.86113E-09  4.83027E-09  4.79841E-09  4.76542E-09  4.73121E-09  4.69566E-09
   4.65867E-09  4.62013E-09  4.57994E-09  4.53800E-09  4.49418E-09  4.44840E-09  4.40053E-09  4.35048E-09  4.29815E-09  4.24342E-09
   4.18618E-09  4.12633E-09  4.06377E-09  3.99838E-09  3.93008E-09  3.85874E-09  3.78426E-09  3.70655E-09  3.62549E-09  3.54098E-09
   3.45287E-09  3.36112E-09  3.26556E-09  3.16607E-09  3.06252E-09  2.95479E-09  2.84276E-09  2.72630E-09  2.60529E-09  2.47961E-09
   2.34914E-09  2.21376E-09  2.07337E-09  1.92785E-09  1.77710E-09  1.62103E-09  1.45957E-09  1.29264E-09  1.12022E-09  9.42309E-10
   7.58987E-10  5.70461E-10  3.77209E-10  1.80146E-10 -1.84575E-11 -2.12338E-10 -3.76012E-10 -4.24347E-10 -4.37513E-10 -4.69398E-10
  -5.32860E-10 -6.26630E-10 -7.57798E-10 -9.51127E-10 -1.24255E-09 -1.66586E-09 -2.22840E-09 -2.87654E-09 -3.46750E-09 -3.82923E-09
  -4.12923E-09 -4.40996E-09 -4.68061E-09 -4.94382E-09 -5.20025E-09 -5.44988E-09 -5.69235E-09 -5.92713E-09 -6.15357E-09 -6.37102E-09
  -6.57879E-09 -6.77617E-09 -6.96241E-09 -7.13676E-09 -7.29850E-09 -7.44688E-09 -7.58134E-09 -7.70203E-09 -7.80924E-09 -7.90324E-09
  -7.98428E-09 -8.05266E-09 -8.10864E-09 -8.15249E-09 -8.18449E-09 -8.20490E-09 -8.21400E-09 -8.21205E-09 -8.19932E-09 -8.17610E-09
  -8.14264E-09 -8.09922E-09 -8.04609E-09 -7.98355E-09 -7.91185E-09 -7.83127E-09 -7.74208E-09 -7.64453E-09 -7.53891E-09 -7.42549E-09
  -7.30453E-09 -7.17630E-09 -7.04108E-09 -6.89912E-09 -6.75077E-09 -6.59644E-09 -6.43658E-09 -6.27163E-09 -6.10203E-09 -5.92824E-09
