 LCModel (Version 6.3-1R) Copyright: S.W. Provencher.          Ref.: Magn. Reson. Med. 30:672-679 (1993).                
 onepulse 27x25_ftSpec_smooth_lcm
 26 lines in following concentration table = NCONC+1
    Conc.  %SD   /Cr    Metabolite                                         
 2.13E-10 186%   0.000 Ala                                                 
 1.10E-09 104%   0.000 Asp                                                 
    0.000 999%   0.000 Cr                                                  
 3.04E-09  24%   0.000 GABA                                                
 2.45E-09  30%   0.000 Glc                                                 
    0.000 999%   0.000 Gln                                                 
    0.000 999%   0.000 Glu                                                 
    0.000 999%   0.000 Glyc                                                
 1.76E-10  65%   0.000 GPC                                                 
 2.47E-10 192%   0.000 GSH                                                 
 5.18E-10  95%   0.000 Ins                                                 
    0.000 999%   0.000 Lac                                                 
    0.000 999%   0.000 NAAG                                                
 1.34E-09  23%   0.000 NAA                                                 
    0.000 999%   0.000 PCh                                                 
    0.000 999%   0.000 PCr                                                 
    0.000 999%   0.000 PE                                                  
    0.000 999%   0.000 Scyllo                                              
 1.82E-10 976%   0.000 Ser                                                 
    0.000 999%   0.000 Tau                                                 
 1.76E-10  65%   0.000 GPC+PCh                                             
 1.34E-09  23%   0.000 NAA+NAAG                                            
 5.18E-10  95%   0.000 Ins+Glyc                                            
    0.000 999%   0.000 Cr+PCr                                              
    0.000 999%   0.000 Glu+Gln                                             
   6 lines in following misc. output table
  FWHM = 0.089 ppm    S/N =   3                                            
  Data shift = 0.335 ppm                                                   
  Ph:  35 deg      17.9 deg/ppm                                            
  alphaB,S = 1.4E-01,   1.4E+02                                            
   16 spline knots.   Ns = 5(1)                                            
  (12) 2 infls.   ( 7) 1 extrs.                                            
  363 points on ppm-axis = NY
      4.250000     4.238821     4.227641     4.216462     4.205282     4.194103     4.182923     4.171744     4.160564     4.149385
      4.138206     4.127026     4.115847     4.104667     4.093488     4.082308     4.071129     4.059949     4.048770     4.037591
      4.026411     4.015232     4.004052     3.992873     3.981693     3.970514     3.959334     3.948155     3.936975     3.925796
      3.914617     3.903437     3.892258     3.881078     3.869899     3.858719     3.847540     3.836360     3.825181     3.814002
      3.802822     3.791643     3.780463     3.769284     3.758104     3.746925     3.735745     3.724566     3.713387     3.702207
      3.691028     3.679848     3.668669     3.657489     3.646310     3.635130     3.623951     3.612772     3.601592     3.590413
      3.579233     3.568054     3.556874     3.545695     3.534515     3.523336     3.512156     3.500977     3.489798     3.478618
      3.467439     3.456259     3.445080     3.433900     3.422721     3.411541     3.400362     3.389183     3.378003     3.366824
      3.355644     3.344465     3.333285     3.322106     3.310926     3.299747     3.288568     3.277388     3.266209     3.255029
      3.243850     3.232670     3.221491     3.210311     3.199132     3.187953     3.176773     3.165594     3.154414     3.143235
      3.132055     3.120876     3.109696     3.098517     3.087337     3.076158     3.064979     3.053799     3.042620     3.031440
      3.020261     3.009081     2.997902     2.986722     2.975543     2.964364     2.953184     2.942005     2.930825     2.919646
      2.908466     2.897287     2.886107     2.874928     2.863749     2.852569     2.841390     2.830210     2.819031     2.807851
      2.796672     2.785492     2.774313     2.763134     2.751954     2.740775     2.729595     2.718416     2.707236     2.696057
      2.684877     2.673698     2.662519     2.651339     2.640160     2.628980     2.617801     2.606621     2.595442     2.584262
      2.573083     2.561903     2.550724     2.539545     2.528365     2.517186     2.506006     2.494827     2.483647     2.472468
      2.461288     2.450109     2.438930     2.427750     2.416571     2.405391     2.394212     2.383032     2.371853     2.360673
      2.349494     2.338315     2.327135     2.315956     2.304776     2.293597     2.282417     2.271238     2.260058     2.248879
      2.237700     2.226520     2.215341     2.204161     2.192982     2.181802     2.170623     2.159443     2.148264     2.137084
      2.125905     2.114726     2.103546     2.092367     2.081187     2.070008     2.058828     2.047649     2.036469     2.025290
      2.014111     2.002931     1.991752     1.980572     1.969393     1.958213     1.947034     1.935854     1.924675     1.913496
      1.902316     1.891137     1.879957     1.868778     1.857598     1.846419     1.835239     1.824060     1.812881     1.801701
      1.790522     1.779342     1.768163     1.756983     1.745804     1.734624     1.723445     1.712265     1.701086     1.689907
      1.678727     1.667548     1.656368     1.645189     1.634009     1.622830     1.611650     1.600471     1.589292     1.578112
      1.566933     1.555753     1.544574     1.533394     1.522215     1.511035     1.499856     1.488677     1.477497     1.466318
      1.455138     1.443959     1.432779     1.421600     1.410420     1.399241     1.388062     1.376882     1.365703     1.354523
      1.343344     1.332164     1.320985     1.309805     1.298626     1.287446     1.276267     1.265088     1.253908     1.242729
      1.231549     1.220370     1.209190     1.198011     1.186831     1.175652     1.164473     1.153293     1.142114     1.130934
      1.119755     1.108575     1.097396     1.086216     1.075037     1.063858     1.052678     1.041499     1.030319     1.019140
      1.007960     0.996781     0.985601     0.974422     0.963243     0.952063     0.940884     0.929704     0.918525     0.907345
      0.896166     0.884986     0.873807     0.862628     0.851448     0.840269     0.829089     0.817910     0.806730     0.795551
      0.784371     0.773192     0.762012     0.750833     0.739654     0.728474     0.717295     0.706115     0.694936     0.683756
      0.672577     0.661397     0.650218     0.639039     0.627859     0.616680     0.605500     0.594321     0.583141     0.571962
      0.560782     0.549603     0.538424     0.527244     0.516065     0.504885     0.493706     0.482526     0.471347     0.460167
      0.448988     0.437809     0.426629     0.415450     0.404270     0.393091     0.381911     0.370732     0.359552     0.348373
      0.337193     0.326014     0.314835     0.303655     0.292476     0.281296     0.270117     0.258937     0.247758     0.236578
      0.225399     0.214220     0.203040
 NY phased data points follow
   1.83849E-08  2.13132E-08  2.21854E-08  2.39248E-08  2.17025E-08  2.08355E-08  1.89110E-08  1.86085E-08  1.70944E-08  1.77447E-08
   1.65945E-08  1.73889E-08  1.69494E-08  1.73904E-08  1.67340E-08  1.79842E-08  1.77280E-08  1.79610E-08  1.71572E-08  1.78271E-08
   1.69697E-08  1.68714E-08  1.57590E-08  1.56268E-08  1.48883E-08  1.56476E-08  1.52604E-08  1.69355E-08  1.51433E-08  1.52028E-08
   1.45180E-08  1.44822E-08  1.45565E-08  1.66985E-08  1.68217E-08  1.71933E-08  1.56212E-08  1.55193E-08  1.38050E-08  1.34684E-08
   1.17795E-08  1.22902E-08  1.15903E-08  1.23675E-08  1.06568E-08  1.10388E-08  9.87130E-09  1.06912E-08  8.84269E-09  9.77178E-09
   8.88990E-09  9.62449E-09  8.55012E-09  1.03190E-08  8.99027E-09  9.82096E-09  8.31797E-09  9.12739E-09  8.67256E-09  9.26020E-09
   8.97403E-09  1.03187E-08  9.75835E-09  1.13600E-08  1.19242E-08  1.46874E-08  1.40588E-08  1.40531E-08  1.20296E-08  1.12060E-08
   9.96663E-09  9.89351E-09  8.84986E-09  8.08656E-09  8.33277E-09  8.54669E-09  7.81907E-09  8.66986E-09  8.18591E-09  9.77140E-09
   1.27389E-08  1.61932E-08  1.73481E-08  1.81780E-08  1.60145E-08  1.50146E-08  1.33543E-08  1.29723E-08  1.17270E-08  1.15491E-08
   1.09874E-08  1.14528E-08  9.60474E-09  1.01276E-08  8.86714E-09  8.72549E-09  8.15121E-09  8.01176E-09  7.17248E-09  7.90557E-09
   6.46910E-09  7.09735E-09  6.25035E-09  7.53884E-09  6.59198E-09  7.39340E-09  6.46619E-09  6.43213E-09  6.08107E-09  6.24795E-09
   4.55106E-09  5.26419E-09  3.76625E-09  3.78264E-09  4.35736E-09  5.20678E-09  4.71175E-09  4.71507E-09  4.50661E-09  4.81806E-09
   4.11043E-09  5.07179E-09  3.78979E-09  4.06846E-09  3.29924E-09  3.45296E-09  2.08254E-09  2.88825E-09  1.97862E-09  3.53982E-09
   3.18548E-09  3.61241E-09  3.32489E-09  3.96541E-09  3.34868E-09  4.49831E-09  3.98135E-09  3.95423E-09  3.70491E-09  4.44450E-09
   4.67814E-09  6.05000E-09  6.45043E-09  7.58021E-09  6.25108E-09  6.53747E-09  6.59418E-09  7.85773E-09  7.35630E-09  8.16296E-09
   7.50125E-09  7.48616E-09  7.80254E-09  8.19337E-09  7.35973E-09  7.90009E-09  7.99036E-09  8.73801E-09  7.82469E-09  8.66901E-09
   8.17930E-09  9.07753E-09  8.92197E-09  9.60525E-09  9.38189E-09  9.76934E-09  9.92628E-09  1.07147E-08  1.13393E-08  1.18497E-08
   1.22634E-08  1.60881E-08  1.86656E-08  2.00052E-08  1.89089E-08  1.60363E-08  1.27558E-08  1.12844E-08  8.51368E-09  8.28344E-09
   5.98165E-09  5.52525E-09  3.96405E-09  3.08663E-09  2.09904E-09  8.23788E-10 -7.01684E-10 -1.37431E-09 -3.07987E-09 -3.65819E-09
  -5.40564E-09 -6.20558E-09 -8.70280E-09 -9.64579E-09 -1.14717E-08 -1.23224E-08 -1.47851E-08 -1.60970E-08 -1.85114E-08 -1.97961E-08
  -2.19348E-08 -2.30907E-08 -2.42439E-08 -2.43084E-08 -2.49097E-08 -2.42080E-08 -2.37686E-08 -2.23868E-08 -2.17157E-08 -1.95597E-08
  -1.90356E-08 -1.62024E-08 -1.46735E-08 -1.23049E-08 -1.07691E-08 -8.66673E-09 -6.89213E-09 -4.83257E-09 -3.65348E-09 -1.40174E-09
  -9.52283E-10  6.70142E-10 -2.35881E-10  5.68408E-10  4.31967E-10  6.71352E-11 -7.63463E-10 -1.01768E-09 -1.08551E-09 -6.71575E-10
  -8.15759E-10 -3.95273E-10 -5.37841E-10  5.31814E-10 -2.28047E-10 -3.40003E-10 -9.22137E-10 -6.83110E-10 -8.87374E-10 -8.62933E-10
  -7.81854E-10 -1.63800E-10 -4.87316E-10  8.87871E-10 -1.60846E-10  5.06301E-10  1.19577E-10  3.87139E-10  1.42033E-10 -3.11836E-11
  -4.34139E-10  8.96281E-11  7.10445E-11  9.60202E-10  5.68591E-10  1.13820E-09  1.49510E-09  1.58351E-09  8.72541E-10  1.60871E-09
   1.05153E-09  1.09662E-09  5.45466E-10  7.56526E-10 -6.69035E-11  4.37408E-12  5.76134E-10  4.55107E-10  3.31673E-10  1.13159E-09
   4.58351E-10  1.37343E-09  8.20075E-10  1.39286E-09  1.68797E-09  1.46612E-09  1.44422E-09  1.43116E-09  8.88629E-10  1.32629E-09
   1.29534E-09  1.58866E-09  7.09619E-10  7.07739E-10  6.59897E-10  7.85704E-10  1.00030E-09  5.13722E-10  6.12416E-10  3.40948E-10
   9.58536E-10  1.04256E-09  5.88741E-10  1.08526E-09  3.74449E-10  7.58941E-10  6.74868E-10  8.20973E-10  1.02349E-10  1.27111E-09
   3.32102E-10  5.26886E-10  1.33092E-10  6.67533E-10  7.03801E-10  9.24190E-10  2.07440E-10  8.96550E-10  8.91104E-10  1.49825E-10
   3.01355E-10  9.23025E-10  4.44004E-10  1.07949E-09  1.03722E-09  7.57666E-10  7.19582E-10  1.24629E-09  7.09057E-10  9.57989E-10
   1.34470E-09  1.36399E-09  1.21608E-09  1.08187E-09  8.87997E-10  1.24926E-09  1.23615E-09  1.31700E-09  1.05664E-09  1.54092E-09
   1.23585E-09  1.93332E-09  1.53825E-09  1.57435E-09  1.37859E-09  1.71348E-09  1.55887E-09  1.80532E-09  1.20827E-09  1.49930E-09
   1.49365E-09  1.81625E-09  1.67791E-09  1.82243E-09  2.03079E-09  1.68535E-09  1.83975E-09  2.06603E-09  1.69806E-09  2.32621E-09
   2.07249E-09  2.09099E-09  2.01892E-09  2.51452E-09  1.82418E-09  2.44113E-09  2.27384E-09  2.43893E-09  2.26311E-09  2.84103E-09
   2.20660E-09  2.83766E-09  2.00523E-09
 NY points of the fit to the data follow
   2.03139E-08  2.07024E-08  2.09569E-08  2.10615E-08  2.08452E-08  2.03029E-08  1.94479E-08  1.84540E-08  1.76090E-08  1.69418E-08
   1.67091E-08  1.67109E-08  1.67997E-08  1.69796E-08  1.72534E-08  1.76510E-08  1.81230E-08  1.85152E-08  1.86326E-08  1.84960E-08
   1.82117E-08  1.76288E-08  1.67196E-08  1.58318E-08  1.50924E-08  1.45926E-08  1.45241E-08  1.48923E-08  1.53852E-08  1.58421E-08
   1.59208E-08  1.57218E-08  1.55966E-08  1.53751E-08  1.51273E-08  1.52903E-08  1.55231E-08  1.54803E-08  1.51009E-08  1.44690E-08
   1.36830E-08  1.27877E-08  1.16065E-08  1.06431E-08  1.01476E-08  9.69934E-09  9.33742E-09  9.25796E-09  9.35700E-09  9.53894E-09
   9.71831E-09  9.80407E-09  9.78697E-09  9.66588E-09  9.49853E-09  9.39303E-09  9.36610E-09  9.42113E-09  9.38519E-09  9.28244E-09
   9.29304E-09  9.59407E-09  1.01087E-08  1.06867E-08  1.15185E-08  1.23380E-08  1.28575E-08  1.31690E-08  1.33002E-08  1.31304E-08
   1.26363E-08  1.18077E-08  1.08338E-08  9.95465E-09  9.09007E-09  8.38084E-09  8.40285E-09  9.29673E-09  1.05495E-08  1.20744E-08
   1.36193E-08  1.49131E-08  1.58949E-08  1.63870E-08  1.61118E-08  1.51025E-08  1.35376E-08  1.16787E-08  1.01363E-08  9.66880E-09
   9.52949E-09  9.40470E-09  9.11052E-09  8.60865E-09  8.19400E-09  7.80308E-09  7.25782E-09  6.83399E-09  6.57491E-09  6.35057E-09
   6.23737E-09  6.20394E-09  6.21706E-09  6.29028E-09  6.38150E-09  6.45391E-09  6.48497E-09  6.46174E-09  6.37852E-09  6.24085E-09
   6.07289E-09  5.91891E-09  5.80108E-09  5.65728E-09  5.54209E-09  5.50805E-09  5.49958E-09  5.50200E-09  5.51028E-09  5.52210E-09
   5.53619E-09  5.55172E-09  5.56807E-09  5.58476E-09  5.60142E-09  5.61771E-09  5.63333E-09  5.64802E-09  5.66153E-09  5.67362E-09
   5.68404E-09  5.69258E-09  5.69901E-09  5.70313E-09  5.70474E-09  5.70361E-09  5.69956E-09  5.69238E-09  5.68190E-09  5.66791E-09
   5.65020E-09  5.62848E-09  5.60231E-09  5.57131E-09  5.53509E-09  5.49329E-09  5.44554E-09  5.39151E-09  5.33084E-09  5.26324E-09
   5.18845E-09  5.10622E-09  5.01640E-09  4.91887E-09  4.81364E-09  4.70084E-09  4.58081E-09  4.45417E-09  4.32203E-09  4.18615E-09
   4.04948E-09  3.91706E-09  3.79784E-09  3.70913E-09  3.68923E-09  3.84445E-09  4.60857E-09  6.83547E-09  1.00273E-08  1.34108E-08
   1.65512E-08  1.91129E-08  2.06834E-08  2.08255E-08  1.92269E-08  1.58372E-08  1.09844E-08  5.54345E-09  1.08409E-09 -1.03529E-09
  -2.00032E-09 -2.65962E-09 -3.19903E-09 -3.67695E-09 -4.11698E-09 -4.53008E-09 -4.92156E-09 -5.29401E-09 -5.64846E-09 -5.98517E-09
  -6.30380E-09 -6.60373E-09 -6.88410E-09 -7.14385E-09 -7.38191E-09 -7.59709E-09 -7.78857E-09 -7.95684E-09 -8.10264E-09 -8.22670E-09
  -8.32968E-09 -8.41229E-09 -8.47520E-09 -8.51908E-09 -8.54457E-09 -8.55234E-09 -8.54304E-09 -8.51731E-09 -8.47580E-09 -8.41914E-09
  -8.34799E-09 -8.26297E-09 -8.16472E-09 -8.05389E-09 -7.93109E-09 -7.79698E-09 -7.65219E-09 -7.49733E-09 -7.33306E-09 -7.15999E-09
  -6.97877E-09 -6.79002E-09 -6.59438E-09 -6.39247E-09 -6.18491E-09 -5.97225E-09 -5.75503E-09 -5.53380E-09 -5.30910E-09 -5.08150E-09
  -4.85153E-09 -4.61974E-09 -4.38669E-09 -4.15292E-09 -3.91895E-09 -3.68536E-09 -3.45269E-09 -3.22149E-09 -2.99226E-09 -2.76563E-09
  -2.54210E-09 -2.32219E-09 -2.10649E-09 -1.89555E-09 -1.68986E-09 -1.49002E-09 -1.29654E-09 -1.10998E-09 -9.30891E-10 -7.59832E-10
  -5.97286E-10 -4.43879E-10 -2.99743E-10 -1.64627E-10 -3.82504E-11  7.96740E-11  1.89459E-10  2.91379E-10  3.85742E-10  4.72833E-10
   5.52939E-10  6.26372E-10  6.93402E-10  7.54342E-10  8.09466E-10  8.59076E-10  9.03490E-10  9.42946E-10  9.77766E-10  1.00825E-09
   1.03469E-09  1.05736E-09  1.07658E-09  1.09263E-09  1.10578E-09  1.11637E-09  1.12463E-09  1.13090E-09  1.13545E-09  1.13859E-09
   1.14049E-09  1.14123E-09  1.14092E-09  1.13964E-09  1.13748E-09  1.13454E-09  1.13089E-09  1.12664E-09  1.12186E-09  1.11666E-09
   1.11111E-09  1.10531E-09  1.09935E-09  1.09332E-09  1.08730E-09  1.08139E-09  1.07568E-09  1.07025E-09  1.06519E-09  1.06059E-09
   1.05655E-09  1.05315E-09  1.05048E-09  1.04862E-09  1.04768E-09  1.04773E-09  1.04887E-09  1.05117E-09  1.05467E-09  1.05932E-09
   1.06512E-09  1.07203E-09  1.08005E-09  1.08913E-09  1.09927E-09  1.11044E-09  1.12261E-09  1.13577E-09  1.14989E-09  1.16495E-09
   1.18093E-09  1.19780E-09  1.21555E-09  1.23414E-09  1.25356E-09  1.27379E-09  1.29480E-09  1.31657E-09  1.33908E-09  1.36230E-09
   1.38622E-09  1.41080E-09  1.43604E-09  1.46190E-09  1.48837E-09  1.51541E-09  1.54301E-09  1.57115E-09  1.59978E-09  1.62889E-09
   1.65845E-09  1.68844E-09  1.71882E-09  1.74958E-09  1.78068E-09  1.81210E-09  1.84382E-09  1.87580E-09  1.90802E-09  1.94046E-09
   1.97308E-09  2.00587E-09  2.03879E-09  2.07182E-09  2.10494E-09  2.13812E-09  2.17132E-09  2.20454E-09  2.23773E-09  2.27087E-09
   2.30395E-09  2.33692E-09  2.36977E-09
 NY background values follow
     7.926E-09    7.857E-09    7.789E-09    7.721E-09    7.653E-09    7.586E-09    7.518E-09    7.450E-09    7.383E-09    7.316E-09
     7.249E-09    7.183E-09    7.116E-09    7.051E-09    6.985E-09    6.920E-09    6.855E-09    6.791E-09    6.727E-09    6.664E-09
     6.601E-09    6.538E-09    6.477E-09    6.416E-09    6.355E-09    6.295E-09    6.236E-09    6.177E-09    6.120E-09    6.063E-09
     6.006E-09    5.951E-09    5.896E-09    5.843E-09    5.790E-09    5.738E-09    5.687E-09    5.638E-09    5.589E-09    5.541E-09
     5.495E-09    5.449E-09    5.405E-09    5.362E-09    5.321E-09    5.280E-09    5.241E-09    5.203E-09    5.167E-09    5.132E-09
     5.099E-09    5.067E-09    5.036E-09    5.007E-09    4.980E-09    4.955E-09    4.931E-09    4.908E-09    4.887E-09    4.868E-09
     4.850E-09    4.834E-09    4.819E-09    4.805E-09    4.792E-09    4.780E-09    4.769E-09    4.760E-09    4.751E-09    4.742E-09
     4.735E-09    4.728E-09    4.721E-09    4.716E-09    4.710E-09    4.705E-09    4.700E-09    4.695E-09    4.690E-09    4.686E-09
     4.681E-09    4.676E-09    4.671E-09    4.665E-09    4.660E-09    4.654E-09    4.647E-09    4.641E-09    4.634E-09    4.627E-09
     4.620E-09    4.613E-09    4.607E-09    4.600E-09    4.594E-09    4.588E-09    4.583E-09    4.578E-09    4.574E-09    4.570E-09
     4.567E-09    4.565E-09    4.564E-09    4.564E-09    4.564E-09    4.566E-09    4.569E-09    4.573E-09    4.579E-09    4.585E-09
     4.594E-09    4.604E-09    4.615E-09    4.628E-09    4.642E-09    4.657E-09    4.673E-09    4.690E-09    4.708E-09    4.725E-09
     4.743E-09    4.761E-09    4.778E-09    4.795E-09    4.811E-09    4.826E-09    4.840E-09    4.852E-09    4.864E-09    4.873E-09
     4.880E-09    4.886E-09    4.889E-09    4.889E-09    4.887E-09    4.881E-09    4.873E-09    4.861E-09    4.846E-09    4.826E-09
     4.803E-09    4.776E-09    4.743E-09    4.706E-09    4.663E-09    4.613E-09    4.558E-09    4.495E-09    4.425E-09    4.347E-09
     4.261E-09    4.166E-09    4.062E-09    3.948E-09    3.825E-09    3.691E-09    3.546E-09    3.390E-09    3.222E-09    3.042E-09
     2.850E-09    2.644E-09    2.425E-09    2.192E-09    1.945E-09    1.683E-09    1.406E-09    1.113E-09    8.048E-10    4.815E-10
     1.449E-10   -2.038E-10   -5.629E-10   -9.313E-10   -1.307E-09   -1.690E-09   -2.077E-09   -2.468E-09   -2.860E-09   -3.254E-09
    -3.646E-09   -4.037E-09   -4.424E-09   -4.806E-09   -5.181E-09   -5.549E-09   -5.907E-09   -6.255E-09   -6.590E-09   -6.913E-09
    -7.220E-09   -7.511E-09   -7.784E-09   -8.038E-09   -8.272E-09   -8.483E-09   -8.672E-09   -8.838E-09   -8.982E-09   -9.104E-09
    -9.206E-09   -9.288E-09   -9.350E-09   -9.394E-09   -9.419E-09   -9.427E-09   -9.418E-09   -9.392E-09   -9.351E-09   -9.295E-09
    -9.224E-09   -9.139E-09   -9.041E-09   -8.931E-09   -8.809E-09   -8.675E-09   -8.531E-09   -8.377E-09   -8.213E-09   -8.041E-09
    -7.861E-09   -7.672E-09   -7.478E-09   -7.276E-09   -7.069E-09   -6.857E-09   -6.641E-09   -6.420E-09   -6.196E-09   -5.970E-09
    -5.740E-09   -5.509E-09   -5.277E-09   -5.044E-09   -4.810E-09   -4.577E-09   -4.345E-09   -4.115E-09   -3.886E-09   -3.660E-09
    -3.437E-09   -3.218E-09   -3.003E-09   -2.793E-09   -2.587E-09   -2.388E-09   -2.195E-09   -2.009E-09   -1.831E-09   -1.660E-09
    -1.498E-09   -1.345E-09   -1.202E-09   -1.067E-09   -9.412E-10   -8.237E-10   -7.144E-10   -6.129E-10   -5.190E-10   -4.323E-10
    -3.527E-10   -2.796E-10   -2.130E-10   -1.525E-10   -9.773E-11   -4.849E-11   -4.444E-12    3.466E-11    6.913E-11    9.928E-11
     1.254E-10    1.477E-10    1.667E-10    1.824E-10    1.953E-10    2.056E-10    2.136E-10    2.196E-10    2.239E-10    2.268E-10
     2.284E-10    2.290E-10    2.284E-10    2.269E-10    2.246E-10    2.215E-10    2.176E-10    2.132E-10    2.083E-10    2.029E-10
     1.972E-10    1.913E-10    1.852E-10    1.790E-10    1.729E-10    1.669E-10    1.611E-10    1.556E-10    1.505E-10    1.458E-10
     1.417E-10    1.382E-10    1.355E-10    1.336E-10    1.327E-10    1.327E-10    1.338E-10    1.361E-10    1.396E-10    1.443E-10
     1.501E-10    1.571E-10    1.651E-10    1.743E-10    1.845E-10    1.957E-10    2.079E-10    2.212E-10    2.354E-10    2.505E-10
     2.666E-10    2.836E-10    3.015E-10    3.202E-10    3.397E-10    3.601E-10    3.813E-10    4.032E-10    4.259E-10    4.493E-10
     4.734E-10    4.981E-10    5.236E-10    5.496E-10    5.763E-10    6.036E-10    6.314E-10    6.598E-10    6.887E-10    7.180E-10
     7.478E-10    7.781E-10    8.087E-10    8.398E-10    8.712E-10    9.029E-10    9.349E-10    9.672E-10    9.997E-10    1.033E-09
     1.065E-09    1.099E-09    1.132E-09    1.165E-09    1.199E-09    1.232E-09    1.266E-09    1.299E-09    1.333E-09    1.367E-09
     1.400E-09    1.433E-09    1.467E-09
 Ala      Conc. = 2.13E-10
   8.09933E-09  8.04423E-09  7.98355E-09  7.91822E-09  7.84790E-09  7.77239E-09  7.68954E-09  7.60075E-09  7.51629E-09  7.43078E-09
   7.33782E-09  7.25335E-09  7.17610E-09  7.09721E-09  7.02212E-09  6.95161E-09  6.88354E-09  6.81702E-09  6.75165E-09  6.68720E-09
   6.62356E-09  6.56066E-09  6.49852E-09  6.43706E-09  6.37629E-09  6.31628E-09  6.25697E-09  6.19839E-09  6.14058E-09  6.08355E-09
   6.02735E-09  5.97196E-09  5.91746E-09  5.86385E-09  5.81118E-09  5.75947E-09  5.70876E-09  5.65908E-09  5.61046E-09  5.56293E-09
   5.51654E-09  5.47129E-09  5.42726E-09  5.38443E-09  5.34289E-09  5.30262E-09  5.26369E-09  5.22614E-09  5.18994E-09  5.15520E-09
   5.12193E-09  5.09013E-09  5.05988E-09  5.03118E-09  5.00416E-09  4.97868E-09  4.95486E-09  4.93274E-09  4.91220E-09  4.89318E-09
   4.87562E-09  4.85943E-09  4.84454E-09  4.83087E-09  4.81836E-09  4.80693E-09  4.79651E-09  4.78702E-09  4.77840E-09  4.77056E-09
   4.76344E-09  4.75696E-09  4.75106E-09  4.74566E-09  4.74068E-09  4.73608E-09  4.73177E-09  4.72767E-09  4.72372E-09  4.71988E-09
   4.71603E-09  4.71217E-09  4.70818E-09  4.70407E-09  4.69971E-09  4.69518E-09  4.69058E-09  4.68600E-09  4.68159E-09  4.67748E-09
   4.67387E-09  4.67095E-09  4.66899E-09  4.66836E-09  4.66957E-09  4.67338E-09  4.68114E-09  4.69530E-09  4.72153E-09  4.77705E-09
   4.88473E-09  4.99812E-09  5.11426E-09  5.26290E-09  5.41106E-09  5.52746E-09  5.59282E-09  5.59651E-09  5.53459E-09  5.41392E-09
   5.25977E-09  5.11700E-09  5.00813E-09  4.87135E-09  4.76151E-09  4.73141E-09  4.72584E-09  4.73031E-09  4.73989E-09  4.75234E-09
   4.76647E-09  4.78149E-09  4.79689E-09  4.81226E-09  4.82725E-09  4.84156E-09  4.85494E-09  4.86712E-09  4.87789E-09  4.88701E-09
   4.89425E-09  4.89940E-09  4.90226E-09  4.90258E-09  4.90020E-09  4.89487E-09  4.88641E-09  4.87461E-09  4.85927E-09  4.84016E-09
   4.81705E-09  4.78962E-09  4.75741E-09  4.72000E-09  4.67695E-09  4.62783E-09  4.57221E-09  4.50966E-09  4.43973E-09  4.36201E-09
   4.27607E-09  4.18146E-09  4.07778E-09  3.96458E-09  3.84146E-09  3.70798E-09  3.56373E-09  3.40830E-09  3.24130E-09  3.06233E-09
   2.87105E-09  2.66715E-09  2.45043E-09  2.22086E-09  1.97900E-09  1.72710E-09  1.47635E-09  1.25198E-09  1.02975E-09  7.94085E-10
   5.38123E-10  2.55606E-10 -6.24393E-11 -4.25127E-10 -8.37860E-10 -1.29925E-09 -1.79852E-09 -2.31102E-09 -2.79413E-09 -3.21264E-09
  -3.61516E-09 -4.01075E-09 -4.40070E-09 -4.78459E-09 -5.16142E-09 -5.53004E-09 -5.88916E-09 -6.23746E-09 -6.57354E-09 -6.89603E-09
  -7.20356E-09 -7.49473E-09 -7.76812E-09 -8.02232E-09 -8.25594E-09 -8.46757E-09 -8.65621E-09 -8.82223E-09 -8.96627E-09 -9.08895E-09
  -9.19090E-09 -9.27274E-09 -9.33512E-09 -9.37865E-09 -9.40398E-09 -9.41171E-09 -9.40249E-09 -9.37695E-09 -9.33570E-09 -9.27939E-09
  -9.20864E-09 -9.12407E-09 -9.02632E-09 -8.91603E-09 -8.79380E-09 -8.66030E-09 -8.51612E-09 -8.36190E-09 -8.19829E-09 -8.02589E-09
  -7.84534E-09 -7.65728E-09 -7.46232E-09 -7.26111E-09 -7.05424E-09 -6.84227E-09 -6.62575E-09 -6.40520E-09 -6.18120E-09 -5.95428E-09
  -5.72500E-09 -5.49388E-09 -5.26150E-09 -5.02839E-09 -4.79508E-09 -4.56214E-09 -4.33011E-09 -4.09955E-09 -3.87094E-09 -3.64493E-09
  -3.42201E-09 -3.20270E-09 -2.98760E-09 -2.77723E-09 -2.57212E-09 -2.37284E-09 -2.17991E-09 -1.99390E-09 -1.81535E-09 -1.64482E-09
  -1.48279E-09 -1.32989E-09 -1.18625E-09 -1.05162E-09 -9.25720E-10 -8.08263E-10 -6.98937E-10 -5.97465E-10 -5.03540E-10 -4.16878E-10
  -3.37191E-10 -2.64167E-10 -1.97537E-10 -1.36988E-10 -8.22445E-11 -3.30054E-11  1.10470E-11  5.01507E-11  8.46283E-11  1.14781E-10
   1.40901E-10  1.63256E-10  1.82170E-10  1.97922E-10  2.10782E-10  2.21093E-10  2.29093E-10  2.35104E-10  2.39406E-10  2.42304E-10
   2.43966E-10  2.44489E-10  2.43964E-10  2.42481E-10  2.40127E-10  2.36994E-10  2.33170E-10  2.28746E-10  2.23810E-10  2.18452E-10
   2.12762E-10  2.06829E-10  2.00743E-10  1.94592E-10  1.88466E-10  1.82454E-10  1.76646E-10  1.71130E-10  1.65997E-10  1.61335E-10
   1.57232E-10  1.53779E-10  1.51064E-10  1.49176E-10  1.48204E-10  1.48237E-10  1.49364E-10  1.51668E-10  1.55165E-10  1.59834E-10
   1.65653E-10  1.72599E-10  1.80649E-10  1.89781E-10  1.99973E-10  2.11202E-10  2.23446E-10  2.36681E-10  2.50887E-10  2.66039E-10
   2.82118E-10  2.99097E-10  3.16957E-10  3.35675E-10  3.55227E-10  3.75593E-10  3.96748E-10  4.18672E-10  4.41341E-10  4.64734E-10
   4.88826E-10  5.13597E-10  5.39024E-10  5.65085E-10  5.91758E-10  6.19018E-10  6.46842E-10  6.75203E-10  7.04074E-10  7.33429E-10
   7.63243E-10  7.93488E-10  8.24139E-10  8.55169E-10  8.86552E-10  9.18262E-10  9.50272E-10  9.82556E-10  1.01509E-09  1.04784E-09
   1.08079E-09  1.11392E-09  1.14718E-09  1.18056E-09  1.21403E-09  1.24757E-09  1.28115E-09  1.31474E-09  1.34832E-09  1.38185E-09
   1.41533E-09  1.44871E-09  1.48198E-09
 Asp      Conc. = 1.10E-09
   9.22168E-09  8.97339E-09  8.72254E-09  8.47904E-09  8.23244E-09  7.98836E-09  7.78521E-09  7.61043E-09  7.50130E-09  7.41545E-09
   7.33999E-09  7.27027E-09  7.20413E-09  7.14020E-09  7.07730E-09  7.01492E-09  6.95335E-09  6.89262E-09  6.83273E-09  6.77368E-09
   6.71551E-09  6.65828E-09  6.60207E-09  6.54694E-09  6.49297E-09  6.44036E-09  6.38921E-09  6.33971E-09  6.29213E-09  6.24677E-09
   6.20408E-09  6.16463E-09  6.12930E-09  6.09944E-09  6.07732E-09  6.06738E-09  6.07973E-09  6.11037E-09  6.15862E-09  6.20251E-09
   6.22821E-09  6.23465E-09  6.23419E-09  6.26655E-09  6.32245E-09  6.45967E-09  6.61018E-09  6.74235E-09  6.88988E-09  7.03919E-09
   7.12971E-09  7.09480E-09  6.92424E-09  6.63130E-09  6.27677E-09  5.98100E-09  5.75737E-09  5.66701E-09  5.54955E-09  5.40278E-09
   5.30232E-09  5.25205E-09  5.20690E-09  5.16942E-09  5.13233E-09  5.06344E-09  4.97482E-09  4.91874E-09  4.88169E-09  4.85461E-09
   4.83361E-09  4.81669E-09  4.80267E-09  4.79082E-09  4.78059E-09  4.77164E-09  4.76366E-09  4.75640E-09  4.74969E-09  4.74337E-09
   4.73727E-09  4.73131E-09  4.72531E-09  4.71922E-09  4.71289E-09  4.70633E-09  4.69958E-09  4.69269E-09  4.68573E-09  4.67874E-09
   4.67182E-09  4.66500E-09  4.65836E-09  4.65197E-09  4.64590E-09  4.64021E-09  4.63497E-09  4.63026E-09  4.62614E-09  4.62269E-09
   4.61996E-09  4.61805E-09  4.61701E-09  4.61692E-09  4.61785E-09  4.61986E-09  4.62306E-09  4.62748E-09  4.63321E-09  4.64033E-09
   4.64891E-09  4.65901E-09  4.67069E-09  4.68388E-09  4.69838E-09  4.71396E-09  4.73046E-09  4.74765E-09  4.76534E-09  4.78331E-09
   4.80138E-09  4.81933E-09  4.83697E-09  4.85410E-09  4.87050E-09  4.88599E-09  4.90036E-09  4.91340E-09  4.92492E-09  4.93472E-09
   4.94258E-09  4.94831E-09  4.95171E-09  4.95257E-09  4.95070E-09  4.94589E-09  4.93795E-09  4.92667E-09  4.91186E-09  4.89331E-09
   4.87077E-09  4.84395E-09  4.81239E-09  4.77566E-09  4.73334E-09  4.68500E-09  4.63023E-09  4.56859E-09  4.49968E-09  4.42306E-09
   4.33835E-09  4.24511E-09  4.14297E-09  4.03152E-09  3.91039E-09  3.77920E-09  3.63764E-09  3.48538E-09  3.32218E-09  3.14785E-09
   2.96236E-09  2.76587E-09  2.55899E-09  2.34307E-09  2.12146E-09  1.90292E-09  1.71835E-09  1.71152E-09  1.81978E-09  1.94234E-09
   2.02712E-09  2.03775E-09  1.92726E-09  1.64285E-09  1.14452E-09  4.22050E-10 -4.92527E-10 -1.50616E-09 -2.43869E-09 -3.05100E-09
  -3.51178E-09 -3.93305E-09 -4.33673E-09 -4.72880E-09 -5.11084E-09 -5.48294E-09 -5.84446E-09 -6.19444E-09 -6.53172E-09 -6.85509E-09
  -7.16324E-09 -7.45486E-09 -7.72858E-09 -7.98301E-09 -8.21677E-09 -8.42850E-09 -8.61719E-09 -8.78323E-09 -8.92726E-09 -9.04991E-09
  -9.15181E-09 -9.23360E-09 -9.29590E-09 -9.33936E-09 -9.36460E-09 -9.37225E-09 -9.36294E-09 -9.33730E-09 -9.29597E-09 -9.23956E-09
  -9.16872E-09 -9.08406E-09 -8.98621E-09 -8.87583E-09 -8.75351E-09 -8.61991E-09 -8.47564E-09 -8.32134E-09 -8.15763E-09 -7.98514E-09
  -7.80451E-09 -7.61636E-09 -7.42133E-09 -7.22003E-09 -7.01308E-09 -6.80104E-09 -6.58444E-09 -6.36382E-09 -6.13974E-09 -5.91275E-09
