 LCModel (Version 6.3-1R) Copyright: S.W. Provencher.          Ref.: Magn. Reson. Med. 30:672-679 (1993).                
 onepulse 27x21_ftSpec_smooth_lcm
 26 lines in following concentration table = NCONC+1
    Conc.  %SD /Cr+PCr  Metabolite                                         
    0.000 999%   0.000 Ala                                                 
 4.93E-10 276%   2.746 Asp                                                 
 1.80E-10 422%   1.000 Cr                                                  
 1.06E-09 207%   5.920 GABA                                                
 8.42E-10 341%   4.692 Glc                                                 
 1.87E-09  87%  10.391 Gln                                                 
 4.20E-10 475%   2.340 Glu                                                 
 1.03E-10 999%   0.575 Glyc                                                
    0.000 999%   0.000 GPC                                                 
    0.000 999%   0.000 GSH                                                 
 8.45E-10 444%   4.708 Ins                                                 
    0.000 999%   0.000 Lac                                                 
    0.000 999%   0.000 NAAG                                                
 7.00E-10  87%   3.901 NAA                                                 
 1.93E-10 232%   1.075 PCh                                                 
    0.000 999%   0.000 PCr                                                 
    0.000 999%   0.000 PE                                                  
 9.55E-11 589%   0.532 Scyllo                                              
 2.52E-09  84%  14.042 Ser                                                 
 3.59E-10 768%   1.998 Tau                                                 
 1.93E-10 232%   1.075 GPC+PCh                                             
 7.00E-10  87%   3.901 NAA+NAAG                                            
 9.49E-10  92%   5.283 Ins+Glyc                                            
 1.80E-10 422%   1.000 Cr+PCr                                              
 2.29E-09  75%  12.731 Glu+Gln                                             
   6 lines in following misc. output table
  FWHM = 0.112 ppm    S/N =   2                                            
  Data shift = 0.335 ppm                                                   
  Ph: -49 deg     -20.5 deg/ppm                                            
  alphaB,S = 1.8E-01,   2.3E+01                                            
   16 spline knots.   Ns = 5(1)                                            
  (11) 3 infls.   (11) 1 extrs.                                            
  363 points on ppm-axis = NY
      4.250000     4.238821     4.227641     4.216462     4.205282     4.194103     4.182923     4.171744     4.160564     4.149385
      4.138206     4.127026     4.115847     4.104667     4.093488     4.082308     4.071129     4.059949     4.048770     4.037591
      4.026411     4.015232     4.004052     3.992873     3.981693     3.970514     3.959334     3.948155     3.936975     3.925796
      3.914617     3.903437     3.892258     3.881078     3.869899     3.858719     3.847540     3.836360     3.825181     3.814002
      3.802822     3.791643     3.780463     3.769284     3.758104     3.746925     3.735745     3.724566     3.713387     3.702207
      3.691028     3.679848     3.668669     3.657489     3.646310     3.635130     3.623951     3.612772     3.601592     3.590413
      3.579233     3.568054     3.556874     3.545695     3.534515     3.523336     3.512156     3.500977     3.489798     3.478618
      3.467439     3.456259     3.445080     3.433900     3.422721     3.411541     3.400362     3.389183     3.378003     3.366824
      3.355644     3.344465     3.333285     3.322106     3.310926     3.299747     3.288568     3.277388     3.266209     3.255029
      3.243850     3.232670     3.221491     3.210311     3.199132     3.187953     3.176773     3.165594     3.154414     3.143235
      3.132055     3.120876     3.109696     3.098517     3.087337     3.076158     3.064979     3.053799     3.042620     3.031440
      3.020261     3.009081     2.997902     2.986722     2.975543     2.964364     2.953184     2.942005     2.930825     2.919646
      2.908466     2.897287     2.886107     2.874928     2.863749     2.852569     2.841390     2.830210     2.819031     2.807851
      2.796672     2.785492     2.774313     2.763134     2.751954     2.740775     2.729595     2.718416     2.707236     2.696057
      2.684877     2.673698     2.662519     2.651339     2.640160     2.628980     2.617801     2.606621     2.595442     2.584262
      2.573083     2.561903     2.550724     2.539545     2.528365     2.517186     2.506006     2.494827     2.483647     2.472468
      2.461288     2.450109     2.438930     2.427750     2.416571     2.405391     2.394212     2.383032     2.371853     2.360673
      2.349494     2.338315     2.327135     2.315956     2.304776     2.293597     2.282417     2.271238     2.260058     2.248879
      2.237700     2.226520     2.215341     2.204161     2.192982     2.181802     2.170623     2.159443     2.148264     2.137084
      2.125905     2.114726     2.103546     2.092367     2.081187     2.070008     2.058828     2.047649     2.036469     2.025290
      2.014111     2.002931     1.991752     1.980572     1.969393     1.958213     1.947034     1.935854     1.924675     1.913496
      1.902316     1.891137     1.879957     1.868778     1.857598     1.846419     1.835239     1.824060     1.812881     1.801701
      1.790522     1.779342     1.768163     1.756983     1.745804     1.734624     1.723445     1.712265     1.701086     1.689907
      1.678727     1.667548     1.656368     1.645189     1.634009     1.622830     1.611650     1.600471     1.589292     1.578112
      1.566933     1.555753     1.544574     1.533394     1.522215     1.511035     1.499856     1.488677     1.477497     1.466318
      1.455138     1.443959     1.432779     1.421600     1.410420     1.399241     1.388062     1.376882     1.365703     1.354523
      1.343344     1.332164     1.320985     1.309805     1.298626     1.287446     1.276267     1.265088     1.253908     1.242729
      1.231549     1.220370     1.209190     1.198011     1.186831     1.175652     1.164473     1.153293     1.142114     1.130934
      1.119755     1.108575     1.097396     1.086216     1.075037     1.063858     1.052678     1.041499     1.030319     1.019140
      1.007960     0.996781     0.985601     0.974422     0.963243     0.952063     0.940884     0.929704     0.918525     0.907345
      0.896166     0.884986     0.873807     0.862628     0.851448     0.840269     0.829089     0.817910     0.806730     0.795551
      0.784371     0.773192     0.762012     0.750833     0.739654     0.728474     0.717295     0.706115     0.694936     0.683756
      0.672577     0.661397     0.650218     0.639039     0.627859     0.616680     0.605500     0.594321     0.583141     0.571962
      0.560782     0.549603     0.538424     0.527244     0.516065     0.504885     0.493706     0.482526     0.471347     0.460167
      0.448988     0.437809     0.426629     0.415450     0.404270     0.393091     0.381911     0.370732     0.359552     0.348373
      0.337193     0.326014     0.314835     0.303655     0.292476     0.281296     0.270117     0.258937     0.247758     0.236578
      0.225399     0.214220     0.203040
 NY phased data points follow
   1.15922E-08  1.46299E-08  1.20913E-08  1.31156E-08  8.99138E-09  1.04239E-08  7.31645E-09  9.04441E-09  5.96052E-09  8.31603E-09
   5.16464E-09  8.27450E-09  6.36206E-09  8.19538E-09  6.25884E-09  9.26171E-09  6.47263E-09  8.62646E-09  6.05426E-09  7.64918E-09
   5.13721E-09  7.65791E-09  4.96452E-09  7.05300E-09  5.56728E-09  6.88274E-09  5.68934E-09  8.11908E-09  5.39301E-09  7.19550E-09
   5.25142E-09  8.21371E-09  5.94939E-09  8.31779E-09  6.35839E-09  7.64391E-09  5.11565E-09  5.25347E-09  3.26349E-09  3.83872E-09
   2.07840E-09  3.97954E-09  1.87843E-09  3.82318E-09  1.98617E-09  3.64427E-09  1.63884E-09  3.03691E-09  1.85786E-09  3.22180E-09
   2.06634E-09  4.08679E-09  3.13454E-09  4.44418E-09  2.98701E-09  4.27150E-09  2.99292E-09  4.98755E-09  3.23352E-09  5.67214E-09
   4.69480E-09  7.04191E-09  6.16484E-09  9.05876E-09  8.16202E-09  1.05165E-08  8.67835E-09  9.08723E-09  6.25098E-09  6.18650E-09
   4.29346E-09  5.29297E-09  3.20798E-09  5.01970E-09  3.45663E-09  4.63649E-09  3.97811E-09  6.59919E-09  5.35398E-09  8.76893E-09
   9.79891E-09  1.23435E-08  1.08424E-08  1.11798E-08  9.53119E-09  9.29129E-09  7.49409E-09  6.87497E-09  6.43107E-09  6.16896E-09
   5.27984E-09  5.53100E-09  4.31488E-09  4.62444E-09  3.49018E-09  3.70381E-09  2.71181E-09  3.44680E-09  2.25422E-09  2.87047E-09
   2.56343E-09  3.06756E-09  2.48692E-09  3.23438E-09  2.68806E-09  3.49136E-09  2.29582E-09  2.86623E-09  2.01498E-09  2.57697E-09
   1.30913E-09  2.00462E-09  6.29183E-10  1.47987E-09  1.51487E-09  2.06904E-09  2.15537E-09  2.08329E-09  2.04475E-09  2.00699E-09
   2.28104E-09  2.52362E-09  2.01509E-09  2.16183E-09  1.69725E-09  1.53199E-09  1.22822E-09  9.12449E-10  8.24971E-10  2.07725E-09
   1.94392E-09  2.04564E-09  2.16615E-09  2.59782E-09  2.16224E-09  2.78612E-09  1.92756E-09  2.87607E-09  2.39716E-09  2.95207E-09
   3.03936E-09  3.91272E-09  4.41425E-09  4.64450E-09  3.91083E-09  4.99132E-09  4.36154E-09  6.22666E-09  5.77148E-09  6.06118E-09
   5.71348E-09  5.75658E-09  6.25692E-09  6.56978E-09  6.06844E-09  6.60548E-09  6.48176E-09  6.41439E-09  6.68643E-09  7.25303E-09
   7.00168E-09  7.51981E-09  7.13996E-09  8.18644E-09  7.51818E-09  8.00662E-09  7.95273E-09  9.20305E-09  9.70656E-09  1.13275E-08
   1.21339E-08  1.45491E-08  1.61581E-08  1.69410E-08  1.68108E-08  1.58524E-08  1.39081E-08  1.22845E-08  1.06888E-08  9.80322E-09
   8.25027E-09  7.66883E-09  6.28492E-09  5.77941E-09  5.12158E-09  4.24924E-09  2.98558E-09  2.50480E-09  1.94791E-09  1.27389E-09
  -6.49560E-10 -1.06391E-09 -3.02989E-09 -4.20556E-09 -5.24735E-09 -6.61170E-09 -9.26703E-09 -1.08144E-08 -1.31138E-08 -1.55309E-08
  -1.80892E-08 -2.01135E-08 -2.21381E-08 -2.39760E-08 -2.61641E-08 -2.68853E-08 -2.84617E-08 -2.86357E-08 -2.85205E-08 -2.77171E-08
  -2.67995E-08 -2.43721E-08 -2.14264E-08 -1.95088E-08 -1.70361E-08 -1.37514E-08 -1.06401E-08 -7.95229E-09 -5.15719E-09 -3.45844E-09
  -1.76638E-09 -2.51389E-10 -2.76303E-11 -7.13873E-12  3.83286E-10  2.11905E-11 -6.74871E-10 -1.01451E-09 -1.28574E-09 -1.36511E-09
  -8.12980E-10 -1.07468E-09 -1.06200E-09 -1.32823E-10  6.19892E-11 -2.40424E-10 -5.80532E-10 -5.09579E-10 -6.64398E-10 -8.41601E-10
  -5.87168E-10 -1.04403E-09 -3.28528E-10 -4.69818E-10  8.59247E-11 -1.89545E-10  6.08323E-10  2.85202E-11  4.18647E-11 -1.76724E-10
  -3.37529E-10 -7.49354E-10 -2.50827E-10 -4.71682E-10 -1.53712E-10 -3.76351E-10  6.41822E-10 -1.84074E-10  1.09463E-09  7.13934E-10
   1.31440E-09  4.65460E-10  7.72075E-10 -1.65558E-10 -2.53500E-11 -3.61166E-10 -2.09498E-10 -6.63107E-10 -2.63969E-10 -4.25314E-10
   1.87645E-10 -2.28295E-10  5.77027E-10 -2.92314E-10  4.39570E-10  7.20737E-10  1.42673E-09  4.15744E-10  6.83069E-10  8.60221E-10
   1.40518E-09  3.61637E-10  1.30376E-09  6.46883E-10  9.66951E-10  1.64465E-10  1.09554E-09  4.42809E-10  1.32125E-09 -4.94675E-10
   8.19604E-10  4.05672E-10  1.01752E-09 -2.80268E-10  9.48974E-10 -4.73860E-11  1.20774E-09  3.53873E-10  8.54955E-10  1.27215E-10
   4.49574E-10  2.15837E-11 -6.06672E-11  2.00891E-10  3.51387E-11  1.29774E-10  3.70106E-10 -1.90172E-10  3.80572E-10 -3.42155E-10
  -1.53719E-10 -4.35909E-10  1.61896E-10 -3.77213E-10  2.94662E-10 -8.76183E-10  2.31853E-11 -5.38315E-10 -4.56516E-11 -8.70752E-10
   1.72836E-10 -4.67422E-10  1.98369E-10 -1.09422E-09 -1.15759E-10 -7.08024E-10 -3.93052E-12 -7.98163E-10 -2.33196E-10 -8.07522E-10
  -4.63664E-10 -3.01650E-10 -2.53340E-10 -6.70401E-10 -4.38962E-10 -7.21318E-10 -1.55948E-10 -5.53566E-10 -4.42714E-10 -7.14064E-10
  -1.00449E-10 -1.30915E-09  3.55254E-10 -9.21914E-10 -6.18338E-11 -1.05471E-09  3.52695E-11 -1.40628E-09 -5.58772E-10 -1.30357E-09
  -4.39189E-10 -1.25485E-09  2.46212E-10 -7.46577E-10 -2.81197E-10 -1.38170E-09 -3.14517E-10 -5.69736E-10 -4.88107E-10 -8.72643E-10
  -1.42109E-10 -1.18309E-09 -2.09185E-10
 NY points of the fit to the data follow
   1.41891E-08  1.28591E-08  1.13901E-08  1.07135E-08  1.06772E-08  1.02249E-08  9.04782E-09  8.02685E-09  7.53864E-09  7.37306E-09
   7.05517E-09  6.83084E-09  6.91614E-09  7.11409E-09  7.47821E-09  7.49660E-09  7.49538E-09  7.63635E-09  7.33839E-09  6.52116E-09
   6.11018E-09  6.08496E-09  6.08330E-09  6.25376E-09  6.45279E-09  6.39593E-09  6.50603E-09  6.59654E-09  6.69203E-09  6.89361E-09
   7.01124E-09  7.02576E-09  7.15693E-09  6.71351E-09  5.58219E-09  4.71540E-09  4.59978E-09  4.59186E-09  4.54331E-09  4.34556E-09
   4.06731E-09  3.90147E-09  3.30157E-09  2.56991E-09  2.54036E-09  2.56974E-09  2.32150E-09  2.23174E-09  2.34362E-09  2.50531E-09
   2.72564E-09  2.94174E-09  3.14300E-09  3.25715E-09  3.43651E-09  3.76854E-09  4.09750E-09  4.71188E-09  5.45986E-09  5.93969E-09
   6.29288E-09  6.78187E-09  7.31433E-09  7.57122E-09  7.80933E-09  7.81088E-09  7.54747E-09  7.32850E-09  6.72849E-09  6.09598E-09
   5.85053E-09  5.69417E-09  5.28459E-09  5.04374E-09  5.22167E-09  5.29354E-09  5.64459E-09  7.01944E-09  8.06250E-09  8.75247E-09
   9.36802E-09  9.80727E-09  9.96923E-09  1.01219E-08  1.00440E-08  9.49230E-09  8.79079E-09  7.58080E-09  5.59081E-09  4.81824E-09
   4.46627E-09  4.31186E-09  4.26479E-09  4.01590E-09  3.76980E-09  3.74156E-09  3.55660E-09  3.30598E-09  3.21481E-09  3.12351E-09
   3.02188E-09  2.96029E-09  2.92369E-09  2.90308E-09  2.89342E-09  2.89151E-09  2.89541E-09  2.90389E-09  2.91606E-09  2.93127E-09
   2.94885E-09  2.96826E-09  2.98925E-09  3.01151E-09  3.03473E-09  3.05871E-09  3.08306E-09  3.10747E-09  3.13171E-09  3.15553E-09
   3.17874E-09  3.20116E-09  3.22257E-09  3.24278E-09  3.26160E-09  3.27886E-09  3.29438E-09  3.30798E-09  3.31951E-09  3.32880E-09
   3.33568E-09  3.34001E-09  3.34163E-09  3.34039E-09  3.33613E-09  3.32871E-09  3.31799E-09  3.30381E-09  3.28605E-09  3.26456E-09
   3.23922E-09  3.20992E-09  3.17653E-09  3.13895E-09  3.09707E-09  3.05083E-09  3.00013E-09  2.94491E-09  2.88514E-09  2.82076E-09
   2.75180E-09  2.67828E-09  2.60030E-09  2.51802E-09  2.43168E-09  2.34168E-09  2.24858E-09  2.15326E-09  2.05704E-09  1.96198E-09
   1.87139E-09  1.79087E-09  1.73060E-09  1.71096E-09  1.77949E-09  2.07750E-09  3.23833E-09  7.20645E-09  1.04043E-08  1.22620E-08
   1.37354E-08  1.53466E-08  1.67949E-08  1.77153E-08  1.79771E-08  1.75141E-08  1.55524E-08  1.03986E-08  2.73446E-09 -2.42363E-10
  -1.33516E-09 -1.96384E-09 -2.41907E-09 -2.79121E-09 -3.11655E-09 -3.41214E-09 -3.68678E-09 -3.94530E-09 -4.19041E-09 -4.42366E-09
  -4.64586E-09 -4.85737E-09 -5.05826E-09 -5.24838E-09 -5.42749E-09 -5.59521E-09 -5.75127E-09 -5.89587E-09 -6.02926E-09 -6.15167E-09
  -6.26330E-09 -6.36433E-09 -6.45495E-09 -6.53531E-09 -6.60557E-09 -6.66587E-09 -6.71635E-09 -6.75716E-09 -6.78841E-09 -6.81025E-09
  -6.82280E-09 -6.82617E-09 -6.82050E-09 -6.80591E-09 -6.78251E-09 -6.75042E-09 -6.70976E-09 -6.66065E-09 -6.60320E-09 -6.53752E-09
  -6.46373E-09 -6.38195E-09 -6.29228E-09 -6.19484E-09 -6.08985E-09 -5.97773E-09 -5.85893E-09 -5.73390E-09 -5.60309E-09 -5.46695E-09
  -5.32594E-09 -5.18048E-09 -5.03106E-09 -4.87810E-09 -4.72204E-09 -4.56336E-09 -4.40249E-09 -4.23989E-09 -4.07597E-09 -3.91124E-09
  -3.74611E-09 -3.58103E-09 -3.41647E-09 -3.25286E-09 -3.09064E-09 -2.93027E-09 -2.77220E-09 -2.61686E-09 -2.46473E-09 -2.31625E-09
  -2.17183E-09 -2.03198E-09 -1.89687E-09 -1.76647E-09 -1.64070E-09 -1.51948E-09 -1.40274E-09 -1.29040E-09 -1.18237E-09 -1.07859E-09
  -9.78987E-10 -8.83461E-10 -7.91958E-10 -7.04383E-10 -6.20676E-10 -5.40751E-10 -4.64507E-10 -3.91920E-10 -3.22885E-10 -2.57313E-10
  -1.95131E-10 -1.36283E-10 -8.06639E-11 -2.82085E-11  2.11404E-11  6.75067E-11  1.10916E-10  1.51476E-10  1.89250E-10  2.24333E-10
   2.56780E-10  2.86656E-10  3.14028E-10  3.38962E-10  3.61512E-10  3.81751E-10  3.99735E-10  4.15535E-10  4.29213E-10  4.40826E-10
   4.50444E-10  4.58128E-10  4.63943E-10  4.67952E-10  4.70217E-10  4.70805E-10  4.69776E-10  4.67196E-10  4.63123E-10  4.57634E-10
   4.50775E-10  4.42623E-10  4.33239E-10  4.22677E-10  4.11011E-10  3.98303E-10  3.84612E-10  3.70008E-10  3.54532E-10  3.38227E-10
   3.21133E-10  3.03290E-10  2.84737E-10  2.65515E-10  2.45663E-10  2.25221E-10  2.04230E-10  1.82729E-10  1.60758E-10  1.38357E-10
   1.15566E-10  9.24246E-11  6.89737E-11  4.52522E-11  2.13011E-11 -2.84073E-12 -2.71326E-11 -5.15348E-11 -7.60078E-11 -1.00512E-10
  -1.25006E-10 -1.49451E-10 -1.73806E-10 -1.98033E-10 -2.22091E-10 -2.45944E-10 -2.69590E-10 -2.93038E-10 -3.16296E-10 -3.39375E-10
  -3.62282E-10 -3.85028E-10 -4.07622E-10 -4.30072E-10 -4.52387E-10 -4.74578E-10 -4.96653E-10 -5.18621E-10 -5.40492E-10 -5.62274E-10
  -5.83977E-10 -6.05610E-10 -6.27182E-10 -6.48701E-10 -6.70178E-10 -6.91622E-10 -7.13041E-10 -7.34445E-10 -7.55842E-10 -7.77243E-10
  -7.98656E-10 -8.20091E-10 -8.41555E-10
 NY background values follow
    -2.416E-09   -2.374E-09   -2.333E-09   -2.292E-09   -2.250E-09   -2.209E-09   -2.168E-09   -2.126E-09   -2.085E-09   -2.043E-09
    -2.002E-09   -1.961E-09   -1.920E-09   -1.878E-09   -1.837E-09   -1.796E-09   -1.755E-09   -1.714E-09   -1.673E-09   -1.632E-09
    -1.592E-09   -1.551E-09   -1.510E-09   -1.470E-09   -1.429E-09   -1.389E-09   -1.349E-09   -1.309E-09   -1.269E-09   -1.229E-09
    -1.189E-09   -1.150E-09   -1.110E-09   -1.071E-09   -1.031E-09   -9.919E-10   -9.526E-10   -9.135E-10   -8.744E-10   -8.353E-10
    -7.963E-10   -7.573E-10   -7.183E-10   -6.794E-10   -6.404E-10   -6.015E-10   -5.625E-10   -5.236E-10   -4.846E-10   -4.456E-10
    -4.065E-10   -3.674E-10   -3.283E-10   -2.891E-10   -2.498E-10   -2.105E-10   -1.711E-10   -1.316E-10   -9.197E-11   -5.231E-11
    -1.260E-11    2.718E-11    6.700E-11    1.069E-10    1.468E-10    1.867E-10    2.266E-10    2.666E-10    3.065E-10    3.465E-10
     3.864E-10    4.263E-10    4.662E-10    5.061E-10    5.459E-10    5.857E-10    6.255E-10    6.651E-10    7.047E-10    7.442E-10
     7.837E-10    8.230E-10    8.623E-10    9.014E-10    9.405E-10    9.794E-10    1.018E-09    1.057E-09    1.095E-09    1.134E-09
     1.172E-09    1.211E-09    1.249E-09    1.287E-09    1.325E-09    1.362E-09    1.400E-09    1.437E-09    1.475E-09    1.512E-09
     1.549E-09    1.586E-09    1.623E-09    1.660E-09    1.697E-09    1.734E-09    1.770E-09    1.807E-09    1.843E-09    1.879E-09
     1.915E-09    1.951E-09    1.987E-09    2.022E-09    2.058E-09    2.092E-09    2.127E-09    2.160E-09    2.192E-09    2.224E-09
     2.254E-09    2.282E-09    2.310E-09    2.335E-09    2.359E-09    2.380E-09    2.400E-09    2.418E-09    2.432E-09    2.445E-09
     2.455E-09    2.462E-09    2.466E-09    2.466E-09    2.464E-09    2.458E-09    2.448E-09    2.435E-09    2.418E-09    2.397E-09
     2.372E-09    2.342E-09    2.308E-09    2.270E-09    2.227E-09    2.179E-09    2.126E-09    2.068E-09    2.004E-09    1.936E-09
     1.861E-09    1.781E-09    1.696E-09    1.604E-09    1.507E-09    1.403E-09    1.293E-09    1.176E-09    1.053E-09    9.233E-10
     7.866E-10    6.430E-10    4.921E-10    3.341E-10    1.686E-10   -4.392E-12   -1.851E-10   -3.735E-10   -5.698E-10   -7.734E-10
    -9.837E-10   -1.200E-09   -1.422E-09   -1.648E-09   -1.878E-09   -2.111E-09   -2.348E-09   -2.586E-09   -2.825E-09   -3.065E-09
    -3.305E-09   -3.545E-09   -3.783E-09   -4.019E-09   -4.252E-09   -4.482E-09   -4.707E-09   -4.928E-09   -5.144E-09   -5.354E-09
    -5.557E-09   -5.752E-09   -5.940E-09   -6.118E-09   -6.288E-09   -6.447E-09   -6.595E-09   -6.734E-09   -6.861E-09   -6.978E-09
    -7.085E-09   -7.182E-09   -7.269E-09   -7.346E-09   -7.413E-09   -7.471E-09   -7.519E-09   -7.557E-09   -7.586E-09   -7.606E-09
    -7.616E-09   -7.618E-09   -7.610E-09   -7.594E-09   -7.569E-09   -7.536E-09   -7.494E-09   -7.443E-09   -7.385E-09   -7.318E-09
    -7.243E-09   -7.160E-09   -7.070E-09   -6.971E-09   -6.865E-09   -6.752E-09   -6.633E-09   -6.507E-09   -6.375E-09   -6.238E-09
    -6.097E-09   -5.950E-09   -5.800E-09   -5.647E-09   -5.490E-09   -5.331E-09   -5.169E-09   -5.006E-09   -4.841E-09   -4.676E-09
    -4.510E-09   -4.345E-09   -4.180E-09   -4.016E-09   -3.853E-09   -3.692E-09   -3.533E-09   -3.378E-09   -3.225E-09   -3.076E-09
    -2.931E-09   -2.791E-09   -2.655E-09   -2.524E-09   -2.398E-09   -2.277E-09   -2.159E-09   -2.047E-09   -1.938E-09   -1.834E-09
    -1.734E-09   -1.638E-09   -1.546E-09   -1.458E-09   -1.374E-09   -1.294E-09   -1.217E-09   -1.144E-09   -1.075E-09   -1.009E-09
    -9.465E-10   -8.873E-10   -8.313E-10   -7.785E-10   -7.288E-10   -6.821E-10   -6.384E-10   -5.975E-10   -5.594E-10   -5.239E-10
    -4.912E-10   -4.609E-10   -4.332E-10   -4.080E-10   -3.851E-10   -3.645E-10   -3.462E-10   -3.301E-10   -3.161E-10   -3.042E-10
    -2.942E-10   -2.862E-10   -2.801E-10   -2.757E-10   -2.732E-10   -2.722E-10   -2.730E-10   -2.752E-10   -2.790E-10   -2.841E-10
    -2.907E-10   -2.985E-10   -3.076E-10   -3.178E-10   -3.292E-10   -3.416E-10   -3.549E-10   -3.692E-10   -3.844E-10   -4.004E-10
    -4.172E-10   -4.347E-10   -4.529E-10   -4.718E-10   -4.914E-10   -5.115E-10   -5.321E-10   -5.533E-10   -5.750E-10   -5.971E-10
    -6.195E-10   -6.424E-10   -6.655E-10   -6.889E-10   -7.125E-10   -7.363E-10   -7.603E-10   -7.844E-10   -8.085E-10   -8.327E-10
    -8.569E-10   -8.810E-10   -9.050E-10   -9.289E-10   -9.526E-10   -9.761E-10   -9.994E-10   -1.023E-09   -1.045E-09   -1.068E-09
    -1.091E-09   -1.113E-09   -1.135E-09   -1.158E-09   -1.180E-09   -1.201E-09   -1.223E-09   -1.245E-09   -1.266E-09   -1.288E-09
    -1.309E-09   -1.330E-09   -1.352E-09   -1.373E-09   -1.394E-09   -1.415E-09   -1.436E-09   -1.457E-09   -1.478E-09   -1.499E-09
    -1.520E-09   -1.541E-09   -1.562E-09
 Asp      Conc. = 4.93E-10
  -1.83735E-09 -1.87241E-09 -1.88572E-09 -1.91870E-09 -1.92733E-09 -1.96105E-09 -1.99413E-09 -2.01527E-09 -2.00228E-09 -1.97669E-09
  -1.94522E-09 -1.91042E-09 -1.87328E-09 -1.83425E-09 -1.79479E-09 -1.75502E-09 -1.71491E-09 -1.67452E-09 -1.63390E-09 -1.59308E-09
  -1.55209E-09 -1.51096E-09 -1.46968E-09 -1.42825E-09 -1.38665E-09 -1.34488E-09 -1.30288E-09 -1.26059E-09 -1.21794E-09 -1.17480E-09
  -1.13099E-09 -1.08622E-09 -1.04005E-09 -9.91716E-10 -9.39696E-10 -8.80380E-10 -8.05102E-10 -7.36580E-10 -6.60283E-10 -5.99380E-10
  -5.45217E-10 -4.87281E-10 -4.07695E-10 -3.01899E-10 -1.75423E-10 -3.32988E-11  3.91112E-11  7.60735E-11  1.87966E-10  2.95753E-10
   4.11353E-10  5.09462E-10  5.60407E-10  5.30523E-10  4.38111E-10  3.32605E-10  2.60063E-10  3.04723E-10  3.12771E-10  2.45936E-10
   2.40704E-10  2.52977E-10  2.55620E-10  2.90596E-10  3.41061E-10  3.67925E-10  3.64217E-10  3.79172E-10  4.03086E-10  4.31691E-10
   4.63113E-10  4.96378E-10  5.30926E-10  5.66395E-10  6.02551E-10  6.39219E-10  6.76278E-10  7.13637E-10  7.51222E-10  7.88970E-10
   8.26845E-10  8.64797E-10  9.02805E-10  9.40827E-10  9.78854E-10  1.01686E-09  1.05482E-09  1.09275E-09  1.13063E-09  1.16844E-09
   1.20620E-09  1.24388E-09  1.28149E-09  1.31902E-09  1.35646E-09  1.39383E-09  1.43110E-09  1.46829E-09  1.50538E-09  1.54238E-09
   1.57928E-09  1.61609E-09  1.65280E-09  1.68940E-09  1.72591E-09  1.76231E-09  1.79862E-09  1.83481E-09  1.87091E-09  1.90690E-09
   1.94279E-09  1.97857E-09  2.01424E-09  2.04971E-09  2.08483E-09  2.11947E-09  2.15347E-09  2.18669E-09  2.21897E-09  2.25018E-09
   2.28017E-09  2.30879E-09  2.33589E-09  2.36133E-09  2.38496E-09  2.40664E-09  2.42621E-09  2.44354E-09  2.45847E-09  2.47086E-09
   2.48057E-09  2.48744E-09  2.49133E-09  2.49210E-09  2.48960E-09  2.48367E-09  2.47419E-09  2.46100E-09  2.44395E-09  2.42290E-09
   2.39771E-09  2.36823E-09  2.33434E-09  2.29590E-09  2.25278E-09  2.20485E-09  2.15197E-09  2.09400E-09  2.03084E-09  1.96233E-09
   1.88835E-09  1.80878E-09  1.72350E-09  1.63237E-09  1.53530E-09  1.43215E-09  1.32285E-09  1.20730E-09  1.08544E-09  9.57243E-10
   8.22759E-10  6.82150E-10  5.35846E-10  3.84815E-10  2.31636E-10  8.45365E-11 -1.66832E-11  2.64457E-11 -4.78023E-12 -1.09668E-10
  -2.33332E-10 -3.53325E-10 -4.89535E-10 -6.59403E-10 -8.67321E-10 -1.11698E-09 -1.45492E-09 -1.97154E-09 -2.60019E-09 -2.94479E-09
  -3.22161E-09 -3.47892E-09 -3.72733E-09 -3.96999E-09 -4.20785E-09 -4.44106E-09 -4.66939E-09 -4.89244E-09 -5.10969E-09 -5.32058E-09
  -5.52453E-09 -5.72091E-09 -5.90910E-09 -6.08843E-09 -6.25828E-09 -6.41799E-09 -6.56706E-09 -6.70551E-09 -6.83346E-09 -6.95102E-09
  -7.05830E-09 -7.15543E-09 -7.24250E-09 -7.31965E-09 -7.38697E-09 -7.44457E-09 -7.49258E-09 -7.53110E-09 -7.56024E-09 -7.58011E-09
  -7.59082E-09 -7.59249E-09 -7.58521E-09 -7.56911E-09 -7.54429E-09 -7.51087E-09 -7.46894E-09 -7.41862E-09 -7.36003E-09 -7.29327E-09
  -7.21845E-09 -7.13568E-09 -7.04506E-09 -6.94672E-09 -6.84086E-09 -6.72791E-09 -6.60831E-09 -6.48251E-09 -6.35096E-09 -6.21410E-09
  -6.07239E-09 -5.92626E-09 -5.77618E-09 -5.62259E-09 -5.46592E-09 -5.30664E-09 -5.14519E-09 -4.98202E-09 -4.81755E-09 -4.65228E-09
  -4.48663E-09 -4.32104E-09 -4.15597E-09 -3.99187E-09 -3.82917E-09 -3.66833E-09 -3.50979E-09 -3.35400E-09 -3.20142E-09 -3.05250E-09
  -2.90765E-09 -2.76737E-09 -2.63185E-09 -2.50103E-09 -2.37485E-09 -2.25324E-09 -2.13610E-09 -2.02337E-09 -1.91496E-09 -1.81080E-09
  -1.71082E-09 -1.61492E-09 -1.52305E-09 -1.43511E-09 -1.35105E-09 -1.27077E-09 -1.19417E-09 -1.12123E-09 -1.05185E-09 -9.85932E-10
  -9.23408E-10 -8.64222E-10 -8.08265E-10 -7.55476E-10 -7.05795E-10 -6.59098E-10 -6.15361E-10 -5.74475E-10 -5.36377E-10 -5.00972E-10
  -4.68204E-10 -4.38008E-10 -4.10318E-10 -3.85068E-10 -3.62202E-10 -3.41649E-10 -3.23351E-10 -3.07239E-10 -2.93251E-10 -2.81327E-10
  -2.71400E-10 -2.63407E-10 -2.57284E-10 -2.52967E-10 -2.50395E-10 -2.49501E-10 -2.50224E-10 -2.52498E-10 -2.56266E-10 -2.61451E-10
  -2.68005E-10 -2.75852E-10 -2.84932E-10 -2.95190E-10 -3.06552E-10 -3.18956E-10 -3.32344E-10 -3.46643E-10 -3.61815E-10 -3.77815E-10
  -3.94605E-10 -4.12143E-10 -4.30392E-10 -4.49308E-10 -4.68855E-10 -4.88991E-10 -5.09675E-10 -5.30870E-10 -5.52533E-10 -5.74626E-10
  -5.97109E-10 -6.19940E-10 -6.43081E-10 -6.66492E-10 -6.90132E-10 -7.13963E-10 -7.37942E-10 -7.62031E-10 -7.86190E-10 -8.10379E-10
  -8.34557E-10 -8.58685E-10 -8.82722E-10 -9.06630E-10 -9.30368E-10 -9.53900E-10 -9.77223E-10 -1.00035E-09 -1.02328E-09 -1.04603E-09
  -1.06862E-09 -1.09103E-09 -1.11330E-09 -1.13542E-09 -1.15740E-09 -1.17926E-09 -1.20100E-09 -1.22263E-09 -1.24416E-09 -1.26560E-09
  -1.28697E-09 -1.30826E-09 -1.32948E-09 -1.35066E-09 -1.37179E-09 -1.39288E-09 -1.41395E-09 -1.43500E-09 -1.45604E-09 -1.47709E-09
  -1.49814E-09 -1.51922E-09 -1.54032E-09
 Cr       Conc. = 1.80E-10
  -1.68693E-09 -1.71709E-09 -1.87599E-09 -2.12315E-09 -2.16074E-09 -2.14648E-09 -2.11812E-09 -2.08419E-09 -2.04754E-09 -2.00936E-09
  -1.97027E-09 -1.93058E-09 -1.89048E-09 -1.85009E-09 -1.80950E-09 -1.76874E-09 -1.72785E-09 -1.68686E-09 -1.64576E-09 -1.60455E-09
  -1.56322E-09 -1.52172E-09 -1.48001E-09 -1.43800E-09 -1.39553E-09 -1.35240E-09 -1.30815E-09 -1.26201E-09 -1.21225E-09 -1.15446E-09
  -1.07301E-09 -8.81590E-10 -6.20147E-10 -4.36543E-10 -3.00780E-10 -1.66626E-10 -2.99871E-11  8.70174E-11  1.70690E-10  2.18234E-10
   2.10648E-10  7.46148E-11 -2.44048E-10 -4.99526E-10 -5.36194E-10 -5.27704E-10 -5.04659E-10 -4.75284E-10 -4.42610E-10 -4.08021E-10
  -3.72220E-10 -3.35583E-10 -2.98358E-10 -2.60683E-10 -2.22675E-10 -1.84351E-10 -1.45776E-10 -1.06994E-10 -6.80285E-11 -2.89080E-11
   1.03444E-11  4.97092E-11  8.91700E-11  1.28713E-10  1.68324E-10  2.07989E-10  2.47700E-10  2.87444E-10  3.27211E-10  3.66993E-10
   4.06780E-10  4.46561E-10  4.86330E-10  5.26076E-10  5.65794E-10  6.05472E-10  6.45103E-10  6.84682E-10  7.24198E-10  7.63641E-10
   8.03012E-10  8.42291E-10  8.81484E-10  9.20570E-10  9.59554E-10  9.98422E-10  1.03718E-09  1.07582E-09  1.11435E-09  1.15277E-09
   1.19107E-09  1.22926E-09  1.26733E-09  1.30530E-09  1.34315E-09  1.38088E-09  1.41850E-09  1.45601E-09  1.49341E-09  1.53069E-09
   1.56785E-09  1.60491E-09  1.64185E-09  1.67867E-09  1.71538E-09  1.75198E-09  1.78847E-09  1.82484E-09  1.86110E-09  1.89724E-09
   1.93327E-09  1.96919E-09  2.00498E-09  2.04058E-09  2.07582E-09  2.11056E-09  2.14467E-09  2.17798E-09  2.21037E-09  2.24166E-09
   2.27173E-09  2.30043E-09  2.32760E-09  2.35311E-09  2.37681E-09  2.39854E-09  2.41817E-09  2.43555E-09  2.45053E-09  2.46297E-09
   2.47271E-09  2.47962E-09  2.48355E-09  2.48434E-09  2.48186E-09  2.47595E-09  2.46648E-09  2.45330E-09  2.43625E-09  2.41520E-09
   2.39000E-09  2.36050E-09  2.32658E-09  2.28811E-09  2.24494E-09  2.19695E-09  2.14400E-09  2.08595E-09  2.02267E-09  1.95404E-09
   1.87991E-09  1.80016E-09  1.71465E-09  1.62325E-09  1.52585E-09  1.42230E-09  1.31249E-09  1.19630E-09  1.07363E-09  9.44379E-10
   8.08476E-10  6.65898E-10  5.16725E-10  3.61223E-10  2.00288E-10  3.69834E-11 -1.13142E-10 -2.17610E-10 -3.54821E-10 -5.22867E-10
  -7.01535E-10 -8.82783E-10 -1.07353E-09 -1.27954E-09 -1.50190E-09 -1.74185E-09 -2.01658E-09 -2.35773E-09 -2.73608E-09 -3.01255E-09
  -3.26567E-09 -3.51147E-09 -3.75322E-09 -3.99161E-09 -4.22652E-09 -4.45760E-09 -4.68432E-09 -4.90612E-09 -5.12238E-09 -5.33247E-09
  -5.53576E-09 -5.73160E-09 -5.91932E-09 -6.09825E-09 -6.26776E-09 -6.42717E-09 -6.57598E-09 -6.71419E-09 -6.84193E-09 -6.95931E-09
  -7.06643E-09 -7.16340E-09 -7.25034E-09 -7.32736E-09 -7.39457E-09 -7.45207E-09 -7.49999E-09 -7.53842E-09 -7.56748E-09 -7.58727E-09
  -7.59791E-09 -7.59951E-09 -7.59217E-09 -7.57602E-09 -7.55114E-09 -7.51766E-09 -7.47569E-09 -7.42533E-09 -7.36669E-09 -7.29989E-09
  -7.22503E-09 -7.14222E-09 -7.05157E-09 -6.95320E-09 -6.84731E-09 -6.73433E-09 -6.61470E-09 -6.48887E-09 -6.35729E-09 -6.22040E-09
