 LCModel (Version 6.3-1R) Copyright: S.W. Provencher.          Ref.: Magn. Reson. Med. 30:672-679 (1993).                
 onepulse 27x20_ftSpec_smooth_lcm
 26 lines in following concentration table = NCONC+1
    Conc.  %SD   /Cr    Metabolite                                         
 5.69E-10 101%   0.000 Ala                                                 
    0.000 999%   0.000 Asp                                                 
    0.000 999%   0.000 Cr                                                  
 1.83E-09  60%   0.000 GABA                                                
 8.11E-10 236%   0.000 Glc                                                 
 4.16E-10 373%   0.000 Gln                                                 
 5.16E-10 276%   0.000 Glu                                                 
 8.86E-10 105%   0.000 Glyc                                                
    0.000 999%   0.000 GPC                                                 
    0.000 999%   0.000 GSH                                                 
    0.000 999%   0.000 Ins                                                 
 2.39E-10 238%   0.000 Lac                                                 
    0.000 999%   0.000 NAAG                                                
 1.08E-09  52%   0.000 NAA                                                 
    0.000 999%   0.000 PCh                                                 
    0.000 999%   0.000 PCr                                                 
 1.23E-09 174%   0.000 PE                                                  
 4.09E-11 999%   0.000 Scyllo                                              
 2.06E-09 105%   0.000 Ser                                                 
    0.000 999%   0.000 Tau                                                 
    0.000 999%   0.000 GPC+PCh                                             
 1.08E-09  52%   0.000 NAA+NAAG                                            
 8.86E-10 105%   0.000 Ins+Glyc                                            
    0.000 999%   0.000 Cr+PCr                                              
 9.32E-10 146%   0.000 Glu+Gln                                             
   6 lines in following misc. output table
  FWHM = 0.089 ppm    S/N =   2                                            
  Data shift = 0.347 ppm                                                   
  Ph:  -7 deg     -12.9 deg/ppm                                            
  alphaB,S = 4.8E+00,   2.2E+01                                            
    7 spline knots.   Ns = 5(1)                                            
  (12) 1 infls.   ( 7) 1 extrs.                                            
  363 points on ppm-axis = NY
      4.250000     4.238821     4.227641     4.216462     4.205282     4.194103     4.182923     4.171744     4.160564     4.149385
      4.138206     4.127026     4.115847     4.104667     4.093488     4.082308     4.071129     4.059949     4.048770     4.037591
      4.026411     4.015232     4.004052     3.992873     3.981693     3.970514     3.959334     3.948155     3.936975     3.925796
      3.914617     3.903437     3.892258     3.881078     3.869899     3.858719     3.847540     3.836360     3.825181     3.814002
      3.802822     3.791643     3.780463     3.769284     3.758104     3.746925     3.735745     3.724566     3.713387     3.702207
      3.691028     3.679848     3.668669     3.657489     3.646310     3.635130     3.623951     3.612772     3.601592     3.590413
      3.579233     3.568054     3.556874     3.545695     3.534515     3.523336     3.512156     3.500977     3.489798     3.478618
      3.467439     3.456259     3.445080     3.433900     3.422721     3.411541     3.400362     3.389183     3.378003     3.366824
      3.355644     3.344465     3.333285     3.322106     3.310926     3.299747     3.288568     3.277388     3.266209     3.255029
      3.243850     3.232670     3.221491     3.210311     3.199132     3.187953     3.176773     3.165594     3.154414     3.143235
      3.132055     3.120876     3.109696     3.098517     3.087337     3.076158     3.064979     3.053799     3.042620     3.031440
      3.020261     3.009081     2.997902     2.986722     2.975543     2.964364     2.953184     2.942005     2.930825     2.919646
      2.908466     2.897287     2.886107     2.874928     2.863749     2.852569     2.841390     2.830210     2.819031     2.807851
      2.796672     2.785492     2.774313     2.763134     2.751954     2.740775     2.729595     2.718416     2.707236     2.696057
      2.684877     2.673698     2.662519     2.651339     2.640160     2.628980     2.617801     2.606621     2.595442     2.584262
      2.573083     2.561903     2.550724     2.539545     2.528365     2.517186     2.506006     2.494827     2.483647     2.472468
      2.461288     2.450109     2.438930     2.427750     2.416571     2.405391     2.394212     2.383032     2.371853     2.360673
      2.349494     2.338315     2.327135     2.315956     2.304776     2.293597     2.282417     2.271238     2.260058     2.248879
      2.237700     2.226520     2.215341     2.204161     2.192982     2.181802     2.170623     2.159443     2.148264     2.137084
      2.125905     2.114726     2.103546     2.092367     2.081187     2.070008     2.058828     2.047649     2.036469     2.025290
      2.014111     2.002931     1.991752     1.980572     1.969393     1.958213     1.947034     1.935854     1.924675     1.913496
      1.902316     1.891137     1.879957     1.868778     1.857598     1.846419     1.835239     1.824060     1.812881     1.801701
      1.790522     1.779342     1.768163     1.756983     1.745804     1.734624     1.723445     1.712265     1.701086     1.689907
      1.678727     1.667548     1.656368     1.645189     1.634009     1.622830     1.611650     1.600471     1.589292     1.578112
      1.566933     1.555753     1.544574     1.533394     1.522215     1.511035     1.499856     1.488677     1.477497     1.466318
      1.455138     1.443959     1.432779     1.421600     1.410420     1.399241     1.388062     1.376882     1.365703     1.354523
      1.343344     1.332164     1.320985     1.309805     1.298626     1.287446     1.276267     1.265088     1.253908     1.242729
      1.231549     1.220370     1.209190     1.198011     1.186831     1.175652     1.164473     1.153293     1.142114     1.130934
      1.119755     1.108575     1.097396     1.086216     1.075037     1.063858     1.052678     1.041499     1.030319     1.019140
      1.007960     0.996781     0.985601     0.974422     0.963243     0.952063     0.940884     0.929704     0.918525     0.907345
      0.896166     0.884986     0.873807     0.862628     0.851448     0.840269     0.829089     0.817910     0.806730     0.795551
      0.784371     0.773192     0.762012     0.750833     0.739654     0.728474     0.717295     0.706115     0.694936     0.683756
      0.672577     0.661397     0.650218     0.639039     0.627859     0.616680     0.605500     0.594321     0.583141     0.571962
      0.560782     0.549603     0.538424     0.527244     0.516065     0.504885     0.493706     0.482526     0.471347     0.460167
      0.448988     0.437809     0.426629     0.415450     0.404270     0.393091     0.381911     0.370732     0.359552     0.348373
      0.337193     0.326014     0.314835     0.303655     0.292476     0.281296     0.270117     0.258937     0.247758     0.236578
      0.225399     0.214220     0.203040
 NY phased data points follow
   2.03356E-08  1.85614E-08  2.11044E-08  1.73121E-08  1.88658E-08  1.59318E-08  1.74574E-08  1.43465E-08  1.65417E-08  1.28885E-08
   1.52534E-08  1.36413E-08  1.52166E-08  1.32346E-08  1.59982E-08  1.36630E-08  1.57180E-08  1.36732E-08  1.51006E-08  1.27294E-08
   1.48160E-08  1.25329E-08  1.38335E-08  1.26215E-08  1.34863E-08  1.21893E-08  1.48280E-08  1.26585E-08  1.40050E-08  1.19296E-08
   1.47165E-08  1.29297E-08  1.49881E-08  1.39669E-08  1.52053E-08  1.35693E-08  1.34081E-08  1.16464E-08  1.19187E-08  9.81715E-09
   1.12122E-08  9.13965E-09  1.03961E-08  9.00480E-09  1.02056E-08  8.52762E-09  9.22013E-09  7.81236E-09  8.93995E-09  7.70887E-09
   8.80968E-09  8.18333E-09  9.08407E-09  7.94564E-09  8.79250E-09  7.35697E-09  9.01189E-09  7.24624E-09  8.93361E-09  8.05902E-09
   9.71422E-09  9.40001E-09  1.14639E-08  1.16715E-08  1.39513E-08  1.38196E-08  1.41376E-08  1.26145E-08  1.19674E-08  1.03648E-08
   1.06213E-08  8.91680E-09  9.41471E-09  8.26526E-09  8.48688E-09  7.72345E-09  9.27632E-09  8.18810E-09  1.04763E-08  1.22563E-08
   1.48365E-08  1.52465E-08  1.53814E-08  1.54519E-08  1.49157E-08  1.43219E-08  1.29140E-08  1.28946E-08  1.23966E-08  1.17070E-08
   1.16678E-08  1.07976E-08  1.05872E-08  1.00950E-08  9.80037E-09  8.91559E-09  9.21250E-09  8.27391E-09  8.04890E-09  8.31205E-09
   7.89971E-09  8.06884E-09  7.88145E-09  7.85470E-09  8.09298E-09  7.69707E-09  7.64919E-09  7.33806E-09  7.18643E-09  6.60083E-09
   6.55993E-09  5.45761E-09  5.45386E-09  5.99165E-09  5.71219E-09  6.27373E-09  5.59236E-09  6.15654E-09  5.74047E-09  6.49801E-09
   6.27005E-09  6.39282E-09  5.71305E-09  5.88426E-09  5.09437E-09  5.28604E-09  4.15830E-09  4.33167E-09  4.56979E-09  5.10918E-09
   4.70935E-09  5.00087E-09  4.89152E-09  4.96830E-09  5.21618E-09  4.33843E-09  4.83615E-09  4.74889E-09  4.61680E-09  5.08314E-09
   5.29751E-09  6.05600E-09  6.15919E-09  5.96867E-09  6.64318E-09  6.26388E-09  7.49249E-09  7.96251E-09  7.71191E-09  7.79615E-09
   7.49525E-09  8.28203E-09  8.37487E-09  8.08293E-09  8.31562E-09  8.62663E-09  7.85541E-09  8.69681E-09  9.09637E-09  8.91099E-09
   9.36747E-09  8.77691E-09  9.62923E-09  9.36427E-09  9.28327E-09  9.27945E-09  1.01651E-08  1.08188E-08  1.19078E-08  1.34177E-08
   1.51762E-08  1.79171E-08  1.90963E-08  2.02610E-08  2.01852E-08  1.96005E-08  1.82072E-08  1.70902E-08  1.62031E-08  1.51791E-08
   1.44248E-08  1.36727E-08  1.27938E-08  1.25268E-08  1.18423E-08  1.06665E-08  1.00313E-08  9.95752E-09  9.38482E-09  7.59875E-09
   7.06225E-09  5.82781E-09  3.93637E-09  3.33103E-09  1.86047E-09 -4.90639E-10 -2.33787E-09 -4.48146E-09 -7.31775E-09 -9.87936E-09
  -1.26437E-08 -1.48905E-08 -1.77368E-08 -2.03175E-08 -2.21082E-08 -2.39925E-08 -2.51614E-08 -2.56011E-08 -2.60044E-08 -2.55746E-08
  -2.43317E-08 -2.17929E-08 -2.04358E-08 -1.85593E-08 -1.56764E-08 -1.29281E-08 -1.04194E-08 -7.38320E-09 -5.49168E-09 -3.80544E-09
  -2.21936E-09 -1.59247E-09 -1.53317E-09 -1.15675E-09 -1.22836E-09 -1.53013E-09 -1.82950E-09 -1.93149E-09 -2.30141E-09 -1.40580E-09
  -1.57644E-09 -1.68075E-09 -1.05755E-09 -5.50429E-10 -7.12628E-10 -8.96876E-10 -1.18165E-09 -1.22711E-09 -1.30365E-09 -8.28736E-10
  -1.46188E-09 -7.07546E-10 -1.02796E-09 -3.01742E-10 -7.17877E-10  2.36836E-10 -5.55612E-10 -5.70670E-10 -4.74211E-10 -5.65112E-10
  -1.18263E-09 -7.20887E-10 -8.51639E-10 -2.44370E-10 -7.14139E-10  2.93455E-10 -9.05091E-10  5.56554E-10  4.48163E-10  8.37233E-10
   3.92360E-11  5.52011E-10 -3.70139E-10 -3.23371E-10 -7.82370E-10 -3.50596E-10 -1.23151E-09 -7.67373E-10 -9.27754E-10 -2.89646E-10
  -7.60290E-10  3.43030E-10 -5.18647E-10 -2.16209E-10  3.31543E-10  9.01022E-10 -1.10898E-11  2.59611E-10  6.60496E-10  1.17085E-09
  -1.24095E-11  8.57408E-10  5.76933E-10  6.20110E-10 -1.65472E-10  5.84470E-10 -1.42210E-10  1.07701E-09 -6.80428E-10  4.79683E-10
  -1.10636E-10  6.42972E-10 -8.88003E-10  6.52292E-10 -4.59629E-10  4.87616E-10  2.19535E-10  4.15506E-10 -2.33889E-10  5.21220E-11
  -1.45314E-10 -4.50301E-10 -1.18781E-10 -3.71402E-10 -2.40308E-10  1.41768E-10 -6.46704E-10 -1.19975E-10 -5.61680E-10 -5.49360E-10
  -6.79130E-10 -5.58890E-11 -7.79652E-10 -1.79610E-10 -1.07582E-09 -3.42473E-10 -7.52731E-10 -4.37978E-10 -1.06964E-09 -5.75245E-11
  -8.30803E-10 -2.16526E-10 -1.42252E-09 -2.68233E-10 -1.21831E-09 -4.03408E-10 -1.17766E-09 -6.86533E-10 -1.18554E-09 -6.79023E-10
  -4.43999E-10 -7.87938E-10 -1.12364E-09 -6.45736E-10 -1.12142E-09 -4.58290E-10 -1.13040E-09 -6.48421E-10 -1.00978E-09 -4.08364E-10
  -1.72444E-09 -7.52858E-11 -1.07680E-09 -4.62326E-10 -1.44554E-09 -4.46092E-10 -1.73689E-09 -8.96942E-10 -1.65185E-09 -7.30269E-10
  -1.46156E-09 -2.06784E-10 -1.21448E-09 -7.74924E-10 -1.58495E-09 -6.97823E-10 -9.04360E-10 -8.09609E-10 -1.26725E-09 -4.23703E-10
  -1.59158E-09 -6.67167E-10 -1.83916E-09
 NY points of the fit to the data follow
   2.22201E-08  2.04884E-08  1.91606E-08  1.85414E-08  1.78326E-08  1.67927E-08  1.55708E-08  1.45722E-08  1.42213E-08  1.42168E-08
   1.42055E-08  1.42559E-08  1.44032E-08  1.46325E-08  1.50050E-08  1.53291E-08  1.54604E-08  1.52409E-08  1.45013E-08  1.34677E-08
   1.30924E-08  1.31734E-08  1.32599E-08  1.33384E-08  1.32940E-08  1.32803E-08  1.34645E-08  1.36597E-08  1.38219E-08  1.40726E-08
   1.41030E-08  1.38671E-08  1.37930E-08  1.37452E-08  1.34009E-08  1.32354E-08  1.30959E-08  1.29671E-08  1.27512E-08  1.23792E-08
   1.19639E-08  1.17088E-08  1.10904E-08  1.02636E-08  1.00116E-08  9.75945E-09  9.24335E-09  8.97124E-09  8.87503E-09  8.86064E-09
   8.91009E-09  8.96069E-09  9.00685E-09  8.99131E-09  8.99007E-09  9.06698E-09  9.26264E-09  9.53719E-09  9.81492E-09  9.99765E-09
   1.01314E-08  1.03748E-08  1.08692E-08  1.12528E-08  1.17765E-08  1.23829E-08  1.26848E-08  1.26929E-08  1.26075E-08  1.24651E-08
   1.22660E-08  1.18196E-08  1.10856E-08  1.04399E-08  1.00777E-08  9.47996E-09  9.35133E-09  1.06362E-08  1.18426E-08  1.27116E-08
   1.34740E-08  1.39986E-08  1.44288E-08  1.49268E-08  1.51305E-08  1.48635E-08  1.40127E-08  1.21963E-08  9.92086E-09  9.15677E-09
   8.83097E-09  8.66862E-09  8.56989E-09  8.19310E-09  7.78395E-09  7.64235E-09  7.30609E-09  6.87926E-09  6.70842E-09  6.64052E-09
   6.73793E-09  6.81119E-09  6.87195E-09  7.12292E-09  7.39677E-09  7.61528E-09  7.79979E-09  7.97068E-09  7.98131E-09  7.81009E-09
   7.50259E-09  7.19529E-09  7.10449E-09  6.73686E-09  6.21223E-09  5.95214E-09  5.70811E-09  5.42244E-09  5.15512E-09  4.96920E-09
   4.69483E-09  4.44599E-09  4.31322E-09  4.21610E-09  4.13440E-09  4.06106E-09  3.99290E-09  3.92825E-09  3.86615E-09  3.80598E-09
   3.74730E-09  3.68985E-09  3.63343E-09  3.57789E-09  3.52312E-09  3.46905E-09  3.41557E-09  3.36269E-09  3.31035E-09  3.25853E-09
   3.20724E-09  3.15647E-09  3.10623E-09  3.05652E-09  3.00735E-09  2.95878E-09  2.91086E-09  2.86364E-09  2.81720E-09  2.77162E-09
   2.72707E-09  2.68367E-09  2.64164E-09  2.60128E-09  2.56293E-09  2.52710E-09  2.49447E-09  2.46600E-09  2.44313E-09  2.42796E-09
   2.42387E-09  2.43648E-09  2.47593E-09  2.56247E-09  2.74347E-09  3.16033E-09  4.45620E-09  8.41420E-09  1.22103E-08  1.49558E-08
   1.69529E-08  1.85972E-08  1.99928E-08  2.10874E-08  2.15889E-08  2.08018E-08  1.76247E-08  1.15792E-08  4.96265E-09  3.09171E-09
   2.38995E-09  2.02025E-09  1.78602E-09  1.61955E-09  1.49159E-09  1.38749E-09  1.29915E-09  1.22174E-09  1.15224E-09  1.08862E-09
   1.02953E-09  9.73991E-10  9.21306E-10  8.70958E-10  8.22564E-10  7.75823E-10  7.30498E-10  6.86406E-10  6.43412E-10  6.01388E-10
   5.60237E-10  5.19881E-10  4.80271E-10  4.41335E-10  4.03027E-10  3.65326E-10  3.28182E-10  2.91577E-10  2.55479E-10  2.19878E-10
   1.84755E-10  1.50087E-10  1.15864E-10  8.20760E-11  4.87064E-11  1.57633E-11 -1.67793E-11 -4.89251E-11 -8.06754E-11 -1.12032E-10
  -1.43008E-10 -1.73599E-10 -2.03822E-10 -2.33662E-10 -2.63138E-10 -2.92242E-10 -3.20996E-10 -3.49361E-10 -3.77382E-10 -4.05043E-10
  -4.32351E-10 -4.59294E-10 -4.85891E-10 -5.12123E-10 -5.38004E-10 -5.63540E-10 -5.88719E-10 -6.13546E-10 -6.38022E-10 -6.62146E-10
  -6.85925E-10 -7.09344E-10 -7.32424E-10 -7.55150E-10 -7.77535E-10 -7.99566E-10 -8.21241E-10 -8.42567E-10 -8.63550E-10 -8.84176E-10
  -9.04456E-10 -9.24384E-10 -9.43959E-10 -9.63199E-10 -9.82072E-10 -1.00061E-09 -1.01878E-09 -1.03660E-09 -1.05408E-09 -1.07121E-09
  -1.08797E-09 -1.10439E-09 -1.12046E-09 -1.13616E-09 -1.15152E-09 -1.16652E-09 -1.18117E-09 -1.19547E-09 -1.20941E-09 -1.22296E-09
  -1.23621E-09 -1.24906E-09 -1.26158E-09 -1.27373E-09 -1.28553E-09 -1.29699E-09 -1.30812E-09 -1.31890E-09 -1.32937E-09 -1.33950E-09
  -1.34933E-09 -1.35884E-09 -1.36805E-09 -1.37695E-09 -1.38556E-09 -1.39388E-09 -1.40192E-09 -1.40968E-09 -1.41717E-09 -1.42439E-09
  -1.43135E-09 -1.43805E-09 -1.44450E-09 -1.45071E-09 -1.45667E-09 -1.46240E-09 -1.46790E-09 -1.47318E-09 -1.47824E-09 -1.48309E-09
  -1.48773E-09 -1.49216E-09 -1.49640E-09 -1.50045E-09 -1.50431E-09 -1.50800E-09 -1.51150E-09 -1.51484E-09 -1.51801E-09 -1.52103E-09
  -1.52389E-09 -1.52660E-09 -1.52917E-09 -1.53161E-09 -1.53391E-09 -1.53609E-09 -1.53814E-09 -1.54008E-09 -1.54191E-09 -1.54364E-09
  -1.54526E-09 -1.54680E-09 -1.54824E-09 -1.54960E-09 -1.55088E-09 -1.55209E-09 -1.55324E-09 -1.55432E-09 -1.55535E-09 -1.55632E-09
  -1.55725E-09 -1.55814E-09 -1.55900E-09 -1.55983E-09 -1.56063E-09 -1.56142E-09 -1.56219E-09 -1.56296E-09 -1.56372E-09 -1.56448E-09
  -1.56526E-09 -1.56605E-09 -1.56686E-09 -1.56769E-09 -1.56856E-09 -1.56946E-09 -1.57040E-09 -1.57139E-09 -1.57243E-09 -1.57353E-09
  -1.57469E-09 -1.57592E-09 -1.57722E-09 -1.57860E-09 -1.58006E-09 -1.58162E-09 -1.58327E-09 -1.58502E-09 -1.58687E-09 -1.58884E-09
  -1.59093E-09 -1.59313E-09 -1.59547E-09
 NY background values follow
     8.640E-09    8.598E-09    8.557E-09    8.515E-09    8.474E-09    8.433E-09    8.392E-09    8.351E-09    8.310E-09    8.269E-09
     8.228E-09    8.187E-09    8.146E-09    8.105E-09    8.065E-09    8.024E-09    7.983E-09    7.943E-09    7.902E-09    7.862E-09
     7.821E-09    7.781E-09    7.740E-09    7.700E-09    7.659E-09    7.619E-09    7.578E-09    7.538E-09    7.498E-09    7.457E-09
     7.417E-09    7.376E-09    7.336E-09    7.295E-09    7.255E-09    7.214E-09    7.174E-09    7.133E-09    7.093E-09    7.052E-09
     7.012E-09    6.971E-09    6.930E-09    6.889E-09    6.849E-09    6.808E-09    6.767E-09    6.726E-09    6.685E-09    6.644E-09
     6.603E-09    6.561E-09    6.520E-09    6.479E-09    6.437E-09    6.396E-09    6.354E-09    6.312E-09    6.271E-09    6.229E-09
     6.187E-09    6.145E-09    6.103E-09    6.060E-09    6.018E-09    5.975E-09    5.933E-09    5.890E-09    5.847E-09    5.804E-09
     5.761E-09    5.718E-09    5.675E-09    5.631E-09    5.588E-09    5.544E-09    5.500E-09    5.456E-09    5.412E-09    5.368E-09
     5.323E-09    5.279E-09    5.234E-09    5.189E-09    5.144E-09    5.099E-09    5.053E-09    5.007E-09    4.962E-09    4.916E-09
     4.870E-09    4.823E-09    4.777E-09    4.730E-09    4.683E-09    4.636E-09    4.589E-09    4.541E-09    4.494E-09    4.446E-09
     4.398E-09    4.350E-09    4.302E-09    4.254E-09    4.206E-09    4.157E-09    4.109E-09    4.060E-09    4.011E-09    3.962E-09
     3.913E-09    3.864E-09    3.815E-09    3.766E-09    3.717E-09    3.667E-09    3.618E-09    3.569E-09    3.519E-09    3.470E-09
     3.420E-09    3.370E-09    3.321E-09    3.271E-09    3.222E-09    3.172E-09    3.122E-09    3.073E-09    3.023E-09    2.973E-09
     2.924E-09    2.874E-09    2.825E-09    2.775E-09    2.726E-09    2.676E-09    2.627E-09    2.577E-09    2.528E-09    2.479E-09
     2.430E-09    2.381E-09    2.332E-09    2.283E-09    2.234E-09    2.185E-09    2.137E-09    2.088E-09    2.040E-09    1.991E-09
     1.943E-09    1.895E-09    1.847E-09    1.800E-09    1.752E-09    1.705E-09    1.657E-09    1.610E-09    1.563E-09    1.517E-09
     1.470E-09    1.423E-09    1.377E-09    1.331E-09    1.285E-09    1.240E-09    1.194E-09    1.149E-09    1.104E-09    1.059E-09
     1.015E-09    9.705E-10    9.264E-10    8.826E-10    8.391E-10    7.958E-10    7.527E-10    7.100E-10    6.675E-10    6.252E-10
     5.833E-10    5.417E-10    5.003E-10    4.593E-10    4.185E-10    3.780E-10    3.379E-10    2.980E-10    2.585E-10    2.192E-10
     1.802E-10    1.416E-10    1.032E-10    6.515E-11    2.739E-11   -1.006E-11   -4.720E-11   -8.405E-11   -1.206E-10   -1.568E-10
    -1.927E-10   -2.284E-10   -2.637E-10   -2.987E-10   -3.334E-10   -3.677E-10   -4.018E-10   -4.356E-10   -4.690E-10   -5.022E-10
    -5.350E-10   -5.675E-10   -5.997E-10   -6.315E-10   -6.631E-10   -6.944E-10   -7.253E-10   -7.559E-10   -7.862E-10   -8.162E-10
    -8.458E-10   -8.751E-10   -9.042E-10   -9.328E-10   -9.612E-10   -9.892E-10   -1.017E-09   -1.044E-09   -1.071E-09   -1.098E-09
    -1.125E-09   -1.151E-09   -1.176E-09   -1.202E-09   -1.227E-09   -1.252E-09   -1.276E-09   -1.300E-09   -1.324E-09   -1.348E-09
    -1.371E-09   -1.393E-09   -1.416E-09   -1.438E-09   -1.460E-09   -1.481E-09   -1.502E-09   -1.523E-09   -1.544E-09   -1.564E-09
    -1.583E-09   -1.603E-09   -1.622E-09   -1.641E-09   -1.659E-09   -1.677E-09   -1.695E-09   -1.712E-09   -1.729E-09   -1.746E-09
    -1.762E-09   -1.778E-09   -1.794E-09   -1.809E-09   -1.824E-09   -1.839E-09   -1.853E-09   -1.867E-09   -1.880E-09   -1.893E-09
    -1.906E-09   -1.919E-09   -1.931E-09   -1.943E-09   -1.954E-09   -1.965E-09   -1.976E-09   -1.986E-09   -1.996E-09   -2.006E-09
    -2.016E-09   -2.025E-09   -2.034E-09   -2.042E-09   -2.050E-09   -2.058E-09   -2.066E-09   -2.074E-09   -2.081E-09   -2.088E-09
    -2.094E-09   -2.101E-09   -2.107E-09   -2.113E-09   -2.118E-09   -2.124E-09   -2.129E-09   -2.134E-09   -2.138E-09   -2.143E-09
    -2.147E-09   -2.151E-09   -2.155E-09   -2.159E-09   -2.163E-09   -2.166E-09   -2.169E-09   -2.172E-09   -2.175E-09   -2.178E-09
    -2.180E-09   -2.183E-09   -2.185E-09   -2.187E-09   -2.189E-09   -2.191E-09   -2.193E-09   -2.194E-09   -2.196E-09   -2.197E-09
    -2.199E-09   -2.200E-09   -2.201E-09   -2.202E-09   -2.203E-09   -2.204E-09   -2.205E-09   -2.205E-09   -2.206E-09   -2.207E-09
    -2.207E-09   -2.208E-09   -2.208E-09   -2.209E-09   -2.209E-09   -2.210E-09   -2.210E-09   -2.211E-09   -2.211E-09   -2.212E-09
    -2.212E-09   -2.213E-09   -2.213E-09   -2.214E-09   -2.214E-09   -2.215E-09   -2.215E-09   -2.216E-09   -2.217E-09   -2.217E-09
    -2.218E-09   -2.219E-09   -2.220E-09   -2.221E-09   -2.222E-09   -2.224E-09   -2.225E-09   -2.226E-09   -2.228E-09   -2.229E-09
    -2.231E-09   -2.233E-09   -2.235E-09
 Ala      Conc. = 5.69E-10
   9.03147E-09  9.03461E-09  9.02013E-09  8.99794E-09  8.96658E-09  8.92849E-09  8.87145E-09  8.77272E-09  8.69256E-09  8.63865E-09
   8.52486E-09  8.41620E-09  8.35401E-09  8.27708E-09  8.19853E-09  8.13536E-09  8.07999E-09  8.02897E-09  7.98068E-09  7.93419E-09
   7.88899E-09  7.84473E-09  7.80117E-09  7.75814E-09  7.71552E-09  7.67324E-09  7.63123E-09  7.58945E-09  7.54783E-09  7.50636E-09
   7.46501E-09  7.42377E-09  7.38260E-09  7.34149E-09  7.30044E-09  7.25943E-09  7.21845E-09  7.17750E-09  7.13655E-09  7.09561E-09
   7.05468E-09  7.01372E-09  6.97277E-09  6.93180E-09  6.89079E-09  6.84977E-09  6.80871E-09  6.76763E-09  6.72649E-09  6.68529E-09
   6.64410E-09  6.60282E-09  6.56148E-09  6.52013E-09  6.47869E-09  6.43719E-09  6.39562E-09  6.35400E-09  6.31228E-09  6.27049E-09
   6.22863E-09  6.18669E-09  6.14469E-09  6.10260E-09  6.06041E-09  6.01815E-09  5.97581E-09  5.93337E-09  5.89085E-09  5.84824E-09
   5.80555E-09  5.76279E-09  5.71991E-09  5.67699E-09  5.63397E-09  5.59090E-09  5.54774E-09  5.50454E-09  5.46126E-09  5.41797E-09
   5.37464E-09  5.33131E-09  5.28803E-09  5.24479E-09  5.20164E-09  5.15865E-09  5.11583E-09  5.07330E-09  5.03123E-09  4.98969E-09
   4.94892E-09  4.90919E-09  4.87102E-09  4.83504E-09  4.80232E-09  4.77463E-09  4.75524E-09  4.75090E-09  4.77851E-09  4.89597E-09
   5.19679E-09  5.40883E-09  5.56620E-09  5.88529E-09  6.20424E-09  6.44235E-09  6.59620E-09  6.66124E-09  6.59231E-09  6.32713E-09
   5.87536E-09  5.43489E-09  5.24386E-09  4.80691E-09  4.24789E-09  4.00884E-09  3.86850E-09  3.76612E-09  3.68231E-09  3.60892E-09
   3.54194E-09  3.47918E-09  3.41932E-09  3.36154E-09  3.30529E-09  3.25021E-09  3.19602E-09  3.14254E-09  3.08963E-09  3.03721E-09
   2.98517E-09  2.93348E-09  2.88206E-09  2.83091E-09  2.77999E-09  2.72928E-09  2.67873E-09  2.62838E-09  2.57820E-09  2.52817E-09
   2.47831E-09  2.42860E-09  2.37905E-09  2.32967E-09  2.28042E-09  2.23134E-09  2.18242E-09  2.13367E-09  2.08509E-09  2.03669E-09
   1.98850E-09  1.94051E-09  1.89273E-09  1.84520E-09  1.79794E-09  1.75097E-09  1.70434E-09  1.65812E-09  1.61240E-09  1.56729E-09
   1.52300E-09  1.47988E-09  1.43853E-09  1.40015E-09  1.36769E-09  1.34985E-09  1.38745E-09  1.57870E-09  1.75753E-09  1.87499E-09
   1.94967E-09  2.00432E-09  2.04469E-09  2.06733E-09  2.05443E-09  1.96421E-09  1.73217E-09  1.33379E-09  9.12012E-10  7.66988E-10
   6.87067E-10  6.26271E-10  5.73545E-10  5.25029E-10  4.79048E-10  4.34749E-10  3.91661E-10  3.49503E-10  3.08099E-10  2.67324E-10
   2.27111E-10  1.87392E-10  1.48126E-10  1.09284E-10  7.08498E-11  3.28038E-11 -4.87302E-12 -4.21904E-11 -7.91466E-11 -1.15757E-10
  -1.52029E-10 -1.87967E-10 -2.23557E-10 -2.58820E-10 -2.93761E-10 -3.28362E-10 -3.62643E-10 -3.96594E-10 -4.30226E-10 -4.63529E-10
  -4.96507E-10 -5.29165E-10 -5.61500E-10 -5.93511E-10 -6.25205E-10 -6.56564E-10 -6.87607E-10 -7.18331E-10 -7.48729E-10 -7.78799E-10
  -8.08548E-10 -8.37968E-10 -8.67072E-10 -8.95840E-10 -9.24288E-10 -9.52405E-10 -9.80211E-10 -1.00766E-09 -1.03480E-09 -1.06162E-09
  -1.08810E-09 -1.11425E-09 -1.14009E-09 -1.16558E-09 -1.19074E-09 -1.21557E-09 -1.24007E-09 -1.26424E-09 -1.28808E-09 -1.31158E-09
  -1.33475E-09 -1.35757E-09 -1.38007E-09 -1.40224E-09 -1.42407E-09 -1.44556E-09 -1.46671E-09 -1.48752E-09 -1.50799E-09 -1.52812E-09
  -1.54792E-09 -1.56737E-09 -1.58648E-09 -1.60526E-09 -1.62368E-09 -1.64177E-09 -1.65950E-09 -1.67690E-09 -1.69395E-09 -1.71066E-09
  -1.72701E-09 -1.74303E-09 -1.75870E-09 -1.77400E-09 -1.78897E-09 -1.80359E-09 -1.81786E-09 -1.83178E-09 -1.84535E-09 -1.85854E-09
  -1.87142E-09 -1.88391E-09 -1.89607E-09 -1.90787E-09 -1.91933E-09 -1.93044E-09 -1.94122E-09 -1.95167E-09 -1.96179E-09 -1.97160E-09
  -1.98109E-09 -1.99027E-09 -1.99915E-09 -2.00773E-09 -2.01602E-09 -2.02402E-09 -2.03174E-09 -2.03918E-09 -2.04635E-09 -2.05326E-09
  -2.05991E-09 -2.06630E-09 -2.07244E-09 -2.07834E-09 -2.08399E-09 -2.08942E-09 -2.09462E-09 -2.09959E-09 -2.10435E-09 -2.10889E-09
  -2.11323E-09 -2.11737E-09 -2.12131E-09 -2.12506E-09 -2.12862E-09 -2.13201E-09 -2.13522E-09 -2.13826E-09 -2.14114E-09 -2.14386E-09
  -2.14643E-09 -2.14884E-09 -2.15112E-09 -2.15326E-09 -2.15527E-09 -2.15715E-09 -2.15891E-09 -2.16056E-09 -2.16210E-09 -2.16353E-09
  -2.16486E-09 -2.16610E-09 -2.16725E-09 -2.16832E-09 -2.16930E-09 -2.17022E-09 -2.17107E-09 -2.17186E-09 -2.17259E-09 -2.17327E-09
  -2.17390E-09 -2.17450E-09 -2.17505E-09 -2.17558E-09 -2.17609E-09 -2.17657E-09 -2.17705E-09 -2.17751E-09 -2.17797E-09 -2.17844E-09
  -2.17891E-09 -2.17940E-09 -2.17990E-09 -2.18043E-09 -2.18099E-09 -2.18158E-09 -2.18222E-09 -2.18289E-09 -2.18362E-09 -2.18441E-09
  -2.18526E-09 -2.18617E-09 -2.18716E-09 -2.18822E-09 -2.18937E-09 -2.19060E-09 -2.19193E-09 -2.19336E-09 -2.19489E-09 -2.19654E-09
  -2.19830E-09 -2.20018E-09 -2.20218E-09
 GABA     Conc. = 1.83E-09
   8.83067E-09  8.79154E-09  8.75265E-09  8.71404E-09  8.67571E-09  8.63769E-09  8.60000E-09  8.56265E-09  8.52571E-09  8.48923E-09
   8.45323E-09  8.41782E-09  8.38308E-09  8.34907E-09  8.31601E-09  8.28399E-09  8.25308E-09  8.22367E-09  8.19614E-09  8.17066E-09
   8.14799E-09  8.12894E-09  8.11460E-09  8.10676E-09  8.10807E-09  8.12283E-09  8.15928E-09  8.23385E-09  8.38851E-09  8.73314E-09
   9.00518E-09  9.23385E-09  9.79442E-09  1.03528E-08  1.07048E-08  1.11004E-08  1.14540E-08  1.16327E-08  1.15645E-08  1.12651E-08
   1.08808E-08  1.06237E-08  9.95956E-09  9.05044E-09  8.70024E-09  8.36282E-09  7.79142E-09  7.47431E-09  7.29718E-09  7.17964E-09
   7.09408E-09  7.02796E-09  6.97542E-09  6.93397E-09  6.90221E-09  6.87998E-09  6.86885E-09  6.87202E-09  6.89563E-09  6.95207E-09
   7.06836E-09  7.32248E-09  7.70121E-09  7.96974E-09  8.34001E-09  8.89573E-09  9.29256E-09  9.55026E-09  9.77688E-09  9.88834E-09
   9.79197E-09  9.44517E-09  8.91835E-09  8.43418E-09  7.98693E-09  7.19955E-09  6.61929E-09  6.48169E-09  6.22328E-09  5.99439E-09
   5.98791E-09  5.96819E-09  6.01140E-09  6.26419E-09  6.46101E-09  6.60928E-09  6.88152E-09  7.14909E-09  7.35009E-09  7.47826E-09
   7.49095E-09  7.50237E-09  7.50818E-09  7.20231E-09  6.83442E-09  6.71522E-09  6.38613E-09  5.94266E-09  5.71689E-09  5.49946E-09
   5.25992E-09  5.08112E-09  4.94030E-09  4.82274E-09  4.72041E-09  4.62846E-09  4.54417E-09  4.46578E-09  4.39207E-09  4.32209E-09
   4.25493E-09  4.18980E-09  4.12644E-09  4.06460E-09  4.00414E-09  3.94494E-09  3.88675E-09  3.82931E-09  3.77257E-09  3.71640E-09
   3.66078E-09  3.60567E-09  3.55100E-09  3.49670E-09  3.44276E-09  3.38914E-09  3.33580E-09  3.28271E-09  3.22989E-09  3.17731E-09
   3.12493E-09  3.07278E-09  3.02082E-09  2.96907E-09  2.91751E-09  2.86616E-09  2.81496E-09  2.76396E-09  2.71314E-09  2.66250E-09
   2.61206E-09  2.56182E-09  2.51178E-09  2.46194E-09  2.41229E-09  2.36286E-09  2.31367E-09  2.26473E-09  2.21607E-09  2.16766E-09
   2.11959E-09  2.07186E-09  2.02451E-09  1.97762E-09  1.93124E-09  1.88547E-09  1.84045E-09  1.79637E-09  1.75350E-09  1.71223E-09
   1.67321E-09  1.63752E-09  1.60708E-09  1.58570E-09  1.58248E-09  1.62434E-09  1.83441E-09  2.54470E-09  3.22270E-09  3.70295E-09
   4.04289E-09  4.31674E-09  4.54393E-09  4.71431E-09  4.77237E-09  4.58639E-09  3.94892E-09  2.77214E-09  1.49414E-09  1.10960E-09
   9.43292E-10  8.39524E-10  7.61494E-10  6.96487E-10  6.39002E-10  5.86275E-10  5.36776E-10  4.89597E-10  4.44163E-10  4.00089E-10
   3.57130E-10  3.15090E-10  2.73838E-10  2.33278E-10  1.93342E-10  1.53971E-10  1.15118E-10  7.67469E-11  3.88416E-11  1.37093E-12
  -3.56851E-11 -7.23402E-11 -1.08590E-10 -1.44463E-10 -1.79970E-10 -2.15098E-10 -2.49870E-10 -2.84283E-10 -3.18349E-10 -3.52061E-10
  -3.85424E-10 -4.18447E-10 -4.51128E-10 -4.83468E-10 -5.15474E-10 -5.47132E-10 -5.78459E-10 -6.09455E-10 -6.40114E-10 -6.70435E-10
  -7.00426E-10 -7.30078E-10 -7.59406E-10 -7.88390E-10 -8.17047E-10 -8.45366E-10 -8.73368E-10 -9.01009E-10 -9.28335E-10 -9.55326E-10
