 LCModel (Version 6.3-1R) Copyright: S.W. Provencher.          Ref.: Magn. Reson. Med. 30:672-679 (1993).                
 onepulse 27x26_ftSpec_smooth_lcm
 26 lines in following concentration table = NCONC+1
    Conc.  %SD   /Cr    Metabolite                                         
 3.26E-10 116%   0.000 Ala                                                 
 1.52E-09  51%   0.000 Asp                                                 
    0.000 999%   0.000 Cr                                                  
 3.10E-09  19%   0.000 GABA                                                
 2.31E-09  28%   0.000 Glc                                                 
    0.000 999%   0.000 Gln                                                 
    0.000 999%   0.000 Glu                                                 
    0.000 999%   0.000 Glyc                                                
 9.36E-11 754%   0.000 GPC                                                 
 1.27E-10 341%   0.000 GSH                                                 
 5.11E-10  89%   0.000 Ins                                                 
    0.000 999%   0.000 Lac                                                 
    0.000 999%   0.000 NAAG                                                
 1.25E-09  24%   0.000 NAA                                                 
 7.98E-11 877%   0.000 PCh                                                 
    0.000 999%   0.000 PCr                                                 
    0.000 999%   0.000 PE                                                  
    0.000 999%   0.000 Scyllo                                              
    0.000 999%   0.000 Ser                                                 
    0.000 999%   0.000 Tau                                                 
 1.73E-10  61%   0.000 GPC+PCh                                             
 1.25E-09  24%   0.000 NAA+NAAG                                            
 5.11E-10  89%   0.000 Ins+Glyc                                            
    0.000 999%   0.000 Cr+PCr                                              
    0.000 999%   0.000 Glu+Gln                                             
   6 lines in following misc. output table
  FWHM = 0.078 ppm    S/N =   3                                            
  Data shift = 0.335 ppm                                                   
  Ph:  48 deg      20.4 deg/ppm                                            
  alphaB,S = 1.5E-01,   7.3E+01                                            
   16 spline knots.   Ns = 5(1)                                            
  (11) 4 infls.   (11) 1 extrs.                                            
  363 points on ppm-axis = NY
      4.250000     4.238821     4.227641     4.216462     4.205282     4.194103     4.182923     4.171744     4.160564     4.149385
      4.138206     4.127026     4.115847     4.104667     4.093488     4.082308     4.071129     4.059949     4.048770     4.037591
      4.026411     4.015232     4.004052     3.992873     3.981693     3.970514     3.959334     3.948155     3.936975     3.925796
      3.914617     3.903437     3.892258     3.881078     3.869899     3.858719     3.847540     3.836360     3.825181     3.814002
      3.802822     3.791643     3.780463     3.769284     3.758104     3.746925     3.735745     3.724566     3.713387     3.702207
      3.691028     3.679848     3.668669     3.657489     3.646310     3.635130     3.623951     3.612772     3.601592     3.590413
      3.579233     3.568054     3.556874     3.545695     3.534515     3.523336     3.512156     3.500977     3.489798     3.478618
      3.467439     3.456259     3.445080     3.433900     3.422721     3.411541     3.400362     3.389183     3.378003     3.366824
      3.355644     3.344465     3.333285     3.322106     3.310926     3.299747     3.288568     3.277388     3.266209     3.255029
      3.243850     3.232670     3.221491     3.210311     3.199132     3.187953     3.176773     3.165594     3.154414     3.143235
      3.132055     3.120876     3.109696     3.098517     3.087337     3.076158     3.064979     3.053799     3.042620     3.031440
      3.020261     3.009081     2.997902     2.986722     2.975543     2.964364     2.953184     2.942005     2.930825     2.919646
      2.908466     2.897287     2.886107     2.874928     2.863749     2.852569     2.841390     2.830210     2.819031     2.807851
      2.796672     2.785492     2.774313     2.763134     2.751954     2.740775     2.729595     2.718416     2.707236     2.696057
      2.684877     2.673698     2.662519     2.651339     2.640160     2.628980     2.617801     2.606621     2.595442     2.584262
      2.573083     2.561903     2.550724     2.539545     2.528365     2.517186     2.506006     2.494827     2.483647     2.472468
      2.461288     2.450109     2.438930     2.427750     2.416571     2.405391     2.394212     2.383032     2.371853     2.360673
      2.349494     2.338315     2.327135     2.315956     2.304776     2.293597     2.282417     2.271238     2.260058     2.248879
      2.237700     2.226520     2.215341     2.204161     2.192982     2.181802     2.170623     2.159443     2.148264     2.137084
      2.125905     2.114726     2.103546     2.092367     2.081187     2.070008     2.058828     2.047649     2.036469     2.025290
      2.014111     2.002931     1.991752     1.980572     1.969393     1.958213     1.947034     1.935854     1.924675     1.913496
      1.902316     1.891137     1.879957     1.868778     1.857598     1.846419     1.835239     1.824060     1.812881     1.801701
      1.790522     1.779342     1.768163     1.756983     1.745804     1.734624     1.723445     1.712265     1.701086     1.689907
      1.678727     1.667548     1.656368     1.645189     1.634009     1.622830     1.611650     1.600471     1.589292     1.578112
      1.566933     1.555753     1.544574     1.533394     1.522215     1.511035     1.499856     1.488677     1.477497     1.466318
      1.455138     1.443959     1.432779     1.421600     1.410420     1.399241     1.388062     1.376882     1.365703     1.354523
      1.343344     1.332164     1.320985     1.309805     1.298626     1.287446     1.276267     1.265088     1.253908     1.242729
      1.231549     1.220370     1.209190     1.198011     1.186831     1.175652     1.164473     1.153293     1.142114     1.130934
      1.119755     1.108575     1.097396     1.086216     1.075037     1.063858     1.052678     1.041499     1.030319     1.019140
      1.007960     0.996781     0.985601     0.974422     0.963243     0.952063     0.940884     0.929704     0.918525     0.907345
      0.896166     0.884986     0.873807     0.862628     0.851448     0.840269     0.829089     0.817910     0.806730     0.795551
      0.784371     0.773192     0.762012     0.750833     0.739654     0.728474     0.717295     0.706115     0.694936     0.683756
      0.672577     0.661397     0.650218     0.639039     0.627859     0.616680     0.605500     0.594321     0.583141     0.571962
      0.560782     0.549603     0.538424     0.527244     0.516065     0.504885     0.493706     0.482526     0.471347     0.460167
      0.448988     0.437809     0.426629     0.415450     0.404270     0.393091     0.381911     0.370732     0.359552     0.348373
      0.337193     0.326014     0.314835     0.303655     0.292476     0.281296     0.270117     0.258937     0.247758     0.236578
      0.225399     0.214220     0.203040
 NY phased data points follow
   1.19434E-08  1.72026E-08  1.65169E-08  2.07013E-08  1.76640E-08  1.90646E-08  1.56114E-08  1.73187E-08  1.41072E-08  1.64700E-08
   1.36183E-08  1.58764E-08  1.39011E-08  1.60887E-08  1.39586E-08  1.66818E-08  1.49322E-08  1.70707E-08  1.46474E-08  1.71921E-08
   1.50104E-08  1.67506E-08  1.41235E-08  1.55565E-08  1.29922E-08  1.53375E-08  1.33583E-08  1.68095E-08  1.39523E-08  1.54874E-08
   1.32224E-08  1.45262E-08  1.27460E-08  1.63778E-08  1.56680E-08  1.77379E-08  1.50430E-08  1.66212E-08  1.36553E-08  1.48967E-08
   1.20006E-08  1.34592E-08  1.17238E-08  1.36928E-08  1.07867E-08  1.25186E-08  1.00357E-08  1.22245E-08  8.96849E-09  1.08813E-08
   8.96335E-09  1.06169E-08  8.40132E-09  1.07960E-08  8.85853E-09  1.03967E-08  8.14804E-09  9.51998E-09  8.07938E-09  9.55138E-09
   8.14960E-09  1.01377E-08  8.65297E-09  1.06375E-08  1.03320E-08  1.41278E-08  1.32557E-08  1.43123E-08  1.18486E-08  1.20616E-08
   9.90585E-09  1.06800E-08  8.77106E-09  8.81633E-09  7.75182E-09  9.24746E-09  7.46436E-09  8.69809E-09  7.03019E-09  8.50871E-09
   1.04947E-08  1.50841E-08  1.59940E-08  1.85201E-08  1.56960E-08  1.59438E-08  1.34346E-08  1.42115E-08  1.21678E-08  1.29864E-08
   1.15540E-08  1.28972E-08  1.05496E-08  1.16879E-08  9.87447E-09  1.04039E-08  9.20476E-09  9.84904E-09  8.03335E-09  9.72298E-09
   7.62642E-09  8.67623E-09  7.24470E-09  9.10487E-09  7.53177E-09  8.94812E-09  7.51294E-09  8.24812E-09  7.06692E-09  8.17663E-09
   5.61673E-09  6.93911E-09  4.74715E-09  5.26394E-09  5.01289E-09  6.67915E-09  5.43853E-09  5.97568E-09  5.05966E-09  6.15856E-09
   4.67616E-09  6.36518E-09  4.36624E-09  5.43913E-09  3.93804E-09  4.59900E-09  2.45454E-09  3.89582E-09  2.20916E-09  4.07959E-09
   3.01648E-09  4.17309E-09  3.15688E-09  4.42440E-09  3.11365E-09  4.74290E-09  3.94628E-09  4.47388E-09  3.30737E-09  4.73391E-09
   4.34143E-09  6.44520E-09  6.18849E-09  8.09581E-09  6.60609E-09  7.19499E-09  6.72526E-09  8.76317E-09  7.69441E-09  9.10887E-09
   7.93947E-09  8.68720E-09  7.93634E-09  9.17633E-09  7.79653E-09  8.87252E-09  8.34128E-09  9.85556E-09  8.39170E-09  9.67043E-09
   8.92914E-09  1.03780E-08  9.67680E-09  1.09505E-08  1.01786E-08  1.12206E-08  1.03266E-08  1.17645E-08  1.16958E-08  1.25318E-08
   1.19626E-08  1.61542E-08  1.88866E-08  2.11933E-08  1.98460E-08  1.80843E-08  1.43515E-08  1.35770E-08  1.03225E-08  1.05615E-08
   7.86473E-09  7.69367E-09  5.75224E-09  5.38875E-09  3.64236E-09  3.07254E-09  7.74415E-10  7.58216E-10 -1.69173E-09 -1.54581E-09
  -4.13062E-09 -4.17674E-09 -7.23249E-09 -7.76493E-09 -1.02077E-08 -1.06021E-08 -1.36149E-08 -1.42388E-08 -1.74967E-08 -1.83596E-08
  -2.10425E-08 -2.14877E-08 -2.32851E-08 -2.26807E-08 -2.33455E-08 -2.18527E-08 -2.13979E-08 -1.88986E-08 -1.83372E-08 -1.51696E-08
  -1.48385E-08 -1.15328E-08 -1.06375E-08 -8.14377E-09 -7.72811E-09 -5.88724E-09 -5.84308E-09 -3.81437E-09 -4.21063E-09 -1.86168E-09
  -2.46264E-09 -5.29878E-10 -1.69571E-09 -4.31609E-10 -1.23943E-09 -8.46987E-10 -2.02633E-09 -1.67841E-09 -2.55814E-09 -1.32051E-09
  -2.05677E-09 -6.67286E-10 -1.29989E-09  5.93262E-10 -6.83476E-10 -4.14743E-10 -1.73216E-09 -1.34613E-09 -2.20158E-09 -1.40555E-09
  -1.81567E-09 -4.94161E-10 -1.15662E-09  7.08141E-10 -8.36154E-10  2.20916E-10 -8.42954E-10 -8.50167E-12 -8.09000E-10 -2.27528E-10
  -9.76045E-10  1.56626E-10 -4.30596E-10  1.26045E-09  4.51587E-10  1.42193E-09  1.03900E-09  1.68169E-09  3.60335E-10  1.60092E-09
   4.52530E-10  1.23850E-09  2.57266E-10  1.00573E-09 -1.76654E-10  4.39595E-10  4.14529E-10  8.06429E-10  1.89795E-10  1.48654E-09
  -3.77399E-11  1.28692E-09  4.21703E-10  1.32680E-09  1.00015E-09  1.35036E-09  7.97398E-10  1.32693E-09  2.48016E-10  1.09419E-09
   3.65254E-10  1.20471E-09 -8.89956E-11  4.21361E-10 -2.62209E-10  3.58793E-10  1.46133E-10  2.41643E-10 -2.23261E-10  2.09743E-10
   1.59865E-10  5.90729E-10 -1.69207E-10  7.15156E-10 -2.32420E-10  5.87007E-10 -1.22526E-10  6.68515E-10 -6.90766E-10  8.90426E-10
  -2.83691E-10  3.76875E-10 -3.99203E-10  5.57770E-10  2.71984E-10  7.82699E-10 -4.26391E-10  7.66357E-10  3.08610E-10  8.47010E-11
  -3.04680E-10  9.99410E-10 -1.72435E-10  6.85910E-10  4.91018E-10  6.28907E-10  2.78430E-12  1.10095E-09  1.98031E-10  8.52793E-10
   6.68250E-10  1.26767E-09  5.49033E-10  9.70773E-10  3.25639E-10  1.11612E-09  7.89535E-10  1.00959E-09  6.17536E-10  1.35608E-09
   7.38430E-10  1.56705E-09  9.52446E-10  1.26541E-09  8.12578E-10  1.44822E-09  1.06874E-09  1.71666E-09  7.57872E-10  1.24447E-09
   9.64186E-10  1.56883E-09  1.07678E-09  1.81102E-09  1.54721E-09  1.47641E-09  1.39451E-09  1.84240E-09  1.46372E-09  2.28060E-09
   1.48862E-09  1.91129E-09  1.53611E-09  2.11987E-09  1.36615E-09  2.15440E-09  1.69524E-09  2.21833E-09  1.67836E-09  2.53396E-09
   1.56271E-09  2.60880E-09  1.58208E-09
 NY points of the fit to the data follow
   1.59371E-08  1.64046E-08  1.67826E-08  1.71700E-08  1.73569E-08  1.72673E-08  1.67932E-08  1.60413E-08  1.54072E-08  1.47673E-08
   1.44551E-08  1.44166E-08  1.45457E-08  1.48425E-08  1.52567E-08  1.57001E-08  1.61224E-08  1.64820E-08  1.66268E-08  1.66146E-08
   1.66528E-08  1.64880E-08  1.59288E-08  1.52664E-08  1.45443E-08  1.37688E-08  1.33338E-08  1.35423E-08  1.41045E-08  1.48341E-08
   1.51559E-08  1.51417E-08  1.53033E-08  1.51957E-08  1.47342E-08  1.47786E-08  1.51688E-08  1.53624E-08  1.51727E-08  1.46832E-08
   1.40619E-08  1.34749E-08  1.23764E-08  1.12739E-08  1.08310E-08  1.04220E-08  9.85345E-09  9.60986E-09  9.64986E-09  9.90816E-09
   1.02034E-08  1.03642E-08  1.03508E-08  1.01143E-08  9.73516E-09  9.45671E-09  9.29690E-09  9.37639E-09  9.35978E-09  9.16564E-09
   9.03798E-09  9.26063E-09  9.71570E-09  1.01799E-08  1.10283E-08  1.19512E-08  1.25012E-08  1.28792E-08  1.32226E-08  1.33429E-08
   1.31341E-08  1.24775E-08  1.15343E-08  1.06602E-08  9.76037E-09  8.72115E-09  8.43142E-09  9.27737E-09  1.01860E-08  1.11575E-08
   1.23021E-08  1.34933E-08  1.47361E-08  1.57891E-08  1.61283E-08  1.57314E-08  1.46924E-08  1.29850E-08  1.11692E-08  1.05902E-08
   1.04382E-08  1.03998E-08  1.02528E-08  9.75478E-09  9.31315E-09  9.02731E-09  8.46871E-09  7.94176E-09  7.66711E-09  7.43605E-09
   7.31792E-09  7.26299E-09  7.26760E-09  7.39427E-09  7.55454E-09  7.68371E-09  7.75979E-09  7.77583E-09  7.71308E-09  7.54968E-09
   7.30215E-09  7.06276E-09  6.90263E-09  6.65754E-09  6.42019E-09  6.33050E-09  6.28819E-09  6.26596E-09  6.25441E-09  6.24925E-09
   6.24822E-09  6.24996E-09  6.25349E-09  6.25813E-09  6.26335E-09  6.26875E-09  6.27395E-09  6.27866E-09  6.28264E-09  6.28561E-09
   6.28734E-09  6.28763E-09  6.28629E-09  6.28312E-09  6.27794E-09  6.27056E-09  6.26081E-09  6.24852E-09  6.23354E-09  6.21572E-09
   6.19486E-09  6.17069E-09  6.14279E-09  6.11077E-09  6.07429E-09  6.03296E-09  5.98646E-09  5.93443E-09  5.87655E-09  5.81249E-09
   5.74201E-09  5.66483E-09  5.58077E-09  5.48969E-09  5.39153E-09  5.28636E-09  5.17440E-09  5.05615E-09  4.93248E-09  4.80490E-09
   4.67596E-09  4.55011E-09  4.43554E-09  4.34840E-09  4.32588E-09  4.47550E-09  5.26088E-09  7.67824E-09  1.05978E-08  1.32194E-08
   1.57053E-08  1.82377E-08  2.04342E-08  2.15979E-08  2.11561E-08  1.88433E-08  1.46142E-08  8.91165E-09  3.46161E-09  8.70602E-10
  -2.23085E-10 -9.27088E-10 -1.48050E-09 -1.95845E-09 -2.39151E-09 -2.79410E-09 -3.17356E-09 -3.53375E-09 -3.87659E-09 -4.20299E-09
  -4.51316E-09 -4.80691E-09 -5.08375E-09 -5.34298E-09 -5.58382E-09 -5.80537E-09 -6.00701E-09 -6.18916E-09 -6.35243E-09 -6.49739E-09
  -6.62458E-09 -6.73455E-09 -6.82782E-09 -6.90488E-09 -6.96625E-09 -7.01241E-09 -7.04385E-09 -7.06107E-09 -7.06451E-09 -7.05468E-09
  -7.03204E-09 -6.99704E-09 -6.95018E-09 -6.89191E-09 -6.82268E-09 -6.74299E-09 -6.65327E-09 -6.55399E-09 -6.44561E-09 -6.32859E-09
  -6.20339E-09 -6.07047E-09 -5.93028E-09 -5.78328E-09 -5.62995E-09 -5.47078E-09 -5.30627E-09 -5.13691E-09 -4.96322E-09 -4.78568E-09
  -4.60481E-09 -4.42108E-09 -4.23502E-09 -4.04711E-09 -3.85784E-09 -3.66773E-09 -3.47727E-09 -3.28697E-09 -3.09728E-09 -2.90876E-09
  -2.72188E-09 -2.53713E-09 -2.35503E-09 -2.17607E-09 -2.00072E-09 -1.82951E-09 -1.66293E-09 -1.50146E-09 -1.34563E-09 -1.19593E-09
  -1.05282E-09 -9.16853E-10 -7.88185E-10 -6.66643E-10 -5.52028E-10 -4.44137E-10 -3.42744E-10 -2.47656E-10 -1.58652E-10 -7.55306E-11
   1.91219E-12  7.39024E-11  1.40628E-10  2.02315E-10  2.59156E-10  3.11369E-10  3.59184E-10  4.02761E-10  4.42334E-10  4.78123E-10
   5.10334E-10  5.39154E-10  5.64821E-10  5.87531E-10  6.07472E-10  6.24901E-10  6.39976E-10  6.52933E-10  6.63971E-10  6.73311E-10
   6.81091E-10  6.87416E-10  6.92387E-10  6.96107E-10  6.98672E-10  7.00186E-10  7.00747E-10  7.00457E-10  6.99417E-10  6.97726E-10
   6.95485E-10  6.92795E-10  6.89756E-10  6.86469E-10  6.83033E-10  6.79551E-10  6.76122E-10  6.72846E-10  6.69824E-10  6.67158E-10
   6.64945E-10  6.63290E-10  6.62291E-10  6.62046E-10  6.62661E-10  6.64232E-10  6.66862E-10  6.70644E-10  6.75598E-10  6.81697E-10
   6.88917E-10  6.97231E-10  7.06615E-10  7.17042E-10  7.28486E-10  7.40922E-10  7.54323E-10  7.68665E-10  7.83922E-10  8.00067E-10
   8.17076E-10  8.34921E-10  8.53578E-10  8.73021E-10  8.93225E-10  9.14162E-10  9.35808E-10  9.58137E-10  9.81123E-10  1.00474E-09
   1.02896E-09  1.05377E-09  1.07912E-09  1.10501E-09  1.13140E-09  1.15826E-09  1.18558E-09  1.21334E-09  1.24151E-09  1.27007E-09
   1.29899E-09  1.32827E-09  1.35788E-09  1.38780E-09  1.41799E-09  1.44846E-09  1.47917E-09  1.51010E-09  1.54123E-09  1.57254E-09
   1.60401E-09  1.63562E-09  1.66734E-09  1.69916E-09  1.73105E-09  1.76300E-09  1.79497E-09  1.82696E-09  1.85894E-09  1.89088E-09
   1.92278E-09  1.95459E-09  1.98632E-09
 NY background values follow
     6.332E-09    6.298E-09    6.263E-09    6.229E-09    6.195E-09    6.161E-09    6.127E-09    6.093E-09    6.059E-09    6.025E-09
     5.991E-09    5.957E-09    5.923E-09    5.889E-09    5.855E-09    5.821E-09    5.787E-09    5.753E-09    5.719E-09    5.685E-09
     5.651E-09    5.617E-09    5.584E-09    5.550E-09    5.516E-09    5.482E-09    5.448E-09    5.415E-09    5.381E-09    5.347E-09
     5.313E-09    5.280E-09    5.246E-09    5.213E-09    5.180E-09    5.148E-09    5.116E-09    5.084E-09    5.053E-09    5.023E-09
     4.993E-09    4.963E-09    4.935E-09    4.907E-09    4.881E-09    4.855E-09    4.830E-09    4.806E-09    4.783E-09    4.761E-09
     4.741E-09    4.721E-09    4.703E-09    4.687E-09    4.671E-09    4.658E-09    4.645E-09    4.635E-09    4.625E-09    4.617E-09
     4.611E-09    4.606E-09    4.602E-09    4.599E-09    4.598E-09    4.597E-09    4.597E-09    4.599E-09    4.601E-09    4.604E-09
     4.608E-09    4.613E-09    4.618E-09    4.624E-09    4.630E-09    4.637E-09    4.644E-09    4.652E-09    4.660E-09    4.668E-09
     4.676E-09    4.685E-09    4.693E-09    4.701E-09    4.710E-09    4.718E-09    4.727E-09    4.735E-09    4.743E-09    4.751E-09
     4.760E-09    4.768E-09    4.777E-09    4.786E-09    4.795E-09    4.805E-09    4.814E-09    4.824E-09    4.834E-09    4.845E-09
     4.856E-09    4.868E-09    4.880E-09    4.892E-09    4.905E-09    4.919E-09    4.933E-09    4.948E-09    4.963E-09    4.980E-09
     4.997E-09    5.014E-09    5.033E-09    5.052E-09    5.072E-09    5.092E-09    5.113E-09    5.133E-09    5.154E-09    5.174E-09
     5.194E-09    5.214E-09    5.233E-09    5.251E-09    5.268E-09    5.284E-09    5.299E-09    5.312E-09    5.324E-09    5.334E-09
     5.343E-09    5.349E-09    5.353E-09    5.355E-09    5.354E-09    5.350E-09    5.344E-09    5.335E-09    5.323E-09    5.308E-09
     5.289E-09    5.267E-09    5.240E-09    5.209E-09    5.173E-09    5.131E-09    5.084E-09    5.031E-09    4.972E-09    4.905E-09
     4.831E-09    4.749E-09    4.660E-09    4.561E-09    4.454E-09    4.338E-09    4.212E-09    4.076E-09    3.929E-09    3.771E-09
     3.602E-09    3.422E-09    3.229E-09    3.024E-09    2.806E-09    2.575E-09    2.330E-09    2.071E-09    1.798E-09    1.511E-09
     1.212E-09    9.022E-10    5.826E-10    2.544E-10   -8.114E-11   -4.229E-10   -7.696E-10   -1.120E-09   -1.473E-09   -1.827E-09
    -2.182E-09   -2.535E-09   -2.886E-09   -3.234E-09   -3.577E-09   -3.914E-09   -4.244E-09   -4.566E-09   -4.878E-09   -5.180E-09
    -5.470E-09   -5.746E-09   -6.009E-09   -6.255E-09   -6.485E-09   -6.697E-09   -6.891E-09   -7.066E-09   -7.222E-09   -7.361E-09
    -7.483E-09   -7.588E-09   -7.677E-09   -7.750E-09   -7.808E-09   -7.851E-09   -7.879E-09   -7.893E-09   -7.894E-09   -7.882E-09
    -7.857E-09   -7.820E-09   -7.771E-09   -7.710E-09   -7.639E-09   -7.558E-09   -7.466E-09   -7.365E-09   -7.256E-09   -7.137E-09
    -7.010E-09   -6.876E-09   -6.735E-09   -6.587E-09   -6.432E-09   -6.272E-09   -6.106E-09   -5.936E-09   -5.761E-09   -5.582E-09
    -5.401E-09   -5.216E-09   -5.029E-09   -4.840E-09   -4.650E-09   -4.459E-09   -4.268E-09   -4.077E-09   -3.886E-09   -3.697E-09
    -3.510E-09   -3.324E-09   -3.141E-09   -2.962E-09   -2.786E-09   -2.614E-09   -2.447E-09   -2.285E-09   -2.128E-09   -1.978E-09
    -1.834E-09   -1.698E-09   -1.568E-09   -1.446E-09   -1.331E-09   -1.223E-09   -1.121E-09   -1.025E-09   -9.356E-10   -8.520E-10
    -7.740E-10   -7.015E-10   -6.343E-10   -5.721E-10   -5.148E-10   -4.621E-10   -4.139E-10   -3.698E-10   -3.298E-10   -2.935E-10
    -2.609E-10   -2.316E-10   -2.055E-10   -1.824E-10   -1.620E-10   -1.441E-10   -1.286E-10   -1.153E-10   -1.038E-10   -9.406E-11
    -8.586E-11   -7.913E-11   -7.375E-11   -6.963E-11   -6.666E-11   -6.475E-11   -6.379E-11   -6.369E-11   -6.433E-11   -6.563E-11
    -6.749E-11   -6.979E-11   -7.244E-11   -7.535E-11   -7.840E-11   -8.150E-11   -8.455E-11   -8.745E-11   -9.010E-11   -9.239E-11
    -9.422E-11   -9.551E-11   -9.613E-11   -9.601E-11   -9.502E-11   -9.308E-11   -9.008E-11   -8.593E-11   -8.061E-11   -7.414E-11
    -6.655E-11   -5.787E-11   -4.812E-11   -3.733E-11   -2.552E-11   -1.272E-11    1.049E-12    1.576E-11    3.138E-11    4.789E-11
     6.526E-11    8.347E-11    1.025E-10    1.223E-10    1.429E-10    1.642E-10    1.862E-10    2.089E-10    2.322E-10    2.562E-10
     2.808E-10    3.060E-10    3.317E-10    3.580E-10    3.847E-10    4.120E-10    4.397E-10    4.678E-10    4.963E-10    5.253E-10
     5.546E-10    5.842E-10    6.142E-10    6.445E-10    6.751E-10    7.059E-10    7.370E-10    7.683E-10    7.998E-10    8.315E-10
     8.634E-10    8.954E-10    9.275E-10    9.597E-10    9.920E-10    1.024E-09    1.057E-09    1.089E-09    1.121E-09    1.154E-09
     1.186E-09    1.218E-09    1.250E-09
 Ala      Conc. = 3.26E-10
   6.55893E-09  6.55059E-09  6.53365E-09  6.51130E-09  6.48322E-09  6.44902E-09  6.40145E-09  6.33735E-09  6.28263E-09  6.22979E-09
   6.15353E-09  6.08769E-09  6.03746E-09  5.98086E-09  5.92779E-09  5.88219E-09  5.84046E-09  5.80097E-09  5.76291E-09  5.72580E-09
   5.68938E-09  5.65345E-09  5.61792E-09  5.58267E-09  5.54764E-09  5.51283E-09  5.47816E-09  5.44361E-09  5.40917E-09  5.37483E-09
   5.34065E-09  5.30664E-09  5.27287E-09  5.23938E-09  5.20623E-09  5.17345E-09  5.14113E-09  5.10929E-09  5.07798E-09  5.04727E-09
   5.01722E-09  4.98785E-09  4.95925E-09  4.93146E-09  4.90454E-09  4.87852E-09  4.85349E-09  4.82950E-09  4.80657E-09  4.78479E-09
   4.76421E-09  4.74487E-09  4.72684E-09  4.71017E-09  4.69498E-09  4.68119E-09  4.66891E-09  4.65821E-09  4.64899E-09  4.64120E-09
   4.63479E-09  4.62968E-09  4.62584E-09  4.62318E-09  4.62166E-09  4.62123E-09  4.62182E-09  4.62336E-09  4.62582E-09  4.62912E-09
   4.63320E-09  4.63803E-09  4.64353E-09  4.64965E-09  4.65633E-09  4.66353E-09  4.67118E-09  4.67923E-09  4.68763E-09  4.69635E-09
   4.70529E-09  4.71446E-09  4.72376E-09  4.73321E-09  4.74271E-09  4.75233E-09  4.76212E-09  4.77216E-09  4.78255E-09  4.79340E-09
   4.80488E-09  4.81717E-09  4.83056E-09  4.84544E-09  4.86242E-09  4.88247E-09  4.90740E-09  4.94080E-09  4.99164E-09  5.09066E-09
   5.26989E-09  5.42250E-09  5.57910E-09  5.82229E-09  6.07504E-09  6.27965E-09  6.41822E-09  6.48666E-09  6.46838E-09  6.34319E-09
   6.12910E-09  5.91932E-09  5.78546E-09  5.56371E-09  5.34711E-09  5.27587E-09  5.25021E-09  5.24314E-09  5.24539E-09  5.25286E-09
   5.26339E-09  5.27567E-09  5.28889E-09  5.30245E-09  5.31590E-09  5.32890E-09  5.34113E-09  5.35236E-09  5.36234E-09  5.37087E-09
   5.37775E-09  5.38279E-09  5.38580E-09  5.38662E-09  5.38508E-09  5.38100E-09  5.37423E-09  5.36460E-09  5.35197E-09  5.33615E-09
   5.31695E-09  5.29410E-09  5.26716E-09  5.23575E-09  5.19945E-09  5.15787E-09  5.11061E-09  5.05727E-09  4.99745E-09  4.93076E-09
   4.85681E-09  4.77519E-09  4.68551E-09  4.58739E-09  4.48045E-09  4.36428E-09  4.23852E-09  4.10280E-09  3.95677E-09  3.80010E-09
   3.63248E-09  3.45371E-09  3.26374E-09  3.06277E-09  2.85196E-09  2.63557E-09  2.43532E-09  2.28814E-09  2.12799E-09  1.94105E-09
   1.74117E-09  1.53344E-09  1.29930E-09  1.01347E-09  6.58904E-10  2.30098E-10 -2.71865E-10 -8.24127E-10 -1.34820E-09 -1.74988E-09
  -2.12332E-09 -2.48677E-09 -2.84408E-09 -3.19589E-09 -3.54183E-09 -3.88114E-09 -4.21288E-09 -4.53599E-09 -4.84933E-09 -5.15179E-09
  -5.44221E-09 -5.71943E-09 -5.98225E-09 -6.22946E-09 -6.45991E-09 -6.67239E-09 -6.86605E-09 -7.04113E-09 -7.19809E-09 -7.33739E-09
  -7.45949E-09 -7.56483E-09 -7.65388E-09 -7.72709E-09 -7.78492E-09 -7.82782E-09 -7.85625E-09 -7.87066E-09 -7.87150E-09 -7.85923E-09
  -7.83431E-09 -7.79718E-09 -7.74830E-09 -7.68813E-09 -7.61712E-09 -7.53572E-09 -7.44439E-09 -7.34358E-09 -7.23374E-09 -7.11533E-09
  -6.98880E-09 -6.85459E-09 -6.71318E-09 -6.56501E-09 -6.41056E-09 -6.25031E-09 -6.08475E-09 -5.91438E-09 -5.73971E-09 -5.56124E-09
  -5.37945E-09 -5.19484E-09 -5.00793E-09 -4.81919E-09 -4.62911E-09 -4.43822E-09 -4.24699E-09 -4.05594E-09 -3.86553E-09 -3.67630E-09
  -3.48873E-09 -3.30331E-09 -3.12054E-09 -2.94094E-09 -2.76496E-09 -2.59313E-09 -2.42594E-09 -2.26389E-09 -2.10747E-09 -1.95720E-09
  -1.81352E-09 -1.67700E-09 -1.54779E-09 -1.42571E-09 -1.31057E-09 -1.20216E-09 -1.10026E-09 -1.00467E-09 -9.15172E-10 -8.31561E-10
  -7.53636E-10 -6.81169E-10 -6.13974E-10 -5.51822E-10 -4.94522E-10 -4.41856E-10 -3.93592E-10 -3.49572E-10 -3.09559E-10 -2.73335E-10
  -2.40694E-10 -2.11447E-10 -1.85358E-10 -1.62230E-10 -1.41873E-10 -1.24032E-10 -1.08549E-10 -9.51864E-11 -8.37469E-11 -7.40073E-11
  -6.58306E-11 -5.91117E-11 -5.37486E-11 -4.96400E-11 -4.66886E-11 -4.47903E-11 -4.38473E-11 -4.37567E-11 -4.44184E-11 -4.57337E-11
  -4.76000E-11 -4.99175E-11 -5.25853E-11 -5.55028E-11 -5.85703E-11 -6.16857E-11 -6.47497E-11 -6.76609E-11 -7.03207E-11 -7.26238E-11
  -7.44760E-11 -7.57714E-11 -7.64108E-11 -7.62971E-11 -7.53253E-11 -7.33964E-11 -7.04110E-11 -6.62723E-11 -6.09638E-11 -5.45097E-11
  -4.69354E-11 -3.82668E-11 -2.85295E-11 -1.77494E-11 -5.95200E-12  6.83694E-12  2.05917E-11  3.52867E-11  5.08962E-11  6.73942E-11
   8.47558E-11  1.02954E-10  1.21965E-10  1.41761E-10  1.62318E-10  1.83609E-10  2.05610E-10  2.28293E-10  2.51634E-10  2.75608E-10
   3.00187E-10  3.25346E-10  3.51061E-10  3.77304E-10  4.04051E-10  4.31276E-10  4.58957E-10  4.87073E-10  5.15602E-10  5.44524E-10
   5.73817E-10  6.03460E-10  6.33433E-10  6.63713E-10  6.94279E-10  7.25113E-10  7.56190E-10  7.87490E-10  8.18993E-10  8.50677E-10
   8.82521E-10  9.14503E-10  9.46604E-10  9.78801E-10  1.01107E-09  1.04340E-09  1.07576E-09  1.10813E-09  1.14049E-09  1.17283E-09
   1.20511E-09  1.23732E-09  1.26943E-09
 Asp      Conc. = 1.52E-09
   8.24286E-09  8.01867E-09  7.76478E-09  7.53292E-09  7.26433E-09  6.97822E-09  6.72829E-09  6.47791E-09  6.34092E-09  6.25094E-09
   6.18261E-09  6.12645E-09  6.07814E-09  6.03519E-09  5.99528E-09  5.95642E-09  5.91886E-09  5.88248E-09  5.84709E-09  5.81258E-09
   5.77886E-09  5.74588E-09  5.71364E-09  5.68212E-09  5.65138E-09  5.62150E-09  5.59257E-09  5.56475E-09  5.53825E-09  5.51340E-09
   5.49067E-09  5.47075E-09  5.45466E-09  5.44401E-09  5.44164E-09  5.45340E-09  5.49387E-09  5.56011E-09  5.64469E-09  5.72264E-09
   5.78237E-09  5.83313E-09  5.89049E-09  6.00711E-09  6.12122E-09  6.33836E-09  6.52067E-09  6.64517E-09  6.83078E-09  7.12880E-09
   7.40811E-09  7.54354E-09  7.48976E-09  7.22191E-09  6.78791E-09  6.39457E-09  6.04138E-09  5.94925E-09  5.83472E-09  5.62338E-09
   5.43822E-09  5.36374E-09  5.30024E-09  5.25146E-09  5.23691E-09  5.17561E-09  5.05243E-09  4.96883E-09  4.91718E-09  4.88244E-09
   4.85804E-09  4.84062E-09  4.82820E-09  4.81957E-09  4.81387E-09  4.81051E-09  4.80904E-09  4.80909E-09  4.81042E-09  4.81279E-09
   4.81599E-09  4.81989E-09  4.82431E-09  4.82916E-09  4.83428E-09  4.83967E-09  4.84527E-09  4.85110E-09  4.85716E-09  4.86345E-09
   4.87001E-09  4.87683E-09  4.88393E-09  4.89134E-09  4.89907E-09  4.90714E-09  4.91559E-09  4.92443E-09  4.93369E-09  4.94341E-09
   4.95358E-09  4.96427E-09  4.97548E-09  4.98725E-09  4.99960E-09  5.01257E-09  5.02619E-09  5.04048E-09  5.05548E-09  5.07122E-09
   5.08774E-09  5.10505E-09  5.12316E-09  5.14203E-09  5.16151E-09  5.18141E-09  5.20161E-09  5.22195E-09  5.24227E-09  5.26241E-09
   5.28223E-09  5.30158E-09  5.32030E-09  5.33824E-09  5.35525E-09  5.37118E-09  5.38587E-09  5.39917E-09  5.41094E-09  5.42102E-09
   5.42926E-09  5.43550E-09  5.43961E-09  5.44141E-09  5.44077E-09  5.43753E-09  5.43155E-09  5.42268E-09  5.41078E-09  5.39567E-09
   5.37718E-09  5.35503E-09  5.32881E-09  5.29813E-09  5.26259E-09  5.22181E-09  5.17541E-09  5.12298E-09  5.06415E-09  4.99854E-09
   4.92578E-09  4.84549E-09  4.75732E-09  4.66090E-09  4.55591E-09  4.44202E-09  4.31895E-09  4.18644E-09  4.04430E-09  3.89244E-09
   3.73091E-09  3.56004E-09  3.38071E-09  3.19478E-09  3.00670E-09  2.82836E-09  2.70291E-09  2.84743E-09  3.10143E-09  3.29307E-09
   3.44027E-09  3.59053E-09  3.69800E-09  3.65008E-09  3.34551E-09  2.73602E-09  1.80693E-09  6.00739E-10 -6.61949E-10 -1.44947E-09
  -1.93542E-09 -2.34804E-09 -2.73194E-09 -3.09998E-09 -3.45662E-09 -3.80338E-09 -4.14051E-09 -4.46765E-09 -4.78408E-09 -5.08895E-09
  -5.38129E-09 -5.66006E-09 -5.92415E-09 -6.17241E-09 -6.40373E-09 -6.61695E-09 -6.81123E-09 -6.98684E-09 -7.14426E-09 -7.28396E-09
  -7.40639E-09 -7.51203E-09 -7.60135E-09 -7.67479E-09 -7.73283E-09 -7.77591E-09 -7.80450E-09 -7.81906E-09 -7.82003E-09 -7.80788E-09
  -7.78306E-09 -7.74603E-09 -7.69723E-09 -7.63715E-09 -7.56620E-09 -7.48488E-09 -7.39361E-09 -7.29285E-09 -7.18306E-09 -7.06470E-09
  -6.93821E-09 -6.80405E-09 -6.66268E-09 -6.51454E-09 -6.36012E-09 -6.19990E-09 -6.03437E-09 -5.86404E-09 -5.68940E-09 -5.51094E-09
