 LCModel (Version 6.3-1R) Copyright: S.W. Provencher.          Ref.: Magn. Reson. Med. 30:672-679 (1993).                
 onepulse 27x28_ftSpec_smooth_lcm
 26 lines in following concentration table = NCONC+1
    Conc.  %SD   /Cr    Metabolite                                         
    0.000 999%   0.000 Ala                                                 
    0.000 999%   0.000 Asp                                                 
    0.000 999%   0.000 Cr                                                  
    0.000 999%   0.000 GABA                                                
    0.000 999%   0.000 Glc                                                 
    0.000 999%   0.000 Gln                                                 
    0.000 999%   0.000 Glu                                                 
    0.000 999%   0.000 Glyc                                                
    0.000 999%   0.000 GPC                                                 
    0.000 999%   0.000 GSH                                                 
    0.000 999%   0.000 Ins                                                 
    0.000 999%   0.000 Lac                                                 
    0.000 999%   0.000 NAAG                                                
    0.000 999%   0.000 NAA                                                 
    0.000 999%   0.000 PCh                                                 
    0.000 999%   0.000 PCr                                                 
    0.000 999%   0.000 PE                                                  
    0.000 999%   0.000 Scyllo                                              
    0.000 999%   0.000 Ser                                                 
    0.000 999%   0.000 Tau                                                 
    0.000 999%   0.000 GPC+PCh                                             
    0.000 999%   0.000 NAA+NAAG                                            
    0.000 999%   0.000 Ins+Glyc                                            
    0.000 999%   0.000 Cr+PCr                                              
    0.000 999%   0.000 Glu+Gln                                             
   6 lines in following misc. output table
  FWHM = 0.078 ppm    S/N =   0                                            
  Data shift = 0.168 ppm                                                   
  Ph:-168 deg      32.2 deg/ppm                                            
  alphaB,S = 1.4E+00,   4.3E-01                                            
    9 spline knots.   Ns = 5(1)                                            
   2 inflections.     1 extrema                                            
  363 points on ppm-axis = NY
      4.250000     4.238821     4.227641     4.216462     4.205282     4.194103     4.182923     4.171744     4.160564     4.149385
      4.138206     4.127026     4.115847     4.104667     4.093488     4.082308     4.071129     4.059949     4.048770     4.037591
      4.026411     4.015232     4.004052     3.992873     3.981693     3.970514     3.959334     3.948155     3.936975     3.925796
      3.914617     3.903437     3.892258     3.881078     3.869899     3.858719     3.847540     3.836360     3.825181     3.814002
      3.802822     3.791643     3.780463     3.769284     3.758104     3.746925     3.735745     3.724566     3.713387     3.702207
      3.691028     3.679848     3.668669     3.657489     3.646310     3.635130     3.623951     3.612772     3.601592     3.590413
      3.579233     3.568054     3.556874     3.545695     3.534515     3.523336     3.512156     3.500977     3.489798     3.478618
      3.467439     3.456259     3.445080     3.433900     3.422721     3.411541     3.400362     3.389183     3.378003     3.366824
      3.355644     3.344465     3.333285     3.322106     3.310926     3.299747     3.288568     3.277388     3.266209     3.255029
      3.243850     3.232670     3.221491     3.210311     3.199132     3.187953     3.176773     3.165594     3.154414     3.143235
      3.132055     3.120876     3.109696     3.098517     3.087337     3.076158     3.064979     3.053799     3.042620     3.031440
      3.020261     3.009081     2.997902     2.986722     2.975543     2.964364     2.953184     2.942005     2.930825     2.919646
      2.908466     2.897287     2.886107     2.874928     2.863749     2.852569     2.841390     2.830210     2.819031     2.807851
      2.796672     2.785492     2.774313     2.763134     2.751954     2.740775     2.729595     2.718416     2.707236     2.696057
      2.684877     2.673698     2.662519     2.651339     2.640160     2.628980     2.617801     2.606621     2.595442     2.584262
      2.573083     2.561903     2.550724     2.539545     2.528365     2.517186     2.506006     2.494827     2.483647     2.472468
      2.461288     2.450109     2.438930     2.427750     2.416571     2.405391     2.394212     2.383032     2.371853     2.360673
      2.349494     2.338315     2.327135     2.315956     2.304776     2.293597     2.282417     2.271238     2.260058     2.248879
      2.237700     2.226520     2.215341     2.204161     2.192982     2.181802     2.170623     2.159443     2.148264     2.137084
      2.125905     2.114726     2.103546     2.092367     2.081187     2.070008     2.058828     2.047649     2.036469     2.025290
      2.014111     2.002931     1.991752     1.980572     1.969393     1.958213     1.947034     1.935854     1.924675     1.913496
      1.902316     1.891137     1.879957     1.868778     1.857598     1.846419     1.835239     1.824060     1.812881     1.801701
      1.790522     1.779342     1.768163     1.756983     1.745804     1.734624     1.723445     1.712265     1.701086     1.689907
      1.678727     1.667548     1.656368     1.645189     1.634009     1.622830     1.611650     1.600471     1.589292     1.578112
      1.566933     1.555753     1.544574     1.533394     1.522215     1.511035     1.499856     1.488677     1.477497     1.466318
      1.455138     1.443959     1.432779     1.421600     1.410420     1.399241     1.388062     1.376882     1.365703     1.354523
      1.343344     1.332164     1.320985     1.309805     1.298626     1.287446     1.276267     1.265088     1.253908     1.242729
      1.231549     1.220370     1.209190     1.198011     1.186831     1.175652     1.164473     1.153293     1.142114     1.130934
      1.119755     1.108575     1.097396     1.086216     1.075037     1.063858     1.052678     1.041499     1.030319     1.019140
      1.007960     0.996781     0.985601     0.974422     0.963243     0.952063     0.940884     0.929704     0.918525     0.907345
      0.896166     0.884986     0.873807     0.862628     0.851448     0.840269     0.829089     0.817910     0.806730     0.795551
      0.784371     0.773192     0.762012     0.750833     0.739654     0.728474     0.717295     0.706115     0.694936     0.683756
      0.672577     0.661397     0.650218     0.639039     0.627859     0.616680     0.605500     0.594321     0.583141     0.571962
      0.560782     0.549603     0.538424     0.527244     0.516065     0.504885     0.493706     0.482526     0.471347     0.460167
      0.448988     0.437809     0.426629     0.415450     0.404270     0.393091     0.381911     0.370732     0.359552     0.348373
      0.337193     0.326014     0.314835     0.303655     0.292476     0.281296     0.270117     0.258937     0.247758     0.236578
      0.225399     0.214220     0.203040
 NY phased data points follow
  -1.10087E-08 -7.91519E-09 -1.11201E-08 -8.49151E-09 -1.09454E-08 -8.18535E-09 -1.07469E-08 -7.88624E-09 -1.09525E-08 -8.16196E-09
  -1.09079E-08 -8.27491E-09 -1.15741E-08 -9.80273E-09 -1.30989E-08 -1.15735E-08 -1.52657E-08 -1.26011E-08 -1.42997E-08 -1.04757E-08
  -1.21295E-08 -8.98352E-09 -1.11573E-08 -8.59666E-09 -1.06605E-08 -8.00447E-09 -1.03895E-08 -8.28559E-09 -1.03986E-08 -8.61257E-09
  -1.05672E-08 -8.62547E-09 -1.02352E-08 -7.82082E-09 -9.80219E-09 -7.37213E-09 -9.00889E-09 -6.62382E-09 -8.31064E-09 -6.20035E-09
  -8.40614E-09 -6.84819E-09 -8.78302E-09 -5.98058E-09 -7.88812E-09 -5.64587E-09 -7.65853E-09 -6.28604E-09 -8.78156E-09 -6.81895E-09
  -7.53483E-09 -4.99341E-09 -6.11554E-09 -3.72675E-09 -5.23216E-09 -3.14515E-09 -4.97887E-09 -3.33135E-09 -4.36296E-09 -2.47424E-09
  -4.16304E-09 -2.37361E-09 -3.85407E-09 -1.53497E-09 -3.79501E-09 -1.85722E-09 -3.74015E-09 -2.07145E-09 -3.83797E-09 -1.97886E-09
  -3.52968E-09 -1.73193E-09 -3.40818E-09 -2.18739E-09 -3.93679E-09 -2.70520E-09 -4.33876E-09 -3.01658E-09 -4.87813E-09 -4.44667E-09
  -6.05890E-09 -3.71400E-09 -4.02715E-09 -1.88474E-09 -2.72541E-09 -1.28458E-09 -2.20100E-09 -6.41688E-10 -2.19319E-09 -1.32104E-09
  -2.86857E-09 -1.62224E-09 -3.18616E-09 -2.23052E-09 -4.74764E-09 -5.93165E-09 -7.22639E-09 -5.80158E-09 -5.20984E-09 -2.25616E-09
  -2.68558E-09 -7.19065E-10 -1.68628E-09 -2.67162E-10 -1.39538E-09  1.13352E-10 -6.62142E-10  8.31828E-10 -1.63511E-10  1.31192E-09
   1.87773E-10  1.20020E-09  6.95069E-10  1.48223E-09  2.50347E-10  1.64874E-09  4.74400E-10  9.86337E-10  1.73139E-10  1.20499E-09
   5.46409E-10  1.67430E-09  1.04417E-09  1.89742E-09  1.55964E-09  2.75205E-09  1.68707E-09  2.93062E-09  1.23147E-09  1.76703E-09
   9.55675E-10  2.33213E-09  1.45919E-09  2.31480E-09  1.66823E-09  2.27225E-09  1.73669E-09  2.81784E-09  1.80639E-09  3.19626E-09
   2.47444E-09  2.82807E-09  1.87985E-09  2.64709E-09  1.16040E-09  2.25615E-09  8.66713E-10  1.73038E-09  4.98985E-10  1.16417E-09
  -2.51214E-10  4.85430E-10  3.64207E-11  2.52073E-10 -1.16662E-09 -1.04950E-09 -2.16355E-09 -1.35431E-09 -1.99338E-09 -6.16365E-10
  -1.53965E-09 -1.30821E-09 -2.04667E-09 -8.61999E-10 -1.43672E-09 -1.60925E-10 -7.34905E-10  2.30047E-10 -8.42192E-10  1.67222E-10
  -6.37627E-10 -1.16019E-10 -7.29698E-10  3.91425E-10 -5.05593E-10  7.41167E-11 -3.30413E-10  4.90152E-10  1.96197E-10  1.25109E-09
   9.87461E-10  2.14009E-09  1.00410E-09  1.97250E-09  1.80585E-09  1.70490E-09  2.31609E-10  1.87124E-09  4.12661E-09  7.44870E-09
   9.59323E-09  1.12687E-08  1.19967E-08  1.31835E-08  1.32241E-08  1.46940E-08  1.44787E-08  1.51512E-08  1.51880E-08  1.59745E-08
   1.59214E-08  1.63784E-08  1.61226E-08  1.66125E-08  1.62949E-08  1.70441E-08  1.63363E-08  1.72468E-08  1.61965E-08  1.64490E-08
   1.59180E-08  1.59978E-08  1.48800E-08  1.50446E-08  1.30210E-08  1.19690E-08  9.70361E-09  8.14014E-09  5.22749E-09  3.17827E-09
   5.03630E-10 -1.40598E-09 -3.38881E-09 -4.42460E-09 -5.81350E-09 -5.41138E-09 -5.97557E-09 -4.77997E-09 -4.24203E-09 -2.87916E-09
  -2.25344E-09 -1.55473E-09 -1.43622E-09 -6.82036E-10 -1.22752E-09 -1.33028E-10 -8.10412E-10  8.27609E-11 -2.39354E-10  6.92397E-10
   2.55259E-10  8.84490E-10  2.02989E-10  2.41780E-10 -9.29302E-10 -1.17728E-09 -1.98035E-09 -1.69627E-09 -1.63887E-09  1.94675E-10
   3.13814E-10  1.33240E-09  7.08979E-10  2.34590E-10 -9.58021E-10 -8.45261E-10 -1.70591E-09 -1.39559E-09 -1.23498E-09 -3.68567E-10
  -6.54948E-10 -1.04356E-10 -1.03772E-09 -7.17667E-10 -1.57717E-09 -1.28863E-09 -1.61420E-09 -1.30612E-09 -1.57415E-09 -5.16031E-10
  -7.45145E-10 -9.28024E-11 -2.26932E-10  1.63180E-10 -6.09352E-10 -5.43139E-11 -9.97989E-10 -3.39394E-10 -7.24132E-10 -2.08512E-10
  -7.08317E-10 -4.77777E-11 -1.01273E-10  1.58149E-10  3.20231E-10  9.36171E-10  1.54291E-11  8.88852E-10  1.91053E-10  6.93285E-10
   2.54441E-10  5.41205E-10  5.75528E-10  9.05706E-10  3.48075E-10  9.53434E-10  3.99228E-10  7.40265E-10  8.39286E-11  4.88362E-10
  -5.19500E-10 -1.21070E-10 -3.47850E-10 -2.56506E-10 -7.31471E-10 -1.72601E-10 -5.38928E-10 -5.19034E-10 -7.24015E-10 -6.22029E-10
  -6.95173E-10 -4.73454E-10 -7.06635E-10 -4.56611E-10 -9.93727E-10 -6.87341E-10 -9.79920E-10 -7.42657E-10 -1.17848E-09 -6.48256E-10
  -5.81355E-10 -5.90019E-10 -9.80857E-10 -2.44747E-10 -6.55141E-10 -9.68517E-10 -9.02172E-10 -2.82133E-10 -1.17304E-09 -7.52113E-10
  -7.59866E-10 -8.62961E-10 -1.30877E-09 -8.93271E-10 -1.17855E-09 -1.10881E-09 -1.14838E-09 -8.26344E-10 -1.24983E-09 -1.05693E-09
  -1.60918E-09 -8.75167E-10 -1.46289E-09 -1.21105E-09 -1.51421E-09 -1.29831E-09 -1.57615E-09 -1.12903E-09 -1.49911E-09 -1.47077E-09
  -1.66570E-09 -1.58908E-09 -1.52739E-09 -1.15642E-09 -1.60078E-09 -1.40546E-09 -1.79612E-09 -1.74089E-09 -1.87458E-09 -1.46672E-09
  -1.61440E-09 -1.71394E-09 -1.78650E-09
 NY points of the fit to the data follow
  -1.07446E-08 -1.06458E-08 -1.05469E-08 -1.04480E-08 -1.03490E-08 -1.02499E-08 -1.01508E-08 -1.00516E-08 -9.95239E-09 -9.85311E-09
  -9.75379E-09 -9.65443E-09 -9.55507E-09 -9.45567E-09 -9.35626E-09 -9.25683E-09 -9.15741E-09 -9.05798E-09 -8.95858E-09 -8.85919E-09
  -8.75981E-09 -8.66046E-09 -8.56113E-09 -8.46184E-09 -8.36262E-09 -8.26345E-09 -8.16429E-09 -8.06522E-09 -7.96624E-09 -7.86730E-09
  -7.76847E-09 -7.66969E-09 -7.57100E-09 -7.47245E-09 -7.37396E-09 -7.27558E-09 -7.17733E-09 -7.07920E-09 -6.98119E-09 -6.88333E-09
  -6.78558E-09 -6.68797E-09 -6.59052E-09 -6.49325E-09 -6.39610E-09 -6.29915E-09 -6.20235E-09 -6.10572E-09 -6.00931E-09 -5.91308E-09
  -5.81704E-09 -5.72118E-09 -5.62555E-09 -5.53015E-09 -5.43493E-09 -5.33993E-09 -5.24517E-09 -5.15068E-09 -5.05639E-09 -4.96241E-09
  -4.86864E-09 -4.77514E-09 -4.68190E-09 -4.58893E-09 -4.49623E-09 -4.40382E-09 -4.31168E-09 -4.21984E-09 -4.12828E-09 -4.03702E-09
  -3.94606E-09 -3.85541E-09 -3.76507E-09 -3.67503E-09 -3.58532E-09 -3.49594E-09 -3.40687E-09 -3.31815E-09 -3.22974E-09 -3.14170E-09
  -3.05399E-09 -2.96663E-09 -2.87961E-09 -2.79296E-09 -2.70669E-09 -2.62075E-09 -2.53522E-09 -2.45004E-09 -2.36524E-09 -2.28084E-09
  -2.19681E-09 -2.11319E-09 -2.02997E-09 -1.94715E-09 -1.86473E-09 -1.78272E-09 -1.70113E-09 -1.61996E-09 -1.53920E-09 -1.45890E-09
  -1.37901E-09 -1.29956E-09 -1.22056E-09 -1.14200E-09 -1.06389E-09 -9.86245E-10 -9.09039E-10 -8.32314E-10 -7.56069E-10 -6.80277E-10
  -6.04982E-10 -5.30138E-10 -4.55807E-10 -3.81942E-10 -3.08591E-10 -2.35732E-10 -1.63383E-10 -9.15444E-11 -2.02161E-11  5.05470E-11
   1.20866E-10  1.90629E-10  2.59864E-10  3.28549E-10  3.96682E-10  4.64248E-10  5.31244E-10  5.97653E-10  6.63461E-10  7.28665E-10
   7.93250E-10  8.57203E-10  9.20522E-10  9.83185E-10  1.04519E-09  1.10652E-09  1.16718E-09  1.22714E-09  1.28639E-09  1.34493E-09
   1.40274E-09  1.45982E-09  1.51616E-09  1.57172E-09  1.62653E-09  1.68056E-09  1.73381E-09  1.78624E-09  1.83788E-09  1.88869E-09
   1.93865E-09  1.98779E-09  2.03608E-09  2.08348E-09  2.13003E-09  2.17569E-09  2.22045E-09  2.26430E-09  2.30724E-09  2.34924E-09
   2.39032E-09  2.43044E-09  2.46960E-09  2.50779E-09  2.54499E-09  2.58121E-09  2.61643E-09  2.65062E-09  2.68381E-09  2.71595E-09
   2.74704E-09  2.77708E-09  2.80605E-09  2.83396E-09  2.86077E-09  2.88647E-09  2.91107E-09  2.93455E-09  2.95689E-09  2.97810E-09
   2.99815E-09  3.01705E-09  3.03477E-09  3.05133E-09  3.06674E-09  3.08102E-09  3.09417E-09  3.10621E-09  3.11716E-09  3.12701E-09
   3.13579E-09  3.14351E-09  3.15018E-09  3.15582E-09  3.16043E-09  3.16402E-09  3.16662E-09  3.16823E-09  3.16886E-09  3.16853E-09
   3.16726E-09  3.16504E-09  3.16190E-09  3.15785E-09  3.15289E-09  3.14705E-09  3.14033E-09  3.13275E-09  3.12432E-09  3.11505E-09
   3.10495E-09  3.09404E-09  3.08233E-09  3.06983E-09  3.05656E-09  3.04251E-09  3.02772E-09  3.01219E-09  2.99594E-09  2.97896E-09
   2.96129E-09  2.94293E-09  2.92388E-09  2.90418E-09  2.88382E-09  2.86282E-09  2.84120E-09  2.81896E-09  2.79612E-09  2.77269E-09
   2.74867E-09  2.72410E-09  2.69897E-09  2.67330E-09  2.64710E-09  2.62039E-09  2.59317E-09  2.56546E-09  2.53727E-09  2.50862E-09
   2.47951E-09  2.44996E-09  2.41998E-09  2.38959E-09  2.35878E-09  2.32757E-09  2.29597E-09  2.26399E-09  2.23163E-09  2.19891E-09
   2.16583E-09  2.13240E-09  2.09864E-09  2.06455E-09  2.03013E-09  1.99541E-09  1.96038E-09  1.92505E-09  1.88945E-09  1.85356E-09
   1.81742E-09  1.78101E-09  1.74435E-09  1.70746E-09  1.67033E-09  1.63298E-09  1.59542E-09  1.55766E-09  1.51969E-09  1.48155E-09
   1.44322E-09  1.40473E-09  1.36608E-09  1.32728E-09  1.28833E-09  1.24926E-09  1.21006E-09  1.17074E-09  1.13132E-09  1.09180E-09
   1.05220E-09  1.01251E-09  9.72759E-10  9.32946E-10  8.93082E-10  8.53168E-10  8.13230E-10  7.73264E-10  7.33271E-10  6.93282E-10
   6.53289E-10  6.13316E-10  5.73353E-10  5.33425E-10  4.93529E-10  4.53674E-10  4.13880E-10  3.74155E-10  3.34505E-10  2.94935E-10
   2.55447E-10  2.16054E-10  1.76789E-10  1.37629E-10  9.85811E-11  5.96413E-11  2.08060E-11 -1.79232E-11 -5.65550E-11 -9.50854E-11
  -1.33520E-10 -1.71863E-10 -2.10116E-10 -2.48278E-10 -2.86357E-10 -3.24353E-10 -3.62271E-10 -4.00110E-10 -4.37876E-10 -4.75567E-10
  -5.13191E-10 -5.50748E-10 -5.88240E-10 -6.25669E-10 -6.63038E-10 -7.00355E-10 -7.37619E-10 -7.74830E-10 -8.11989E-10 -8.49109E-10
  -8.86181E-10 -9.23208E-10 -9.60206E-10 -9.97165E-10 -1.03408E-09 -1.07098E-09 -1.10785E-09 -1.14469E-09 -1.18151E-09 -1.21832E-09
  -1.25510E-09 -1.29187E-09 -1.32863E-09 -1.36538E-09 -1.40211E-09 -1.43885E-09 -1.47559E-09 -1.51232E-09 -1.54907E-09 -1.58582E-09
  -1.62257E-09 -1.65934E-09 -1.69612E-09 -1.73292E-09 -1.76974E-09 -1.80659E-09 -1.84345E-09 -1.88034E-09 -1.91727E-09 -1.95422E-09
  -1.99121E-09 -2.02824E-09 -2.06531E-09
 NY background values follow
    -1.074E-08   -1.065E-08   -1.055E-08   -1.045E-08   -1.035E-08   -1.025E-08   -1.015E-08   -1.005E-08   -9.952E-09   -9.853E-09
    -9.754E-09   -9.654E-09   -9.555E-09   -9.456E-09   -9.356E-09   -9.257E-09   -9.157E-09   -9.058E-09   -8.959E-09   -8.859E-09
    -8.760E-09   -8.660E-09   -8.561E-09   -8.462E-09   -8.363E-09   -8.263E-09   -8.164E-09   -8.065E-09   -7.966E-09   -7.867E-09
    -7.768E-09   -7.670E-09   -7.571E-09   -7.472E-09   -7.374E-09   -7.276E-09   -7.177E-09   -7.079E-09   -6.981E-09   -6.883E-09
    -6.786E-09   -6.688E-09   -6.591E-09   -6.493E-09   -6.396E-09   -6.299E-09   -6.202E-09   -6.106E-09   -6.009E-09   -5.913E-09
    -5.817E-09   -5.721E-09   -5.626E-09   -5.530E-09   -5.435E-09   -5.340E-09   -5.245E-09   -5.151E-09   -5.056E-09   -4.962E-09
    -4.869E-09   -4.775E-09   -4.682E-09   -4.589E-09   -4.496E-09   -4.404E-09   -4.312E-09   -4.220E-09   -4.128E-09   -4.037E-09
    -3.946E-09   -3.855E-09   -3.765E-09   -3.675E-09   -3.585E-09   -3.496E-09   -3.407E-09   -3.318E-09   -3.230E-09   -3.142E-09
    -3.054E-09   -2.967E-09   -2.880E-09   -2.793E-09   -2.707E-09   -2.621E-09   -2.535E-09   -2.450E-09   -2.365E-09   -2.281E-09
    -2.197E-09   -2.113E-09   -2.030E-09   -1.947E-09   -1.865E-09   -1.783E-09   -1.701E-09   -1.620E-09   -1.539E-09   -1.459E-09
    -1.379E-09   -1.300E-09   -1.221E-09   -1.142E-09   -1.064E-09   -9.862E-10   -9.090E-10   -8.323E-10   -7.561E-10   -6.803E-10
    -6.050E-10   -5.301E-10   -4.558E-10   -3.819E-10   -3.086E-10   -2.357E-10   -1.634E-10   -9.154E-11   -2.022E-11    5.055E-11
     1.209E-10    1.906E-10    2.599E-10    3.285E-10    3.967E-10    4.642E-10    5.312E-10    5.977E-10    6.635E-10    7.287E-10
     7.933E-10    8.572E-10    9.205E-10    9.832E-10    1.045E-09    1.107E-09    1.167E-09    1.227E-09    1.286E-09    1.345E-09
     1.403E-09    1.460E-09    1.516E-09    1.572E-09    1.627E-09    1.681E-09    1.734E-09    1.786E-09    1.838E-09    1.889E-09
     1.939E-09    1.988E-09    2.036E-09    2.083E-09    2.130E-09    2.176E-09    2.220E-09    2.264E-09    2.307E-09    2.349E-09
     2.390E-09    2.430E-09    2.470E-09    2.508E-09    2.545E-09    2.581E-09    2.616E-09    2.651E-09    2.684E-09    2.716E-09
     2.747E-09    2.777E-09    2.806E-09    2.834E-09    2.861E-09    2.886E-09    2.911E-09    2.935E-09    2.957E-09    2.978E-09
     2.998E-09    3.017E-09    3.035E-09    3.051E-09    3.067E-09    3.081E-09    3.094E-09    3.106E-09    3.117E-09    3.127E-09
     3.136E-09    3.144E-09    3.150E-09    3.156E-09    3.160E-09    3.164E-09    3.167E-09    3.168E-09    3.169E-09    3.169E-09
     3.167E-09    3.165E-09    3.162E-09    3.158E-09    3.153E-09    3.147E-09    3.140E-09    3.133E-09    3.124E-09    3.115E-09
     3.105E-09    3.094E-09    3.082E-09    3.070E-09    3.057E-09    3.043E-09    3.028E-09    3.012E-09    2.996E-09    2.979E-09
     2.961E-09    2.943E-09    2.924E-09    2.904E-09    2.884E-09    2.863E-09    2.841E-09    2.819E-09    2.796E-09    2.773E-09
     2.749E-09    2.724E-09    2.699E-09    2.673E-09    2.647E-09    2.620E-09    2.593E-09    2.565E-09    2.537E-09    2.509E-09
     2.480E-09    2.450E-09    2.420E-09    2.390E-09    2.359E-09    2.328E-09    2.296E-09    2.264E-09    2.232E-09    2.199E-09
     2.166E-09    2.132E-09    2.099E-09    2.065E-09    2.030E-09    1.995E-09    1.960E-09    1.925E-09    1.889E-09    1.854E-09
     1.817E-09    1.781E-09    1.744E-09    1.707E-09    1.670E-09    1.633E-09    1.595E-09    1.558E-09    1.520E-09    1.482E-09
     1.443E-09    1.405E-09    1.366E-09    1.327E-09    1.288E-09    1.249E-09    1.210E-09    1.171E-09    1.131E-09    1.092E-09
     1.052E-09    1.013E-09    9.728E-10    9.329E-10    8.931E-10    8.532E-10    8.132E-10    7.733E-10    7.333E-10    6.933E-10
     6.533E-10    6.133E-10    5.734E-10    5.334E-10    4.935E-10    4.537E-10    4.139E-10    3.742E-10    3.345E-10    2.949E-10
     2.554E-10    2.161E-10    1.768E-10    1.376E-10    9.858E-11    5.964E-11    2.081E-11   -1.792E-11   -5.656E-11   -9.509E-11
    -1.335E-10   -1.719E-10   -2.101E-10   -2.483E-10   -2.864E-10   -3.244E-10   -3.623E-10   -4.001E-10   -4.379E-10   -4.756E-10
    -5.132E-10   -5.507E-10   -5.882E-10   -6.257E-10   -6.630E-10   -7.004E-10   -7.376E-10   -7.748E-10   -8.120E-10   -8.491E-10
    -8.862E-10   -9.232E-10   -9.602E-10   -9.972E-10   -1.034E-09   -1.071E-09   -1.108E-09   -1.145E-09   -1.182E-09   -1.218E-09
    -1.255E-09   -1.292E-09   -1.329E-09   -1.365E-09   -1.402E-09   -1.439E-09   -1.476E-09   -1.512E-09   -1.549E-09   -1.586E-09
    -1.623E-09   -1.659E-09   -1.696E-09   -1.733E-09   -1.770E-09   -1.807E-09   -1.843E-09   -1.880E-09   -1.917E-09   -1.954E-09
    -1.991E-09   -2.028E-09   -2.065E-09
   6 lines in following diagnostic table:
   1 ERROR     MYBASI 10                                                  
   4 ERRORS    AREABA  3                                                  
   1 info      STARTV 13                                                  
   1 warning   STARTV 25                                                  
   1 info      STARTV 20                                                  
   2 warnings  RBASOL  3                                                  
  79 lines in following table of input changes:
ATTH2O=1.0                                                                
FILH2O='/mnt/c/Users/divya/Downloads/Lexar/DataFo                         
   rDivya/meas_MID01415_FID95676_lb_RosetteSpinEc                         
   ho_ek_v1a_lcm/27x28_ftSpec_smooth_lcm_w'                               
DOWS=T                                                                    
DOECC=T                                                                   
CHRATO(8)='MM9/MM1 = 1.40 +- 0.7'                                         
CHRATO(7)='MM8/MM1 = 0.33 +- 0.17'                                        
CHRATO(6)='MM7/MM1 = 0.54 +- 0.27'                                        
CHRATO(5)='MM6/MM1 = 0.63 +- 0.16'                                        
CHRATO(4)='MM5/MM1 = 3.16 +- 0.79'                                        
CHRATO(3)='MM4/MM1 = 1.29 +- 1.03'                                        
CHRATO(2)='MM3/MM1 = 1.05 +- 0.63'                                        
CHRATO(1)='MM2/MM1 = 0.51 +- 0.17'                                        
NRATIO=8                                                                  
NORATO(7)='-CrCH2/totCr'                                                  
NORATO(6)='MM17/MM09*'                                                    
NORATO(5)='MM14/MM09*'                                                    
NORATO(4)='MM12/MM09*'                                                    
NORATO(3)='MM20/MM09*'                                                    
NORATO(2)='Lip20/Lip13*'                                                  
NORATO(1)='Lip09/Lip13*'                                                  
NNORAT=7                                                                  
CHOMIT(14)='-CrCH2'                                                       
CHOMIT(13)='MM17'                                                         
CHOMIT(12)='MM14'                                                         
CHOMIT(11)='MM12'                                                         
CHOMIT(10)='MM20'                                                         
CHOMIT(9)='Lip20'                                                         
CHOMIT(8)='MM09'                                                          
CHOMIT(7)='Lip09'                                                         
CHOMIT(6)='Lip13d'                                                        
CHOMIT(5)='Lip13c'                                                        
CHOMIT(4)='Lip13b'                                                        
CHOMIT(3)='Lip13a'                                                        
CHOMIT(2)='bHG'                                                           
CHOMIT(1)='bHB'                                                           
NOMIT=14                                                                  
NEACH=999                                                                 
DKNTMN=0.3                                                                
WDLINE(1)=0.025                                                           
RFWHM=0.15                                                                
PPMEND=0.2                                                                
PPMST=4.25                                                                
LPS=8                                                                     
DOREFS(1)=T                                                               
FILPRI='/mnt/c/Users/divya/Downloads/Lexar/DataFo                         
   rDivya/meas_MID01415_FID95676_lb_RosetteSpinEc                         
   ho_ek_v1a_lcm/27x28_ftSpec_smooth_lcm_out/27x2                         
   8_ftSpec_smooth_lcm.print'                                             
LCSV=11                                                                   
LCOORD=9                                                                  
LTABLE=7                                                                  
LPRINT=6                                                                  
ECHOT=20                                                                  
NUNFIL=576                                                                
DELTAT=0.00063000                                                         
HZPPPM=123.25                                                             
FILBAS='/mnt/c/Users/divya/Downloads/linux-send/f                         
   ida2/new/3T_SpinEchoRosetteMRSI_TE20.basis'                            
FILCSV='/mnt/c/Users/divya/Downloads/Lexar/DataFo                         
   rDivya/meas_MID01415_FID95676_lb_RosetteSpinEc                         
   ho_ek_v1a_lcm/27x28_ftSpec_smooth_lcm_out/27x2                         
   8_ftSpec_smooth_lcm.csv'                                               
FILCOO='/mnt/c/Users/divya/Downloads/Lexar/DataFo                         
   rDivya/meas_MID01415_FID95676_lb_RosetteSpinEc                         
   ho_ek_v1a_lcm/27x28_ftSpec_smooth_lcm_out/27x2                         
   8_ftSpec_smooth_lcm.coord'                                             
FILTAB='/mnt/c/Users/divya/Downloads/Lexar/DataFo                         
   rDivya/meas_MID01415_FID95676_lb_RosetteSpinEc                         
   ho_ek_v1a_lcm/27x28_ftSpec_smooth_lcm_out/27x2                         
   8_ftSpec_smooth_lcm.table'                                             
FILPS='/mnt/c/Users/divya/Downloads/Lexar/DataFor                         
   Divya/meas_MID01415_FID95676_lb_RosetteSpinEch                         
   o_ek_v1a_lcm/27x28_ftSpec_smooth_lcm_out/27x28                         
   _ftSpec_smooth_lcm.ps'                                                 
FILRAW='/mnt/c/Users/divya/Downloads/Lexar/DataFo                         
   rDivya/meas_MID01415_FID95676_lb_RosetteSpinEc                         
   ho_ek_v1a_lcm/27x28_ftSpec_smooth_lcm'                                 
