 LCModel (Version 6.3-1R) Copyright: S.W. Provencher.          Ref.: Magn. Reson. Med. 30:672-679 (1993).                
 onepulse 27x7_ftSpec_smooth_lcm
 26 lines in following concentration table = NCONC+1
    Conc.  %SD /Cr+PCr  Metabolite                                         
 7.73E-11 186%   0.667 Ala                                                 
 1.76E-10 254%   1.517 Asp                                                 
    0.000 999%   0.000 Cr                                                  
 3.20E-10  97%   2.758 GABA                                                
    0.000 999%   0.000 Glc                                                 
 8.93E-10  44%   7.708 Gln                                                 
    0.000 999%   0.000 Glu                                                 
 2.65E-10 394%   2.286 Glyc                                                
    0.000 999%   0.000 GPC                                                 
 1.78E-10 150%   1.534 GSH                                                 
 5.95E-10 145%   5.138 Ins                                                 
    0.000 999%   0.000 Lac                                                 
 6.67E-11 280%   0.575 NAAG                                                
 3.37E-10  75%   2.912 NAA                                                 
    0.000 999%   0.000 PCh                                                 
 1.16E-10 165%   1.000 PCr                                                 
 7.42E-10  61%   6.407 PE                                                  
    0.000 999%   0.000 Scyllo                                              
 9.49E-10  35%   8.193 Ser                                                 
 4.86E-10  52%   4.198 Tau                                                 
    0.000 999%   0.000 GPC+PCh                                             
 4.04E-10  37%   3.487 NAA+NAAG                                            
 8.60E-10  30%   7.425 Ins+Glyc                                            
 1.16E-10 165%   1.000 Cr+PCr                                              
 8.93E-10  44%   7.708 Glu+Gln                                             
   6 lines in following misc. output table
  FWHM = 0.112 ppm    S/N =   3                                            
  Data shift = 0.391 ppm                                                   
  Ph:  -1 deg     -37.9 deg/ppm                                            
  alphaB,S = 4.5E-01,   7.5E+00                                            
   11 spline knots.   Ns = 5(1)                                            
  ( 7) 4 infls.   ( 7) 3 extrs.                                            
  363 points on ppm-axis = NY
      4.250000     4.238821     4.227641     4.216462     4.205282     4.194103     4.182923     4.171744     4.160564     4.149385
      4.138206     4.127026     4.115847     4.104667     4.093488     4.082308     4.071129     4.059949     4.048770     4.037591
      4.026411     4.015232     4.004052     3.992873     3.981693     3.970514     3.959334     3.948155     3.936975     3.925796
      3.914617     3.903437     3.892258     3.881078     3.869899     3.858719     3.847540     3.836360     3.825181     3.814002
      3.802822     3.791643     3.780463     3.769284     3.758104     3.746925     3.735745     3.724566     3.713387     3.702207
      3.691028     3.679848     3.668669     3.657489     3.646310     3.635130     3.623951     3.612772     3.601592     3.590413
      3.579233     3.568054     3.556874     3.545695     3.534515     3.523336     3.512156     3.500977     3.489798     3.478618
      3.467439     3.456259     3.445080     3.433900     3.422721     3.411541     3.400362     3.389183     3.378003     3.366824
      3.355644     3.344465     3.333285     3.322106     3.310926     3.299747     3.288568     3.277388     3.266209     3.255029
      3.243850     3.232670     3.221491     3.210311     3.199132     3.187953     3.176773     3.165594     3.154414     3.143235
      3.132055     3.120876     3.109696     3.098517     3.087337     3.076158     3.064979     3.053799     3.042620     3.031440
      3.020261     3.009081     2.997902     2.986722     2.975543     2.964364     2.953184     2.942005     2.930825     2.919646
      2.908466     2.897287     2.886107     2.874928     2.863749     2.852569     2.841390     2.830210     2.819031     2.807851
      2.796672     2.785492     2.774313     2.763134     2.751954     2.740775     2.729595     2.718416     2.707236     2.696057
      2.684877     2.673698     2.662519     2.651339     2.640160     2.628980     2.617801     2.606621     2.595442     2.584262
      2.573083     2.561903     2.550724     2.539545     2.528365     2.517186     2.506006     2.494827     2.483647     2.472468
      2.461288     2.450109     2.438930     2.427750     2.416571     2.405391     2.394212     2.383032     2.371853     2.360673
      2.349494     2.338315     2.327135     2.315956     2.304776     2.293597     2.282417     2.271238     2.260058     2.248879
      2.237700     2.226520     2.215341     2.204161     2.192982     2.181802     2.170623     2.159443     2.148264     2.137084
      2.125905     2.114726     2.103546     2.092367     2.081187     2.070008     2.058828     2.047649     2.036469     2.025290
      2.014111     2.002931     1.991752     1.980572     1.969393     1.958213     1.947034     1.935854     1.924675     1.913496
      1.902316     1.891137     1.879957     1.868778     1.857598     1.846419     1.835239     1.824060     1.812881     1.801701
      1.790522     1.779342     1.768163     1.756983     1.745804     1.734624     1.723445     1.712265     1.701086     1.689907
      1.678727     1.667548     1.656368     1.645189     1.634009     1.622830     1.611650     1.600471     1.589292     1.578112
      1.566933     1.555753     1.544574     1.533394     1.522215     1.511035     1.499856     1.488677     1.477497     1.466318
      1.455138     1.443959     1.432779     1.421600     1.410420     1.399241     1.388062     1.376882     1.365703     1.354523
      1.343344     1.332164     1.320985     1.309805     1.298626     1.287446     1.276267     1.265088     1.253908     1.242729
      1.231549     1.220370     1.209190     1.198011     1.186831     1.175652     1.164473     1.153293     1.142114     1.130934
      1.119755     1.108575     1.097396     1.086216     1.075037     1.063858     1.052678     1.041499     1.030319     1.019140
      1.007960     0.996781     0.985601     0.974422     0.963243     0.952063     0.940884     0.929704     0.918525     0.907345
      0.896166     0.884986     0.873807     0.862628     0.851448     0.840269     0.829089     0.817910     0.806730     0.795551
      0.784371     0.773192     0.762012     0.750833     0.739654     0.728474     0.717295     0.706115     0.694936     0.683756
      0.672577     0.661397     0.650218     0.639039     0.627859     0.616680     0.605500     0.594321     0.583141     0.571962
      0.560782     0.549603     0.538424     0.527244     0.516065     0.504885     0.493706     0.482526     0.471347     0.460167
      0.448988     0.437809     0.426629     0.415450     0.404270     0.393091     0.381911     0.370732     0.359552     0.348373
      0.337193     0.326014     0.314835     0.303655     0.292476     0.281296     0.270117     0.258937     0.247758     0.236578
      0.225399     0.214220     0.203040
 NY phased data points follow
   3.32837E-09  1.97657E-09  2.70721E-09  1.70699E-09  2.18169E-09  1.06333E-09  2.40602E-09  1.30423E-09  2.40084E-09  2.17809E-09
   2.66937E-09  2.33254E-09  3.70778E-09  2.36682E-09  3.25581E-09  2.71168E-09  3.48029E-09  2.61050E-09  3.22569E-09  2.42282E-09
   3.33348E-09  2.34296E-09  3.62416E-09  2.51567E-09  3.87056E-09  2.62585E-09  2.97907E-09  1.91236E-09  3.88022E-09  3.84749E-09
   5.17684E-09  4.24769E-09  4.99791E-09  3.83716E-09  4.54842E-09  3.72650E-09  4.50847E-09  3.59742E-09  4.05637E-09  3.29506E-09
   4.19632E-09  3.38370E-09  4.33466E-09  3.10354E-09  3.48385E-09  2.81459E-09  3.49819E-09  2.24940E-09  3.54402E-09  2.43929E-09
   3.18532E-09  2.03255E-09  2.85650E-09  1.47843E-09  2.43922E-09  1.58308E-09  2.64779E-09  1.61374E-09  2.79755E-09  2.23687E-09
   4.28414E-09  3.63344E-09  5.05490E-09  4.13569E-09  4.27703E-09  3.32755E-09  3.81497E-09  3.05595E-09  3.62179E-09  2.40371E-09
   2.74790E-09  1.75665E-09  2.32328E-09  7.88574E-10  1.62313E-09  1.14787E-09  3.80513E-09  4.52790E-09  6.11622E-09  5.23810E-09
   6.20716E-09  5.61757E-09  5.97574E-09  5.20545E-09  6.38050E-09  5.45168E-09  6.07657E-09  5.21121E-09  6.54343E-09  4.91110E-09
   6.14496E-09  5.24133E-09  5.77176E-09  4.73179E-09  5.17854E-09  4.39435E-09  4.61699E-09  4.06341E-09  4.50252E-09  3.92619E-09
   4.35686E-09  3.75642E-09  4.39456E-09  3.98320E-09  4.43681E-09  3.61416E-09  3.88332E-09  3.00847E-09  3.24643E-09  3.03950E-09
   3.41270E-09  2.96266E-09  3.19330E-09  3.01346E-09  3.54751E-09  2.65807E-09  3.69007E-09  2.69021E-09  3.54778E-09  2.83714E-09
   3.38924E-09  2.57561E-09  3.03053E-09  2.42340E-09  2.49402E-09  1.96879E-09  2.98015E-09  2.37780E-09  2.81419E-09  2.06106E-09
   3.31060E-09  2.89669E-09  2.67485E-09  2.09988E-09  2.99825E-09  2.08734E-09  3.62368E-09  3.32005E-09  4.16734E-09  3.16141E-09
   3.98477E-09  3.51826E-09  4.52849E-09  4.23488E-09  4.90482E-09  4.18482E-09  4.88869E-09  4.19419E-09  5.03173E-09  4.48188E-09
   4.79441E-09  4.48589E-09  4.64253E-09  4.31289E-09  4.74815E-09  3.91908E-09  4.61035E-09  3.82891E-09  4.42809E-09  3.97585E-09
   4.27943E-09  3.48674E-09  3.83415E-09  3.86943E-09  3.83193E-09  3.06381E-09  3.31483E-09  4.73012E-09  7.60126E-09  8.98134E-09
   9.82730E-09  9.94492E-09  1.03795E-08  1.00693E-08  1.05422E-08  1.01713E-08  1.00909E-08  9.18231E-09  9.06056E-09  8.00581E-09
   7.44802E-09  6.38769E-09  5.42878E-09  3.34311E-09  2.47310E-09  5.63559E-10 -2.15889E-10 -2.12242E-09 -2.95495E-09 -4.58219E-09
  -4.93664E-09 -6.19929E-09 -6.11814E-09 -6.60537E-09 -5.92542E-09 -5.79748E-09 -5.03457E-09 -4.75504E-09 -3.89625E-09 -3.28605E-09
  -2.44306E-09 -2.41351E-09 -1.73445E-09 -2.00337E-09 -1.23505E-09 -2.19779E-09 -1.27571E-09 -1.61099E-09 -1.21928E-09 -1.87728E-09
  -1.24180E-09 -1.57063E-09 -1.28651E-09 -1.21672E-09 -8.92894E-10 -1.51331E-09 -9.95282E-10 -1.45329E-09 -1.03491E-09 -1.53541E-09
  -1.34575E-09 -1.14022E-09 -7.65101E-10 -1.01389E-09 -1.13717E-09 -1.32706E-09 -8.64791E-10 -1.02924E-09 -1.02324E-09 -1.34270E-09
  -1.32670E-09 -1.88633E-09 -1.47865E-09 -1.49106E-09 -7.92235E-10 -1.74613E-09 -1.42211E-09 -1.41410E-09 -1.16321E-09 -1.64639E-09
  -1.29386E-09 -1.93345E-09 -1.56772E-09 -2.03247E-09 -1.72408E-09 -2.14492E-09 -1.76190E-09 -1.97036E-09 -1.45893E-09 -2.10878E-09
  -1.37936E-09 -2.08716E-09 -1.80556E-09 -1.90681E-09 -1.75124E-09 -1.79054E-09 -1.40328E-09 -1.88707E-09 -1.60842E-09 -1.91730E-09
  -1.78452E-09 -1.88183E-09 -1.86427E-09 -2.23888E-09 -2.15670E-09 -2.56995E-09 -1.94942E-09 -2.12629E-09 -2.08294E-09 -2.28387E-09
  -1.50575E-09 -1.65835E-09 -1.64997E-09 -1.38441E-09 -1.47390E-09 -1.55602E-09 -1.22028E-09 -1.07470E-09 -1.28052E-09 -1.31630E-09
  -1.38769E-09 -1.33264E-09 -1.34666E-09 -1.77367E-09 -1.24620E-09 -1.81471E-09 -1.43530E-09 -1.70267E-09 -1.64558E-09 -1.97671E-09
  -2.25220E-09 -1.77654E-09 -1.60221E-09 -1.97864E-09 -1.48531E-09 -1.89525E-09 -2.10181E-09 -1.93180E-09 -1.83106E-09 -1.70409E-09
  -2.03596E-09 -1.99454E-09 -1.88670E-09 -2.14592E-09 -2.03202E-09 -2.20963E-09 -2.28805E-09 -2.14753E-09 -2.55920E-09 -1.96258E-09
  -2.13779E-09 -2.44520E-09 -2.43525E-09 -2.13918E-09 -1.98193E-09 -2.43736E-09 -2.45550E-09 -2.62757E-09 -2.35369E-09 -2.58057E-09
  -2.07624E-09 -2.27487E-09 -2.49025E-09 -2.34080E-09 -2.62952E-09 -2.59919E-09 -2.05858E-09 -2.66349E-09 -2.07660E-09 -2.59345E-09
  -2.30620E-09 -2.80044E-09 -2.27053E-09 -2.40385E-09 -2.91117E-09 -2.70564E-09 -2.79645E-09 -2.68427E-09 -2.25171E-09 -2.64490E-09
  -2.77484E-09 -2.72593E-09 -2.46743E-09 -2.64361E-09 -2.47498E-09 -2.57667E-09 -2.64773E-09 -2.92980E-09 -2.92173E-09 -2.69118E-09
  -2.62516E-09 -3.25690E-09 -2.71736E-09 -2.83666E-09 -2.72181E-09 -2.98154E-09 -2.77501E-09 -2.68369E-09 -3.01364E-09 -2.72901E-09
  -2.50955E-09 -2.85508E-09 -2.89078E-09
 NY points of the fit to the data follow
   2.65957E-09  3.14286E-09  3.14609E-09  2.51520E-09  2.16238E-09  2.21097E-09  2.24257E-09  1.99552E-09  1.75144E-09  2.12611E-09
   2.28215E-09  2.25615E-09  2.40474E-09  2.39981E-09  2.66648E-09  3.12852E-09  3.11439E-09  3.37504E-09  4.05332E-09  3.92952E-09
   3.05834E-09  2.58467E-09  2.56469E-09  2.73548E-09  2.96081E-09  3.03054E-09  3.31575E-09  3.47743E-09  3.63730E-09  3.91700E-09
   4.26956E-09  4.51373E-09  4.84692E-09  4.66657E-09  4.60027E-09  4.47194E-09  4.29616E-09  3.95596E-09  3.81823E-09  3.79552E-09
   3.67241E-09  3.67993E-09  3.79245E-09  3.37613E-09  3.11901E-09  2.95494E-09  2.84369E-09  2.63852E-09  2.40706E-09  2.26419E-09
   2.20741E-09  2.20877E-09  2.26156E-09  2.29469E-09  2.29711E-09  2.45245E-09  2.49610E-09  2.66658E-09  3.03739E-09  3.37016E-09
   3.56499E-09  3.74682E-09  3.89731E-09  4.03501E-09  4.20656E-09  4.27630E-09  4.11277E-09  4.15090E-09  4.12381E-09  3.66103E-09
   3.42117E-09  3.49430E-09  3.45437E-09  3.27107E-09  3.34851E-09  3.52278E-09  3.54456E-09  4.05522E-09  4.80582E-09  5.38116E-09
   5.79528E-09  6.15237E-09  6.30992E-09  6.31814E-09  6.57774E-09  6.70280E-09  6.64450E-09  6.71621E-09  5.81492E-09  5.08038E-09
   4.73202E-09  4.44905E-09  4.34923E-09  4.29700E-09  4.07322E-09  3.98896E-09  3.97227E-09  3.82350E-09  3.73248E-09  3.69045E-09
   3.66311E-09  3.64383E-09  3.61564E-09  3.62069E-09  3.63758E-09  3.65162E-09  3.66090E-09  3.66478E-09  3.65918E-09  3.66770E-09
   3.66226E-09  3.52927E-09  3.52078E-09  3.54111E-09  3.42484E-09  3.36336E-09  3.32544E-09  3.29720E-09  3.27386E-09  3.25329E-09
   3.23436E-09  3.21640E-09  3.19898E-09  3.18176E-09  3.16451E-09  3.14704E-09  3.12920E-09  3.11087E-09  3.09192E-09  3.07227E-09
   3.05182E-09  3.03051E-09  3.00825E-09  2.98498E-09  2.96065E-09  2.93519E-09  2.90856E-09  2.88071E-09  2.85167E-09  2.82145E-09
   2.79007E-09  2.75756E-09  2.72395E-09  2.68927E-09  2.65355E-09  2.61684E-09  2.57920E-09  2.54066E-09  2.50131E-09  2.46121E-09
   2.42044E-09  2.37913E-09  2.33738E-09  2.29537E-09  2.25330E-09  2.21144E-09  2.17015E-09  2.12992E-09  2.09148E-09  2.05589E-09
   2.02485E-09  2.00117E-09  1.98991E-09  2.00124E-09  2.05875E-09  2.23188E-09  2.82562E-09  5.05740E-09  7.42263E-09  8.88818E-09
   9.59606E-09  9.76438E-09  9.82443E-09  9.92708E-09  1.01412E-08  1.00197E-08  1.03026E-08  9.90810E-09  4.43231E-09  2.20849E-09
   1.54917E-09  1.23620E-09  1.04219E-09  9.01428E-10  7.88689E-10  6.92404E-10  6.06583E-10  5.27825E-10  4.54095E-10  3.84081E-10
   3.16935E-10  2.52057E-10  1.89052E-10  1.27612E-10  6.75320E-11  8.65211E-12 -4.91377E-11 -1.05927E-10 -1.61776E-10 -2.16735E-10
  -2.70834E-10 -3.24097E-10 -3.76541E-10 -4.28172E-10 -4.78997E-10 -5.29022E-10 -5.78238E-10 -6.26643E-10 -6.74230E-10 -7.20988E-10
  -7.66907E-10 -8.11976E-10 -8.56189E-10 -8.99533E-10 -9.41982E-10 -9.83533E-10 -1.02417E-09 -1.06388E-09 -1.10265E-09 -1.14045E-09
  -1.17729E-09 -1.21314E-09 -1.24798E-09 -1.28181E-09 -1.31462E-09 -1.34636E-09 -1.37706E-09 -1.40669E-09 -1.43527E-09 -1.46282E-09
  -1.48937E-09 -1.51496E-09 -1.53961E-09 -1.56335E-09 -1.58622E-09 -1.60823E-09 -1.62943E-09 -1.64983E-09 -1.66947E-09 -1.68837E-09
  -1.70657E-09 -1.72408E-09 -1.74095E-09 -1.75718E-09 -1.77282E-09 -1.78789E-09 -1.80242E-09 -1.81643E-09 -1.82995E-09 -1.84300E-09
  -1.85561E-09 -1.86781E-09 -1.87963E-09 -1.89108E-09 -1.90219E-09 -1.91299E-09 -1.92350E-09 -1.93374E-09 -1.94374E-09 -1.95353E-09
  -1.96311E-09 -1.97253E-09 -1.98179E-09 -1.99093E-09 -1.99996E-09 -2.00890E-09 -2.01777E-09 -2.02660E-09 -2.03540E-09 -2.04420E-09
  -2.05302E-09 -2.06186E-09 -2.07075E-09 -2.07970E-09 -2.08870E-09 -2.09774E-09 -2.10681E-09 -2.11592E-09 -2.12504E-09 -2.13418E-09
  -2.14333E-09 -2.15248E-09 -2.16163E-09 -2.17076E-09 -2.17988E-09 -2.18896E-09 -2.19802E-09 -2.20703E-09 -2.21600E-09 -2.22491E-09
  -2.23376E-09 -2.24254E-09 -2.25125E-09 -2.25988E-09 -2.26842E-09 -2.27686E-09 -2.28520E-09 -2.29343E-09 -2.30154E-09 -2.30954E-09
  -2.31740E-09 -2.32512E-09 -2.33270E-09 -2.34012E-09 -2.34739E-09 -2.35450E-09 -2.36143E-09 -2.36819E-09 -2.37476E-09 -2.38114E-09
  -2.38732E-09 -2.39330E-09 -2.39906E-09 -2.40461E-09 -2.40993E-09 -2.41502E-09 -2.41987E-09 -2.42448E-09 -2.42883E-09 -2.43292E-09
  -2.43675E-09 -2.44030E-09 -2.44356E-09 -2.44653E-09 -2.44919E-09 -2.45154E-09 -2.45358E-09 -2.45528E-09 -2.45666E-09 -2.45769E-09
  -2.45836E-09 -2.45869E-09 -2.45864E-09 -2.45823E-09 -2.45744E-09 -2.45626E-09 -2.45469E-09 -2.45272E-09 -2.45035E-09 -2.44756E-09
  -2.44436E-09 -2.44073E-09 -2.43668E-09 -2.43219E-09 -2.42726E-09 -2.42189E-09 -2.41606E-09 -2.40978E-09 -2.40305E-09 -2.39584E-09
  -2.38816E-09 -2.38002E-09 -2.37139E-09 -2.36228E-09 -2.35269E-09 -2.34261E-09 -2.33203E-09 -2.32096E-09 -2.30939E-09 -2.29732E-09
  -2.28474E-09 -2.27165E-09 -2.25806E-09
 NY background values follow
    -4.266E-10   -4.151E-10   -4.033E-10   -3.910E-10   -3.783E-10   -3.652E-10   -3.517E-10   -3.378E-10   -3.235E-10   -3.089E-10
    -2.938E-10   -2.783E-10   -2.625E-10   -2.463E-10   -2.296E-10   -2.127E-10   -1.953E-10   -1.776E-10   -1.595E-10   -1.410E-10
    -1.222E-10   -1.031E-10   -8.353E-11   -6.366E-11   -4.345E-11   -2.289E-11   -2.000E-12    1.923E-11    4.078E-11    6.266E-11
     8.487E-11    1.074E-10    1.302E-10    1.534E-10    1.768E-10    2.006E-10    2.246E-10    2.490E-10    2.736E-10    2.985E-10
     3.237E-10    3.492E-10    3.749E-10    4.009E-10    4.272E-10    4.537E-10    4.805E-10    5.075E-10    5.347E-10    5.622E-10
     5.899E-10    6.178E-10    6.460E-10    6.743E-10    7.028E-10    7.314E-10    7.603E-10    7.892E-10    8.184E-10    8.476E-10
     8.770E-10    9.066E-10    9.362E-10    9.659E-10    9.957E-10    1.026E-09    1.056E-09    1.086E-09    1.116E-09    1.146E-09
     1.176E-09    1.206E-09    1.236E-09    1.266E-09    1.296E-09    1.326E-09    1.357E-09    1.387E-09    1.416E-09    1.446E-09
     1.476E-09    1.506E-09    1.535E-09    1.565E-09    1.594E-09    1.623E-09    1.652E-09    1.681E-09    1.710E-09    1.738E-09
     1.767E-09    1.795E-09    1.823E-09    1.850E-09    1.878E-09    1.905E-09    1.931E-09    1.958E-09    1.983E-09    2.009E-09
     2.034E-09    2.058E-09    2.082E-09    2.106E-09    2.128E-09    2.150E-09    2.172E-09    2.193E-09    2.213E-09    2.232E-09
     2.250E-09    2.268E-09    2.285E-09    2.301E-09    2.316E-09    2.330E-09    2.343E-09    2.355E-09    2.366E-09    2.376E-09
     2.385E-09    2.392E-09    2.399E-09    2.404E-09    2.408E-09    2.411E-09    2.412E-09    2.412E-09    2.411E-09    2.408E-09
     2.404E-09    2.398E-09    2.391E-09    2.382E-09    2.372E-09    2.360E-09    2.347E-09    2.331E-09    2.315E-09    2.296E-09
     2.276E-09    2.255E-09    2.232E-09    2.207E-09    2.182E-09    2.154E-09    2.126E-09    2.096E-09    2.065E-09    2.032E-09
     1.998E-09    1.963E-09    1.927E-09    1.890E-09    1.852E-09    1.813E-09    1.772E-09    1.731E-09    1.689E-09    1.646E-09
     1.602E-09    1.557E-09    1.512E-09    1.466E-09    1.419E-09    1.371E-09    1.323E-09    1.274E-09    1.225E-09    1.175E-09
     1.125E-09    1.075E-09    1.024E-09    9.726E-10    9.211E-10    8.694E-10    8.174E-10    7.654E-10    7.132E-10    6.609E-10
     6.086E-10    5.563E-10    5.041E-10    4.520E-10    3.999E-10    3.480E-10    2.963E-10    2.447E-10    1.934E-10    1.422E-10
     9.137E-11    4.076E-11   -9.542E-12   -5.952E-11   -1.092E-10   -1.584E-10   -2.073E-10   -2.557E-10   -3.037E-10   -3.513E-10
    -3.983E-10   -4.449E-10   -4.909E-10   -5.363E-10   -5.812E-10   -6.255E-10   -6.691E-10   -7.121E-10   -7.545E-10   -7.961E-10
    -8.371E-10   -8.773E-10   -9.168E-10   -9.555E-10   -9.934E-10   -1.031E-09   -1.067E-09   -1.102E-09   -1.137E-09   -1.171E-09
    -1.203E-09   -1.235E-09   -1.266E-09   -1.296E-09   -1.325E-09   -1.353E-09   -1.380E-09   -1.406E-09   -1.431E-09   -1.455E-09
    -1.478E-09   -1.500E-09   -1.522E-09   -1.542E-09   -1.562E-09   -1.580E-09   -1.598E-09   -1.616E-09   -1.632E-09   -1.648E-09
    -1.663E-09   -1.677E-09   -1.691E-09   -1.705E-09   -1.717E-09   -1.729E-09   -1.741E-09   -1.752E-09   -1.763E-09   -1.773E-09
    -1.783E-09   -1.793E-09   -1.802E-09   -1.810E-09   -1.819E-09   -1.827E-09   -1.835E-09   -1.843E-09   -1.850E-09   -1.857E-09
    -1.865E-09   -1.871E-09   -1.878E-09   -1.885E-09   -1.892E-09   -1.898E-09   -1.905E-09   -1.911E-09   -1.918E-09   -1.924E-09
    -1.931E-09   -1.937E-09   -1.944E-09   -1.951E-09   -1.958E-09   -1.964E-09   -1.971E-09   -1.978E-09   -1.985E-09   -1.992E-09
    -1.999E-09   -2.007E-09   -2.014E-09   -2.021E-09   -2.028E-09   -2.035E-09   -2.042E-09   -2.049E-09   -2.056E-09   -2.063E-09
    -2.070E-09   -2.077E-09   -2.084E-09   -2.091E-09   -2.097E-09   -2.104E-09   -2.110E-09   -2.117E-09   -2.123E-09   -2.129E-09
    -2.136E-09   -2.142E-09   -2.147E-09   -2.153E-09   -2.159E-09   -2.164E-09   -2.169E-09   -2.174E-09   -2.179E-09   -2.184E-09
    -2.189E-09   -2.193E-09   -2.197E-09   -2.201E-09   -2.205E-09   -2.209E-09   -2.212E-09   -2.215E-09   -2.218E-09   -2.220E-09
    -2.223E-09   -2.225E-09   -2.227E-09   -2.228E-09   -2.229E-09   -2.230E-09   -2.231E-09   -2.231E-09   -2.231E-09   -2.231E-09
    -2.230E-09   -2.229E-09   -2.228E-09   -2.226E-09   -2.224E-09   -2.222E-09   -2.219E-09   -2.215E-09   -2.212E-09   -2.208E-09
    -2.203E-09   -2.198E-09   -2.193E-09   -2.187E-09   -2.181E-09   -2.175E-09   -2.168E-09   -2.160E-09   -2.152E-09   -2.144E-09
    -2.135E-09   -2.126E-09   -2.116E-09   -2.106E-09   -2.095E-09   -2.084E-09   -2.072E-09   -2.060E-09   -2.048E-09   -2.034E-09
    -2.021E-09   -2.007E-09   -1.992E-09
 Ala      Conc. = 7.73E-11
  -4.42021E-10 -4.20888E-10 -4.01970E-10 -3.80357E-10 -3.58754E-10 -3.47044E-10 -3.20416E-10 -2.90848E-10 -2.96203E-10 -2.77149E-10
  -2.43593E-10 -2.44497E-10 -2.34954E-10 -2.15272E-10 -2.03903E-10 -1.91558E-10 -1.77855E-10 -1.63057E-10 -1.47370E-10 -1.30932E-10
  -1.13841E-10 -9.61645E-11 -7.79501E-11 -5.92404E-11 -4.00646E-11 -2.04446E-11 -4.01784E-13  2.00472E-11  4.08851E-11  6.21051E-11
   8.36929E-11  1.05637E-10  1.27932E-10  1.50567E-10  1.73534E-10  1.96826E-10  2.20436E-10  2.44360E-10  2.68587E-10  2.93112E-10
   3.17936E-10  3.43038E-10  3.68423E-10  3.94087E-10  4.20018E-10  4.46213E-10  4.72654E-10  4.99355E-10  5.26296E-10  5.53469E-10
   5.80863E-10  6.08470E-10  6.36280E-10  6.64283E-10  6.92471E-10  7.20832E-10  7.49357E-10  7.78036E-10  8.06859E-10  8.35815E-10
   8.64895E-10  8.94087E-10  9.23381E-10  9.52767E-10  9.82233E-10  1.01177E-09  1.04136E-09  1.07100E-09  1.10068E-09  1.13038E-09
   1.16009E-09  1.18981E-09  1.21951E-09  1.24919E-09  1.27883E-09  1.30842E-09  1.33794E-09  1.36739E-09  1.39676E-09  1.42601E-09
   1.45515E-09  1.48416E-09  1.51301E-09  1.54170E-09  1.57021E-09  1.59852E-09  1.62661E-09  1.65446E-09  1.68205E-09  1.70937E-09
   1.73638E-09  1.76306E-09  1.78939E-09  1.81533E-09  1.84085E-09  1.86598E-09  1.89083E-09  1.91580E-09  1.94240E-09  1.97810E-09
   2.05124E-09  2.11721E-09  2.16171E-09  2.23281E-09  2.30865E-09  2.37568E-09  2.43330E-09  2.48153E-09  2.51702E-09  2.56379E-09
   2.59398E-09  2.49448E-09  2.51754E-09  2.56771E-09  2.47974E-09  2.44511E-09  2.43273E-09  2.42883E-09  2.42875E-09  2.43045E-09
   2.43288E-09  2.43542E-09  2.43769E-09  2.43942E-09  2.44042E-09  2.44056E-09  2.43971E-09  2.43778E-09  2.43469E-09  2.43038E-09
   2.42478E-09  2.41784E-09  2.40951E-09  2.39973E-09  2.38848E-09  2.37569E-09  2.36135E-09  2.34541E-09  2.32791E-09  2.30887E-09
   2.28831E-09  2.26627E-09  2.24277E-09  2.21783E-09  2.19150E-09  2.16380E-09  2.13476E-09  2.10442E-09  2.07281E-09  2.03996E-09
   2.00592E-09  1.97071E-09  1.93437E-09  1.89693E-09  1.85845E-09  1.81895E-09  1.77848E-09  1.73709E-09  1.69482E-09  1.65171E-09
   1.60786E-09  1.56332E-09  1.51821E-09  1.47276E-09  1.42740E-09  1.38348E-09  1.34751E-09  1.33682E-09  1.32250E-09  1.29289E-09
   1.25233E-09  1.20412E-09  1.15500E-09  1.10654E-09  1.05900E-09  1.00623E-09  9.60437E-10  8.95208E-10  7.55181E-10  6.81007E-10
   6.21465E-10  5.65737E-10  5.11509E-10  4.58054E-10  4.05086E-10  3.52476E-10  3.00177E-10  2.48153E-10  1.96413E-10  1.44951E-10
   9.37888E-11  4.29277E-11 -7.59752E-12 -5.77829E-11 -1.07602E-10 -1.57036E-10 -2.06060E-10 -2.54657E-10 -3.02801E-10 -3.50475E-10
  -3.97653E-10 -4.44313E-10 -4.90435E-10 -5.35995E-10 -5.80971E-10 -6.25348E-10 -6.69098E-10 -7.12202E-10 -7.54639E-10 -7.96385E-10
  -8.37421E-10 -8.77726E-10 -9.17284E-10 -9.56077E-10 -9.94072E-10 -1.03126E-09 -1.06762E-09 -1.10313E-09 -1.13778E-09 -1.17153E-09
  -1.20439E-09 -1.23632E-09 -1.26732E-09 -1.29736E-09 -1.32643E-09 -1.35450E-09 -1.38158E-09 -1.40764E-09 -1.43269E-09 -1.45676E-09
  -1.47989E-09 -1.50209E-09 -1.52340E-09 -1.54385E-09 -1.56346E-09 -1.58226E-09 -1.60028E-09 -1.61755E-09 -1.63408E-09 -1.64992E-09
  -1.66509E-09 -1.67960E-09 -1.69350E-09 -1.70681E-09 -1.71956E-09 -1.73176E-09 -1.74345E-09 -1.75465E-09 -1.76539E-09 -1.77570E-09
  -1.78559E-09 -1.79510E-09 -1.80425E-09 -1.81306E-09 -1.82157E-09 -1.82978E-09 -1.83773E-09 -1.84544E-09 -1.85293E-09 -1.86023E-09
  -1.86735E-09 -1.87433E-09 -1.88117E-09 -1.88792E-09 -1.89457E-09 -1.90117E-09 -1.90771E-09 -1.91424E-09 -1.92076E-09 -1.92729E-09
  -1.93386E-09 -1.94048E-09 -1.94717E-09 -1.95394E-09 -1.96077E-09 -1.96766E-09 -1.97461E-09 -1.98161E-09 -1.98865E-09 -1.99572E-09
  -2.00282E-09 -2.00993E-09 -2.01706E-09 -2.02420E-09 -2.03133E-09 -2.03845E-09 -2.04555E-09 -2.05264E-09 -2.05969E-09 -2.06670E-09
  -2.07367E-09 -2.08059E-09 -2.08744E-09 -2.09423E-09 -2.10095E-09 -2.10759E-09 -2.11414E-09 -2.12060E-09 -2.12695E-09 -2.13319E-09
  -2.13932E-09 -2.14533E-09 -2.15120E-09 -2.15694E-09 -2.16254E-09 -2.16799E-09 -2.17327E-09 -2.17840E-09 -2.18335E-09 -2.18812E-09
  -2.19271E-09 -2.19710E-09 -2.20130E-09 -2.20530E-09 -2.20908E-09 -2.21263E-09 -2.21597E-09 -2.21907E-09 -2.22193E-09 -2.22455E-09
  -2.22691E-09 -2.22900E-09 -2.23082E-09 -2.23236E-09 -2.23360E-09 -2.23455E-09 -2.23519E-09 -2.23551E-09 -2.23551E-09 -2.23518E-09
  -2.23451E-09 -2.23349E-09 -2.23212E-09 -2.23039E-09 -2.22829E-09 -2.22582E-09 -2.22297E-09 -2.21973E-09 -2.21609E-09 -2.21205E-09
  -2.20761E-09 -2.20276E-09 -2.19748E-09 -2.19178E-09 -2.18566E-09 -2.17909E-09 -2.17209E-09 -2.16464E-09 -2.15675E-09 -2.14839E-09
  -2.13958E-09 -2.13030E-09 -2.12056E-09 -2.11034E-09 -2.09965E-09 -2.08848E-09 -2.07682E-09 -2.06468E-09 -2.05205E-09 -2.03893E-09
  -2.02531E-09 -2.01119E-09 -1.99657E-09
 Asp      Conc. = 1.76E-10
  -3.11972E-10 -2.82287E-10 -2.77332E-10 -2.68791E-10 -2.49390E-10 -2.54761E-10 -2.34769E-10 -2.49941E-10 -2.56285E-10 -2.56284E-10
  -2.52363E-10 -2.45823E-10 -2.37519E-10 -2.27563E-10 -2.16071E-10 -2.03676E-10 -1.90481E-10 -1.76571E-10 -1.62020E-10 -1.46891E-10
  -1.31236E-10 -1.15098E-10 -9.85130E-11 -8.15197E-11 -6.41485E-11 -4.64265E-11 -2.83832E-11 -1.00462E-11  8.55487E-12  2.73995E-11
   4.64607E-11  6.57186E-11  8.51757E-11  1.04871E-10  1.24995E-10  1.46346E-10  1.73210E-10  2.03368E-10  2.38667E-10  2.71880E-10
   2.98183E-10  3.19078E-10  3.39046E-10  3.75275E-10  4.20769E-10  4.98338E-10  5.75186E-10  6.18117E-10  6.65802E-10  7.00975E-10
   7.54985E-10  8.17452E-10  8.93841E-10  9.57609E-10  9.76339E-10  1.01775E-09  9.62523E-10  9.74503E-10  1.02946E-09  1.04036E-09
   1.03953E-09  1.05975E-09  1.07541E-09  1.08354E-09  1.11046E-09  1.15540E-09  1.17037E-09  1.18749E-09  1.20774E-09  1.23002E-09
   1.25369E-09  1.27837E-09  1.30380E-09  1.32981E-09  1.35628E-09  1.38310E-09  1.41021E-09  1.43754E-09  1.46505E-09  1.49269E-09
   1.52042E-09  1.54820E-09  1.57602E-09  1.60384E-09  1.63164E-09  1.65940E-09  1.68709E-09  1.71470E-09  1.74220E-09  1.76958E-09
   1.79683E-09  1.82392E-09  1.85083E-09  1.87752E-09  1.90397E-09  1.93014E-09  1.95600E-09  1.98152E-09  2.00665E-09  2.03137E-09
   2.05565E-09  2.07946E-09  2.10275E-09  2.12550E-09  2.14767E-09  2.16924E-09  2.19016E-09  2.21041E-09  2.22995E-09  2.24875E-09
   2.26677E-09  2.28399E-09  2.30036E-09  2.31586E-09  2.33044E-09  2.34409E-09  2.35676E-09  2.36843E-09  2.37905E-09  2.38860E-09
   2.39704E-09  2.40433E-09  2.41046E-09  2.41537E-09  2.41904E-09  2.42144E-09  2.42253E-09  2.42229E-09  2.42067E-09  2.41765E-09
   2.41318E-09  2.40725E-09  2.39982E-09  2.39086E-09  2.38033E-09  2.36820E-09  2.35445E-09  2.33905E-09  2.32204E-09  2.30345E-09
   2.28331E-09  2.26164E-09  2.23849E-09  2.21387E-09  2.18784E-09  2.16041E-09  2.13163E-09  2.10153E-09  2.07015E-09  2.03752E-09
   2.00368E-09  1.96867E-09  1.93253E-09  1.89529E-09  1.85700E-09  1.81771E-09  1.77747E-09  1.73632E-09  1.69433E-09  1.65157E-09
   1.60814E-09  1.56417E-09  1.51989E-09  1.47571E-09  1.43260E-09  1.39351E-09  1.37271E-09  1.41049E-09  1.44127E-09  1.43787E-09
   1.41001E-09  1.36508E-09  1.31842E-09  1.27357E-09  1.23139E-09  1.17731E-09  1.13950E-09  1.05990E-09  8.07222E-10  7.04218E-10
   6.35406E-10  5.75390E-10  5.18749E-10  4.63768E-10  4.09755E-10  3.56392E-10  3.03525E-10  2.51061E-10  1.98968E-10  1.47219E-10
   9.58184E-11  4.47563E-11 -5.94084E-12 -5.62750E-11 -1.06224E-10 -1.55774E-10 -2.04900E-10 -2.53589E-10 -3.01817E-10 -3.49567E-10
  -3.96814E-10 -4.43539E-10 -4.89722E-10 -5.35337E-10 -5.80366E-10 -6.24792E-10 -6.68589E-10 -7.11738E-10 -7.54217E-10 -7.96004E-10
  -8.37078E-10 -8.77421E-10 -9.17015E-10 -9.55843E-10 -9.93871E-10 -1.03109E-09 -1.06748E-09 -1.10302E-09 -1.13770E-09 -1.17148E-09
  -1.20437E-09 -1.23633E-09 -1.26735E-09 -1.29742E-09 -1.32652E-09 -1.35462E-09 -1.38172E-09 -1.40781E-09 -1.43288E-09 -1.45698E-09
  -1.48013E-09 -1.50236E-09 -1.52370E-09 -1.54417E-09 -1.56380E-09 -1.58262E-09 -1.60067E-09 -1.61795E-09 -1.63451E-09 -1.65037E-09
