 LCModel (Version 6.3-1R) Copyright: S.W. Provencher.          Ref.: Magn. Reson. Med. 30:672-679 (1993).                
 onepulse 27x8_ftSpec_smooth_lcm
 26 lines in following concentration table = NCONC+1
    Conc.  %SD /Cr+PCr  Metabolite                                         
    0.000 999%   0.000 Ala                                                 
 9.34E-11 456%   0.654 Asp                                                 
    0.000 999%   0.000 Cr                                                  
    0.000 999%   0.000 GABA                                                
    0.000 999%   0.000 Glc                                                 
 1.30E-09  32%   9.078 Gln                                                 
    0.000 999%   0.000 Glu                                                 
    0.000 999%   0.000 Glyc                                                
    0.000 999%   0.000 GPC                                                 
 3.04E-10  92%   2.130 GSH                                                 
 1.12E-09  23%   7.871 Ins                                                 
    0.000 999%   0.000 Lac                                                 
 2.50E-10  86%   1.749 NAAG                                                
 1.26E-10 230%   0.884 NAA                                                 
    0.000 999%   0.000 PCh                                                 
 1.43E-10 120%   1.000 PCr                                                 
 1.05E-09  48%   7.383 PE                                                  
 7.63E-11 234%   0.534 Scyllo                                              
 1.28E-09  32%   8.971 Ser                                                 
 3.18E-10 189%   2.228 Tau                                                 
    0.000 999%   0.000 GPC+PCh                                             
 3.76E-10  46%   2.633 NAA+NAAG                                            
 1.12E-09  23%   7.871 Ins+Glyc                                            
 1.43E-10 120%   1.000 Cr+PCr                                              
 1.30E-09  32%   9.078 Glu+Gln                                             
   6 lines in following misc. output table
  FWHM = 0.112 ppm    S/N =   3                                            
  Data shift = 0.391 ppm                                                   
  Ph: -29 deg     -46.5 deg/ppm                                            
  alphaB,S = 4.2E-01,   1.2E+01                                            
   11 spline knots.   Ns = 5(1)                                            
  ( 8) 4 infls.   ( 7) 3 extrs.                                            
  363 points on ppm-axis = NY
      4.250000     4.238821     4.227641     4.216462     4.205282     4.194103     4.182923     4.171744     4.160564     4.149385
      4.138206     4.127026     4.115847     4.104667     4.093488     4.082308     4.071129     4.059949     4.048770     4.037591
      4.026411     4.015232     4.004052     3.992873     3.981693     3.970514     3.959334     3.948155     3.936975     3.925796
      3.914617     3.903437     3.892258     3.881078     3.869899     3.858719     3.847540     3.836360     3.825181     3.814002
      3.802822     3.791643     3.780463     3.769284     3.758104     3.746925     3.735745     3.724566     3.713387     3.702207
      3.691028     3.679848     3.668669     3.657489     3.646310     3.635130     3.623951     3.612772     3.601592     3.590413
      3.579233     3.568054     3.556874     3.545695     3.534515     3.523336     3.512156     3.500977     3.489798     3.478618
      3.467439     3.456259     3.445080     3.433900     3.422721     3.411541     3.400362     3.389183     3.378003     3.366824
      3.355644     3.344465     3.333285     3.322106     3.310926     3.299747     3.288568     3.277388     3.266209     3.255029
      3.243850     3.232670     3.221491     3.210311     3.199132     3.187953     3.176773     3.165594     3.154414     3.143235
      3.132055     3.120876     3.109696     3.098517     3.087337     3.076158     3.064979     3.053799     3.042620     3.031440
      3.020261     3.009081     2.997902     2.986722     2.975543     2.964364     2.953184     2.942005     2.930825     2.919646
      2.908466     2.897287     2.886107     2.874928     2.863749     2.852569     2.841390     2.830210     2.819031     2.807851
      2.796672     2.785492     2.774313     2.763134     2.751954     2.740775     2.729595     2.718416     2.707236     2.696057
      2.684877     2.673698     2.662519     2.651339     2.640160     2.628980     2.617801     2.606621     2.595442     2.584262
      2.573083     2.561903     2.550724     2.539545     2.528365     2.517186     2.506006     2.494827     2.483647     2.472468
      2.461288     2.450109     2.438930     2.427750     2.416571     2.405391     2.394212     2.383032     2.371853     2.360673
      2.349494     2.338315     2.327135     2.315956     2.304776     2.293597     2.282417     2.271238     2.260058     2.248879
      2.237700     2.226520     2.215341     2.204161     2.192982     2.181802     2.170623     2.159443     2.148264     2.137084
      2.125905     2.114726     2.103546     2.092367     2.081187     2.070008     2.058828     2.047649     2.036469     2.025290
      2.014111     2.002931     1.991752     1.980572     1.969393     1.958213     1.947034     1.935854     1.924675     1.913496
      1.902316     1.891137     1.879957     1.868778     1.857598     1.846419     1.835239     1.824060     1.812881     1.801701
      1.790522     1.779342     1.768163     1.756983     1.745804     1.734624     1.723445     1.712265     1.701086     1.689907
      1.678727     1.667548     1.656368     1.645189     1.634009     1.622830     1.611650     1.600471     1.589292     1.578112
      1.566933     1.555753     1.544574     1.533394     1.522215     1.511035     1.499856     1.488677     1.477497     1.466318
      1.455138     1.443959     1.432779     1.421600     1.410420     1.399241     1.388062     1.376882     1.365703     1.354523
      1.343344     1.332164     1.320985     1.309805     1.298626     1.287446     1.276267     1.265088     1.253908     1.242729
      1.231549     1.220370     1.209190     1.198011     1.186831     1.175652     1.164473     1.153293     1.142114     1.130934
      1.119755     1.108575     1.097396     1.086216     1.075037     1.063858     1.052678     1.041499     1.030319     1.019140
      1.007960     0.996781     0.985601     0.974422     0.963243     0.952063     0.940884     0.929704     0.918525     0.907345
      0.896166     0.884986     0.873807     0.862628     0.851448     0.840269     0.829089     0.817910     0.806730     0.795551
      0.784371     0.773192     0.762012     0.750833     0.739654     0.728474     0.717295     0.706115     0.694936     0.683756
      0.672577     0.661397     0.650218     0.639039     0.627859     0.616680     0.605500     0.594321     0.583141     0.571962
      0.560782     0.549603     0.538424     0.527244     0.516065     0.504885     0.493706     0.482526     0.471347     0.460167
      0.448988     0.437809     0.426629     0.415450     0.404270     0.393091     0.381911     0.370732     0.359552     0.348373
      0.337193     0.326014     0.314835     0.303655     0.292476     0.281296     0.270117     0.258937     0.247758     0.236578
      0.225399     0.214220     0.203040
 NY phased data points follow
   6.27108E-09  4.71976E-09  5.61026E-09  4.14922E-09  5.09456E-09  3.82928E-09  5.30817E-09  3.98142E-09  5.75082E-09  5.16544E-09
   5.90799E-09  5.57757E-09  6.95431E-09  5.18930E-09  6.53010E-09  5.46283E-09  6.57584E-09  5.09088E-09  6.11263E-09  4.90670E-09
   6.19476E-09  5.05716E-09  6.68107E-09  5.18119E-09  6.64977E-09  4.87122E-09  5.73497E-09  4.53469E-09  7.57420E-09  7.14337E-09
   8.62048E-09  7.02157E-09  7.95962E-09  6.22098E-09  7.03041E-09  5.85084E-09  6.82225E-09  5.38071E-09  6.39214E-09  5.21785E-09
   6.30564E-09  5.24159E-09  6.29163E-09  4.68840E-09  5.20615E-09  4.22014E-09  5.29031E-09  3.78288E-09  5.31089E-09  3.91055E-09
   4.98342E-09  3.29030E-09  4.45148E-09  2.81263E-09  4.13754E-09  3.14329E-09  4.55225E-09  3.14981E-09  4.85297E-09  4.59388E-09
   7.26738E-09  6.15936E-09  7.80257E-09  6.00264E-09  6.44361E-09  5.02138E-09  5.86852E-09  4.78945E-09  5.19187E-09  3.76747E-09
   4.20417E-09  3.05200E-09  3.90747E-09  2.06738E-09  3.49269E-09  3.14058E-09  7.22068E-09  8.00483E-09  9.58203E-09  7.91925E-09
   9.11788E-09  8.05425E-09  8.54657E-09  7.27931E-09  8.70335E-09  7.63968E-09  8.38476E-09  7.15676E-09  8.73174E-09  6.48125E-09
   8.09665E-09  6.58248E-09  7.42011E-09  5.84942E-09  6.63284E-09  5.50424E-09  6.00839E-09  5.04334E-09  5.90546E-09  4.97976E-09
   5.73130E-09  4.50033E-09  5.90360E-09  4.96859E-09  5.59361E-09  4.35275E-09  4.90356E-09  3.55123E-09  4.13690E-09  3.69373E-09
   4.38629E-09  3.56708E-09  4.22390E-09  3.77932E-09  4.75486E-09  3.49404E-09  4.86142E-09  3.45362E-09  4.72557E-09  3.61168E-09
   4.55214E-09  3.31230E-09  3.92823E-09  2.94287E-09  3.41983E-09  2.66273E-09  4.01206E-09  3.00881E-09  3.80779E-09  2.69468E-09
   4.49102E-09  3.72091E-09  3.42477E-09  2.87750E-09  3.84813E-09  2.80202E-09  4.83696E-09  4.38741E-09  5.41367E-09  4.21616E-09
   5.14276E-09  4.52153E-09  5.87714E-09  5.47034E-09  6.28668E-09  5.25862E-09  6.23489E-09  5.23641E-09  6.20624E-09  5.55534E-09
   5.92716E-09  5.49877E-09  5.91851E-09  5.11069E-09  5.73932E-09  4.75063E-09  5.45235E-09  4.53971E-09  5.28677E-09  4.57450E-09
   5.18265E-09  3.92399E-09  4.50720E-09  4.37842E-09  4.38128E-09  3.22011E-09  3.68429E-09  5.58549E-09  9.72675E-09  1.12639E-08
   1.20749E-08  1.17753E-08  1.22279E-08  1.14378E-08  1.19811E-08  1.13076E-08  1.11563E-08  1.00690E-08  1.00495E-08  8.65330E-09
   8.14974E-09  6.79829E-09  5.97247E-09  3.45193E-09  2.71406E-09  4.99694E-10 -3.02683E-10 -2.36902E-09 -3.38654E-09 -5.17748E-09
  -5.76543E-09 -7.22487E-09 -7.24789E-09 -8.03800E-09 -7.43935E-09 -7.43083E-09 -6.72012E-09 -6.49718E-09 -5.48230E-09 -5.07440E-09
  -3.81020E-09 -3.72333E-09 -2.89919E-09 -2.97948E-09 -1.83642E-09 -2.92544E-09 -1.65650E-09 -2.16655E-09 -1.43661E-09 -2.43759E-09
  -1.67537E-09 -1.90409E-09 -1.73424E-09 -1.84569E-09 -1.21576E-09 -1.99871E-09 -1.31314E-09 -1.95147E-09 -1.34451E-09 -1.84518E-09
  -1.61793E-09 -1.53132E-09 -1.04683E-09 -1.41011E-09 -1.60462E-09 -1.79299E-09 -1.20607E-09 -1.39660E-09 -1.14504E-09 -1.47461E-09
  -1.44324E-09 -2.24245E-09 -1.63707E-09 -1.61988E-09 -7.66416E-10 -1.92738E-09 -1.53696E-09 -1.72133E-09 -1.25013E-09 -1.88753E-09
  -1.47680E-09 -1.88366E-09 -1.59011E-09 -2.20836E-09 -1.73851E-09 -2.20907E-09 -1.66767E-09 -1.98777E-09 -1.40661E-09 -2.05504E-09
  -1.20775E-09 -2.02006E-09 -1.69072E-09 -1.88256E-09 -1.62742E-09 -1.74378E-09 -1.42887E-09 -1.94167E-09 -1.76796E-09 -1.89157E-09
  -1.94262E-09 -1.96386E-09 -2.07789E-09 -2.31826E-09 -2.35085E-09 -2.78748E-09 -2.14202E-09 -2.23591E-09 -2.27827E-09 -2.57607E-09
  -1.67022E-09 -1.65382E-09 -1.76912E-09 -1.41086E-09 -1.53134E-09 -1.55711E-09 -1.32303E-09 -1.01676E-09 -1.03479E-09 -1.25928E-09
  -1.32633E-09 -1.17323E-09 -1.27451E-09 -1.74699E-09 -1.32996E-09 -1.47544E-09 -1.43399E-09 -1.70524E-09 -1.70126E-09 -1.69413E-09
  -2.24320E-09 -1.81524E-09 -1.48289E-09 -2.14861E-09 -1.61184E-09 -1.73296E-09 -2.27094E-09 -1.95580E-09 -2.06222E-09 -1.91840E-09
  -2.04444E-09 -2.11490E-09 -2.03138E-09 -2.27019E-09 -2.40903E-09 -2.34387E-09 -2.46254E-09 -2.24896E-09 -2.75776E-09 -2.27141E-09
  -2.39601E-09 -2.61927E-09 -2.74822E-09 -2.48655E-09 -2.35577E-09 -2.57226E-09 -2.78541E-09 -3.00785E-09 -2.58430E-09 -2.84417E-09
  -2.45859E-09 -2.36644E-09 -2.87652E-09 -2.58202E-09 -3.03033E-09 -2.94426E-09 -2.43308E-09 -3.08902E-09 -2.55798E-09 -2.86510E-09
  -2.68785E-09 -2.96697E-09 -2.89162E-09 -2.76315E-09 -3.47835E-09 -2.97641E-09 -3.40154E-09 -3.01941E-09 -2.83601E-09 -3.04832E-09
  -3.29619E-09 -3.31741E-09 -3.16001E-09 -3.10073E-09 -3.20372E-09 -2.97902E-09 -3.29402E-09 -3.23821E-09 -3.60574E-09 -3.21025E-09
  -3.20898E-09 -3.79996E-09 -3.46625E-09 -3.23288E-09 -3.50625E-09 -3.49133E-09 -3.63726E-09 -3.21492E-09 -3.78082E-09 -3.27515E-09
  -3.31805E-09 -3.13473E-09 -3.73563E-09
 NY points of the fit to the data follow
   5.49201E-09  6.01044E-09  5.70761E-09  5.13388E-09  4.84804E-09  4.98217E-09  5.03695E-09  4.83113E-09  4.75383E-09  5.14304E-09
   5.33650E-09  5.48703E-09  5.62176E-09  5.62171E-09  5.98222E-09  6.31402E-09  6.00665E-09  6.15847E-09  6.73487E-09  6.51380E-09
   5.67126E-09  5.06464E-09  5.05289E-09  5.27368E-09  5.49790E-09  5.74303E-09  6.22126E-09  6.73517E-09  7.11216E-09  7.06486E-09
   7.21313E-09  7.43364E-09  7.52816E-09  7.20140E-09  7.08892E-09  6.87172E-09  6.52180E-09  6.03522E-09  5.78261E-09  5.65157E-09
   5.58832E-09  5.59367E-09  5.48190E-09  5.14712E-09  4.95164E-09  4.64864E-09  4.50641E-09  4.29753E-09  4.03220E-09  3.87480E-09
   3.79673E-09  3.77475E-09  3.76886E-09  3.74635E-09  3.81940E-09  4.10672E-09  4.37523E-09  4.66798E-09  5.11642E-09  5.58332E-09
   5.89804E-09  6.08933E-09  6.22952E-09  6.44740E-09  6.54246E-09  6.28540E-09  5.96162E-09  5.93807E-09  5.61409E-09  5.04117E-09
   4.81965E-09  4.84617E-09  4.85612E-09  4.96438E-09  5.12917E-09  5.47194E-09  6.10355E-09  6.94181E-09  7.77873E-09  8.41733E-09
   8.81540E-09  9.08052E-09  9.05174E-09  8.94106E-09  9.08516E-09  9.07394E-09  8.64011E-09  7.87972E-09  7.11360E-09  6.55305E-09
   6.19997E-09  5.94834E-09  5.75374E-09  5.60333E-09  5.47422E-09  5.35842E-09  5.26064E-09  5.18080E-09  5.11119E-09  5.03607E-09
   4.96984E-09  4.91977E-09  4.87491E-09  4.82792E-09  4.78527E-09  4.74687E-09  4.71165E-09  4.67916E-09  4.64849E-09  4.61940E-09
   4.59160E-09  4.56483E-09  4.53886E-09  4.51346E-09  4.48846E-09  4.46367E-09  4.43895E-09  4.41416E-09  4.38915E-09  4.36382E-09
   4.33805E-09  4.31174E-09  4.28478E-09  4.25709E-09  4.22859E-09  4.19917E-09  4.16877E-09  4.13732E-09  4.10473E-09  4.07093E-09
   4.03587E-09  3.99947E-09  3.96168E-09  3.92244E-09  3.88168E-09  3.83936E-09  3.79542E-09  3.74983E-09  3.70263E-09  3.65386E-09
   3.60357E-09  3.55179E-09  3.49859E-09  3.44400E-09  3.38810E-09  3.33095E-09  3.27262E-09  3.21318E-09  3.15273E-09  3.09137E-09
   3.02921E-09  2.96638E-09  2.90305E-09  2.83942E-09  2.77574E-09  2.71234E-09  2.64965E-09  2.58828E-09  2.52909E-09  2.47335E-09
   2.42310E-09  2.38168E-09  2.35516E-09  2.35561E-09  2.41085E-09  2.60140E-09  3.27009E-09  5.93536E-09  9.22032E-09  1.13020E-08
   1.19276E-08  1.18240E-08  1.16283E-08  1.15117E-08  1.15387E-08  1.16219E-08  1.17337E-08  9.98762E-09  4.35469E-09  2.27931E-09
   1.60981E-09  1.27031E-09  1.04982E-09  8.84553E-10  7.49244E-10  6.32015E-10  5.26607E-10  4.29403E-10  3.38216E-10  2.51615E-10
   1.68667E-10  8.87019E-11  1.12815E-11 -6.39473E-11 -1.37219E-10 -2.08719E-10 -2.78576E-10 -3.46897E-10 -4.13754E-10 -4.79212E-10
  -5.43306E-10 -6.06071E-10 -6.67530E-10 -7.27695E-10 -7.86578E-10 -8.44190E-10 -9.00528E-10 -9.55592E-10 -1.00938E-09 -1.06188E-09
  -1.11308E-09 -1.16299E-09 -1.21160E-09 -1.25889E-09 -1.30484E-09 -1.34945E-09 -1.39271E-09 -1.43461E-09 -1.47513E-09 -1.51426E-09
  -1.55199E-09 -1.58830E-09 -1.62319E-09 -1.65664E-09 -1.68865E-09 -1.71918E-09 -1.74824E-09 -1.77583E-09 -1.80196E-09 -1.82669E-09
  -1.85006E-09 -1.87213E-09 -1.89294E-09 -1.91253E-09 -1.93097E-09 -1.94829E-09 -1.96455E-09 -1.97978E-09 -1.99404E-09 -2.00737E-09
  -2.01983E-09 -2.03145E-09 -2.04228E-09 -2.05236E-09 -2.06175E-09 -2.07048E-09 -2.07861E-09 -2.08616E-09 -2.09320E-09 -2.09976E-09
  -2.10588E-09 -2.11161E-09 -2.11699E-09 -2.12205E-09 -2.12685E-09 -2.13142E-09 -2.13581E-09 -2.14004E-09 -2.14417E-09 -2.14822E-09
  -2.15224E-09 -2.15627E-09 -2.16034E-09 -2.16449E-09 -2.16875E-09 -2.17316E-09 -2.17776E-09 -2.18257E-09 -2.18763E-09 -2.19298E-09
  -2.19865E-09 -2.20466E-09 -2.21105E-09 -2.21782E-09 -2.22497E-09 -2.23247E-09 -2.24033E-09 -2.24851E-09 -2.25702E-09 -2.26583E-09
  -2.27494E-09 -2.28433E-09 -2.29399E-09 -2.30390E-09 -2.31405E-09 -2.32442E-09 -2.33501E-09 -2.34581E-09 -2.35678E-09 -2.36794E-09
  -2.37925E-09 -2.39071E-09 -2.40230E-09 -2.41402E-09 -2.42584E-09 -2.43775E-09 -2.44975E-09 -2.46181E-09 -2.47393E-09 -2.48609E-09
  -2.49828E-09 -2.51048E-09 -2.52268E-09 -2.53488E-09 -2.54705E-09 -2.55918E-09 -2.57126E-09 -2.58329E-09 -2.59523E-09 -2.60710E-09
  -2.61886E-09 -2.63051E-09 -2.64203E-09 -2.65342E-09 -2.66466E-09 -2.67574E-09 -2.68665E-09 -2.69736E-09 -2.70788E-09 -2.71819E-09
  -2.72827E-09 -2.73811E-09 -2.74770E-09 -2.75702E-09 -2.76606E-09 -2.77481E-09 -2.78324E-09 -2.79136E-09 -2.79915E-09 -2.80658E-09
  -2.81366E-09 -2.82037E-09 -2.82670E-09 -2.83263E-09 -2.83816E-09 -2.84327E-09 -2.84796E-09 -2.85220E-09 -2.85600E-09 -2.85933E-09
  -2.86220E-09 -2.86458E-09 -2.86648E-09 -2.86787E-09 -2.86876E-09 -2.86913E-09 -2.86897E-09 -2.86828E-09 -2.86705E-09 -2.86526E-09
  -2.86291E-09 -2.85999E-09 -2.85650E-09 -2.85243E-09 -2.84777E-09 -2.84252E-09 -2.83666E-09 -2.83020E-09 -2.82312E-09 -2.81542E-09
  -2.80710E-09 -2.79815E-09 -2.78857E-09
 NY background values follow
     6.601E-10    6.795E-10    6.991E-10    7.189E-10    7.390E-10    7.593E-10    7.799E-10    8.006E-10    8.216E-10    8.429E-10
     8.643E-10    8.860E-10    9.079E-10    9.300E-10    9.523E-10    9.748E-10    9.975E-10    1.020E-09    1.044E-09    1.067E-09
     1.090E-09    1.114E-09    1.138E-09    1.162E-09    1.186E-09    1.211E-09    1.235E-09    1.260E-09    1.285E-09    1.310E-09
     1.335E-09    1.360E-09    1.386E-09    1.412E-09    1.437E-09    1.463E-09    1.489E-09    1.515E-09    1.542E-09    1.568E-09
     1.595E-09    1.621E-09    1.648E-09    1.675E-09    1.702E-09    1.729E-09    1.756E-09    1.783E-09    1.811E-09    1.838E-09
     1.866E-09    1.893E-09    1.921E-09    1.948E-09    1.976E-09    2.004E-09    2.031E-09    2.059E-09    2.087E-09    2.114E-09
     2.142E-09    2.170E-09    2.197E-09    2.225E-09    2.252E-09    2.280E-09    2.307E-09    2.335E-09    2.362E-09    2.389E-09
     2.416E-09    2.443E-09    2.470E-09    2.497E-09    2.523E-09    2.550E-09    2.576E-09    2.602E-09    2.628E-09    2.654E-09
     2.680E-09    2.705E-09    2.731E-09    2.756E-09    2.781E-09    2.805E-09    2.830E-09    2.854E-09    2.878E-09    2.901E-09
     2.925E-09    2.948E-09    2.971E-09    2.993E-09    3.015E-09    3.037E-09    3.058E-09    3.079E-09    3.099E-09    3.118E-09
     3.137E-09    3.156E-09    3.174E-09    3.191E-09    3.207E-09    3.222E-09    3.237E-09    3.251E-09    3.263E-09    3.275E-09
     3.286E-09    3.296E-09    3.305E-09    3.313E-09    3.319E-09    3.325E-09    3.329E-09    3.331E-09    3.333E-09    3.333E-09
     3.332E-09    3.329E-09    3.325E-09    3.319E-09    3.312E-09    3.303E-09    3.293E-09    3.280E-09    3.267E-09    3.251E-09
     3.233E-09    3.214E-09    3.193E-09    3.170E-09    3.145E-09    3.117E-09    3.088E-09    3.057E-09    3.024E-09    2.988E-09
     2.951E-09    2.912E-09    2.871E-09    2.829E-09    2.784E-09    2.738E-09    2.691E-09    2.641E-09    2.591E-09    2.538E-09
     2.485E-09    2.430E-09    2.373E-09    2.316E-09    2.257E-09    2.197E-09    2.136E-09    2.074E-09    2.011E-09    1.948E-09
     1.883E-09    1.817E-09    1.751E-09    1.684E-09    1.617E-09    1.549E-09    1.480E-09    1.411E-09    1.342E-09    1.272E-09
     1.203E-09    1.132E-09    1.062E-09    9.920E-10    9.217E-10    8.514E-10    7.813E-10    7.113E-10    6.416E-10    5.722E-10
     5.031E-10    4.344E-10    3.662E-10    2.985E-10    2.313E-10    1.646E-10    9.859E-11    3.313E-11   -3.170E-11   -9.589E-11
    -1.594E-10   -2.222E-10   -2.843E-10   -3.456E-10   -4.061E-10   -4.659E-10   -5.248E-10   -5.829E-10   -6.401E-10   -6.964E-10
    -7.518E-10   -8.063E-10   -8.598E-10   -9.123E-10   -9.638E-10   -1.014E-09   -1.064E-09   -1.112E-09   -1.159E-09   -1.206E-09
    -1.251E-09   -1.295E-09   -1.337E-09   -1.379E-09   -1.419E-09   -1.458E-09   -1.496E-09   -1.533E-09   -1.568E-09   -1.602E-09
    -1.635E-09   -1.666E-09   -1.696E-09   -1.725E-09   -1.752E-09   -1.778E-09   -1.802E-09   -1.825E-09   -1.847E-09   -1.867E-09
    -1.886E-09   -1.904E-09   -1.921E-09   -1.936E-09   -1.950E-09   -1.964E-09   -1.976E-09   -1.987E-09   -1.997E-09   -2.007E-09
    -2.015E-09   -2.023E-09   -2.030E-09   -2.037E-09   -2.042E-09   -2.047E-09   -2.052E-09   -2.056E-09   -2.059E-09   -2.062E-09
    -2.065E-09   -2.067E-09   -2.069E-09   -2.071E-09   -2.073E-09   -2.074E-09   -2.075E-09   -2.076E-09   -2.077E-09   -2.078E-09
    -2.079E-09   -2.080E-09   -2.081E-09   -2.082E-09   -2.083E-09   -2.084E-09   -2.086E-09   -2.088E-09   -2.090E-09   -2.092E-09
    -2.095E-09   -2.098E-09   -2.102E-09   -2.106E-09   -2.110E-09   -2.115E-09   -2.120E-09   -2.126E-09   -2.131E-09   -2.138E-09
    -2.144E-09   -2.151E-09   -2.158E-09   -2.165E-09   -2.173E-09   -2.181E-09   -2.189E-09   -2.197E-09   -2.205E-09   -2.214E-09
    -2.223E-09   -2.232E-09   -2.241E-09   -2.251E-09   -2.260E-09   -2.270E-09   -2.279E-09   -2.289E-09   -2.299E-09   -2.309E-09
    -2.319E-09   -2.329E-09   -2.339E-09   -2.349E-09   -2.359E-09   -2.369E-09   -2.379E-09   -2.389E-09   -2.398E-09   -2.408E-09
    -2.418E-09   -2.427E-09   -2.437E-09   -2.446E-09   -2.456E-09   -2.465E-09   -2.474E-09   -2.482E-09   -2.491E-09   -2.499E-09
    -2.507E-09   -2.515E-09   -2.523E-09   -2.530E-09   -2.538E-09   -2.545E-09   -2.551E-09   -2.557E-09   -2.563E-09   -2.569E-09
    -2.574E-09   -2.579E-09   -2.584E-09   -2.588E-09   -2.592E-09   -2.595E-09   -2.598E-09   -2.601E-09   -2.603E-09   -2.605E-09
    -2.606E-09   -2.607E-09   -2.607E-09   -2.607E-09   -2.606E-09   -2.605E-09   -2.603E-09   -2.601E-09   -2.598E-09   -2.595E-09
    -2.591E-09   -2.586E-09   -2.581E-09   -2.576E-09   -2.570E-09   -2.563E-09   -2.556E-09   -2.548E-09   -2.539E-09   -2.530E-09
    -2.520E-09   -2.510E-09   -2.499E-09
 Asp      Conc. = 9.34E-11
   7.26497E-10  7.51232E-10  7.67314E-10  7.85060E-10  8.05769E-10  8.18818E-10  8.38087E-10  8.44450E-10  8.55307E-10  8.69246E-10
   8.85104E-10  9.02248E-10  9.20324E-10  9.39268E-10  9.58950E-10  9.79102E-10  9.99673E-10  1.02062E-09  1.04190E-09  1.06348E-09
   1.08533E-09  1.10744E-09  1.12977E-09  1.15232E-09  1.17506E-09  1.19797E-09  1.22105E-09  1.24427E-09  1.26761E-09  1.29108E-09
   1.31464E-09  1.33829E-09  1.36203E-09  1.38588E-09  1.40996E-09  1.43469E-09  1.46236E-09  1.49235E-09  1.52503E-09  1.55675E-09
   1.58424E-09  1.60762E-09  1.63022E-09  1.66136E-09  1.70039E-09  1.75567E-09  1.81215E-09  1.85141E-09  1.88537E-09  1.91744E-09
   1.96019E-09  2.00723E-09  2.05785E-09  2.10088E-09  2.12396E-09  2.14357E-09  2.13511E-09  2.16004E-09  2.19626E-09  2.21282E-09
   2.22742E-09  2.24928E-09  2.26805E-09  2.28681E-09  2.31481E-09  2.34647E-09  2.36618E-09  2.38711E-09  2.40946E-09  2.43270E-09
   2.45652E-09  2.48072E-09  2.50519E-09  2.52984E-09  2.55459E-09  2.57940E-09  2.60424E-09  2.62905E-09  2.65382E-09  2.67853E-09
   2.70314E-09  2.72763E-09  2.75200E-09  2.77623E-09  2.80029E-09  2.82417E-09  2.84787E-09  2.87136E-09  2.89463E-09  2.91768E-09
   2.94048E-09  2.96303E-09  2.98530E-09  3.00726E-09  3.02886E-09  3.05008E-09  3.07086E-09  3.09118E-09  3.11099E-09  3.13026E-09
   3.14894E-09  3.16699E-09  3.18439E-09  3.20108E-09  3.21704E-09  3.23220E-09  3.24655E-09  3.26004E-09  3.27262E-09  3.28426E-09
   3.29492E-09  3.30455E-09  3.31312E-09  3.32058E-09  3.32689E-09  3.33202E-09  3.33592E-09  3.33855E-09  3.33986E-09  3.33982E-09
   3.33839E-09  3.33552E-09  3.33118E-09  3.32531E-09  3.31790E-09  3.30887E-09  3.29821E-09  3.28587E-09  3.27180E-09  3.25596E-09
   3.23832E-09  3.21884E-09  3.19747E-09  3.17417E-09  3.14891E-09  3.12164E-09  3.09233E-09  3.06095E-09  3.02756E-09  2.99220E-09
   2.95491E-09  2.91575E-09  2.87477E-09  2.83201E-09  2.78753E-09  2.74138E-09  2.69361E-09  2.64427E-09  2.59341E-09  2.54110E-09
   2.48739E-09  2.43232E-09  2.37596E-09  2.31836E-09  2.25959E-09  2.19970E-09  2.13875E-09  2.07682E-09  2.01396E-09  1.95026E-09
   1.88580E-09  1.82069E-09  1.75509E-09  1.68926E-09  1.62376E-09  1.56018E-09  1.50614E-09  1.48390E-09  1.46599E-09  1.42616E-09
   1.36443E-09  1.29322E-09  1.22153E-09  1.15124E-09  1.08317E-09  1.01605E-09  9.47260E-10  8.43247E-10  6.86454E-10  5.94351E-10
   5.17465E-10  4.44987E-10  3.74538E-10  3.05355E-10  2.37124E-10  1.69703E-10  1.03037E-10  3.70837E-11 -2.81506E-11 -9.26755E-11
  -1.56468E-10 -2.19531E-10 -2.81825E-10 -3.43351E-10 -4.04082E-10 -4.63999E-10 -5.23076E-10 -5.81296E-10 -6.38635E-10 -6.95076E-10
  -7.50591E-10 -8.05159E-10 -8.58763E-10 -9.11374E-10 -9.62975E-10 -1.01355E-09 -1.06307E-09 -1.11152E-09 -1.15888E-09 -1.20512E-09
  -1.25022E-09 -1.29417E-09 -1.33696E-09 -1.37855E-09 -1.41893E-09 -1.45808E-09 -1.49598E-09 -1.53262E-09 -1.56798E-09 -1.60203E-09
  -1.63478E-09 -1.66619E-09 -1.69624E-09 -1.72494E-09 -1.75226E-09 -1.77818E-09 -1.80270E-09 -1.82580E-09 -1.84751E-09 -1.86787E-09
  -1.88694E-09 -1.90475E-09 -1.92136E-09 -1.93682E-09 -1.95116E-09 -1.96443E-09 -1.97669E-09 -1.98798E-09 -1.99833E-09 -2.00780E-09
  -2.01644E-09 -2.02428E-09 -2.03138E-09 -2.03777E-09 -2.04351E-09 -2.04862E-09 -2.05317E-09 -2.05719E-09 -2.06072E-09 -2.06381E-09
  -2.06650E-09 -2.06883E-09 -2.07084E-09 -2.07257E-09 -2.07407E-09 -2.07537E-09 -2.07651E-09 -2.07754E-09 -2.07849E-09 -2.07939E-09
  -2.08030E-09 -2.08123E-09 -2.08224E-09 -2.08336E-09 -2.08461E-09 -2.08604E-09 -2.08768E-09 -2.08957E-09 -2.09173E-09 -2.09420E-09
  -2.09702E-09 -2.10020E-09 -2.10379E-09 -2.10778E-09 -2.11218E-09 -2.11695E-09 -2.12210E-09 -2.12760E-09 -2.13345E-09 -2.13962E-09
  -2.14611E-09 -2.15290E-09 -2.15999E-09 -2.16734E-09 -2.17496E-09 -2.18282E-09 -2.19092E-09 -2.19924E-09 -2.20777E-09 -2.21649E-09
  -2.22539E-09 -2.23446E-09 -2.24368E-09 -2.25304E-09 -2.26252E-09 -2.27212E-09 -2.28182E-09 -2.29160E-09 -2.30145E-09 -2.31137E-09
  -2.32133E-09 -2.33132E-09 -2.34133E-09 -2.35135E-09 -2.36136E-09 -2.37135E-09 -2.38131E-09 -2.39123E-09 -2.40108E-09 -2.41087E-09
  -2.42057E-09 -2.43017E-09 -2.43966E-09 -2.44904E-09 -2.45829E-09 -2.46738E-09 -2.47632E-09 -2.48508E-09 -2.49366E-09 -2.50205E-09
  -2.51022E-09 -2.51817E-09 -2.52588E-09 -2.53334E-09 -2.54053E-09 -2.54744E-09 -2.55405E-09 -2.56036E-09 -2.56635E-09 -2.57201E-09
  -2.57732E-09 -2.58228E-09 -2.58687E-09 -2.59108E-09 -2.59489E-09 -2.59830E-09 -2.60130E-09 -2.60387E-09 -2.60600E-09 -2.60769E-09
  -2.60892E-09 -2.60968E-09 -2.60997E-09 -2.60976E-09 -2.60906E-09 -2.60786E-09 -2.60614E-09 -2.60390E-09 -2.60113E-09 -2.59781E-09
  -2.59395E-09 -2.58954E-09 -2.58456E-09 -2.57901E-09 -2.57289E-09 -2.56618E-09 -2.55888E-09 -2.55098E-09 -2.54249E-09 -2.53338E-09
  -2.52367E-09 -2.51333E-09 -2.50237E-09
 Gln      Conc. = 1.30E-09
   3.59903E-11  2.66079E-10  5.33071E-10  8.24395E-10  1.11094E-09  1.37227E-09  1.62107E-09  1.81234E-09  1.83784E-09  2.03832E-09
   2.12740E-09  1.89780E-09  1.91148E-09  1.72196E-09  1.56262E-09  1.45939E-09  1.38896E-09  1.33889E-09  1.30248E-09  1.27580E-09
   1.25636E-09  1.24243E-09  1.23278E-09  1.22635E-09  1.22261E-09  1.22166E-09  1.22246E-09  1.22471E-09  1.22857E-09  1.23350E-09
   1.23927E-09  1.24573E-09  1.25273E-09  1.26015E-09  1.26786E-09  1.27576E-09  1.28373E-09  1.29166E-09  1.29941E-09  1.30687E-09
   1.31396E-09  1.32058E-09  1.32668E-09  1.33219E-09  1.33686E-09  1.34058E-09  1.34323E-09  1.34416E-09  1.34371E-09  1.34301E-09
   1.34130E-09  1.33946E-09  1.34231E-09  1.36361E-09  1.46805E-09  1.74240E-09  2.02698E-09  2.29360E-09  2.70520E-09  3.19502E-09
   3.58346E-09  3.90286E-09  4.19807E-09  4.46113E-09  4.64409E-09  4.56051E-09  4.29526E-09  4.35343E-09  4.14442E-09  3.62685E-09
   3.36015E-09  3.31963E-09  3.25029E-09  3.29151E-09  3.42268E-09  3.70302E-09  4.02165E-09  4.32337E-09  4.61796E-09  4.86497E-09
   5.09515E-09  5.35501E-09  5.32126E-09  5.22026E-09  5.31542E-09  5.11997E-09  4.78987E-09  4.70120E-09  4.49682E-09  4.28996E-09
   4.14934E-09  4.04802E-09  3.97334E-09  3.91772E-09  3.87319E-09  3.83747E-09  3.80930E-09  3.78650E-09  3.76804E-09  3.75345E-09
   3.74184E-09  3.73229E-09  3.72443E-09  3.71788E-09  3.71247E-09  3.70803E-09  3.70418E-09  3.70072E-09  3.69748E-09  3.69431E-09
   3.69106E-09  3.68761E-09  3.68385E-09  3.67966E-09  3.67494E-09  3.66961E-09  3.66358E-09  3.65676E-09  3.64907E-09  3.64044E-09
   3.63080E-09  3.62009E-09  3.60823E-09  3.59517E-09  3.58084E-09  3.56518E-09  3.54814E-09  3.52966E-09  3.50969E-09  3.48816E-09
   3.46504E-09  3.44026E-09  3.41379E-09  3.38556E-09  3.35553E-09  3.32367E-09  3.28991E-09  3.25423E-09  3.21669E-09  3.17731E-09
   3.13615E-09  3.09324E-09  3.04865E-09  3.00241E-09  2.95457E-09  2.90520E-09  2.85434E-09  2.80205E-09  2.74839E-09  2.69342E-09
   2.63722E-09  2.57984E-09  2.52138E-09  2.46190E-09  2.40152E-09  2.34035E-09  2.27854E-09  2.21624E-09  2.15370E-09  2.09123E-09
   2.02932E-09  1.96872E-09  1.91073E-09  1.85791E-09  1.81592E-09  1.80056E-09  1.87549E-09  2.36357E-09  3.00805E-09  3.41367E-09
   3.50606E-09  3.43278E-09  3.33375E-09  3.25021E-09  3.19695E-09  3.15580E-09  3.12921E-09  2.73970E-09  1.50346E-09  9.60209E-10
   7.54870E-10  6.26199E-10  5.24709E-10  4.35839E-10  3.53930E-10  2.76366E-10  2.01800E-10  1.29453E-10  5.88839E-11 -1.02053E-11
  -7.79834E-11 -1.44587E-10 -2.10073E-10 -2.74510E-10 -3.37924E-10 -4.00336E-10 -4.61749E-10 -5.22172E-10 -5.81598E-10 -6.40027E-10
  -6.97443E-10 -7.53836E-10 -8.09196E-10 -8.63502E-10 -9.16743E-10 -9.68908E-10 -1.01997E-09 -1.06993E-09 -1.11875E-09 -1.16642E-09
  -1.21292E-09 -1.25824E-09 -1.30236E-09 -1.34527E-09 -1.38693E-09 -1.42734E-09 -1.46648E-09 -1.50434E-09 -1.54089E-09 -1.57612E-09
  -1.61002E-09 -1.64257E-09 -1.67374E-09 -1.70355E-09 -1.73196E-09 -1.75895E-09 -1.78453E-09 -1.80868E-09 -1.83141E-09 -1.85279E-09
  -1.87286E-09 -1.89167E-09 -1.90926E-09 -1.92568E-09 -1.94098E-09 -1.95520E-09 -1.96839E-09 -1.98060E-09 -1.99187E-09 -2.00224E-09
