 LCModel (Version 6.3-1R) Copyright: S.W. Provencher.          Ref.: Magn. Reson. Med. 30:672-679 (1993).                
 onepulse 27x9_ftSpec_smooth_lcm
 26 lines in following concentration table = NCONC+1
    Conc.  %SD /Cr+PCr  Metabolite                                         
 3.88E-10  61%   1.078 Ala                                                 
 4.82E-09   9%  13.401 Asp                                                 
 3.60E-10  66%   1.000 Cr                                                  
 8.13E-10  50%   2.258 GABA                                                
 2.88E-09  13%   8.002 Glc                                                 
    0.000 999%   0.000 Gln                                                 
    0.000 999%   0.000 Glu                                                 
    0.000 999%   0.000 Glyc                                                
 6.03E-11 108%   0.168 GPC                                                 
    0.000 999%   0.000 GSH                                                 
 8.74E-10  36%   2.429 Ins                                                 
 1.91E-10 124%   0.532 Lac                                                 
    0.000 999%   0.000 NAAG                                                
    0.000 999%   0.000 NAA                                                 
    0.000 999%   0.000 PCh                                                 
    0.000 999%   0.000 PCr                                                 
    0.000 999%   0.000 PE                                                  
    0.000 999%   0.000 Scyllo                                              
    0.000 999%   0.000 Ser                                                 
    0.000 999%   0.000 Tau                                                 
 6.03E-11 108%   0.168 GPC+PCh                                             
    0.000 999%   0.000 NAA+NAAG                                            
 8.74E-10  36%   2.429 Ins+Glyc                                            
 3.60E-10  66%   1.000 Cr+PCr                                              
    0.000 999%   0.000 Glu+Gln                                             
   6 lines in following misc. output table
  FWHM = 0.123 ppm    S/N =   4                                            
  Data shift = 0.447 ppm                                                   
  Ph:  -1 deg      98.8 deg/ppm                                            
  alphaB,S = 3.9E-01,   1.2E+01                                            
   11 spline knots.   Ns = 5(1)                                            
  ( 9) 6 infls.   ( 9) 5 extrs.                                            
  363 points on ppm-axis = NY
      4.250000     4.238821     4.227641     4.216462     4.205282     4.194103     4.182923     4.171744     4.160564     4.149385
      4.138206     4.127026     4.115847     4.104667     4.093488     4.082308     4.071129     4.059949     4.048770     4.037591
      4.026411     4.015232     4.004052     3.992873     3.981693     3.970514     3.959334     3.948155     3.936975     3.925796
      3.914617     3.903437     3.892258     3.881078     3.869899     3.858719     3.847540     3.836360     3.825181     3.814002
      3.802822     3.791643     3.780463     3.769284     3.758104     3.746925     3.735745     3.724566     3.713387     3.702207
      3.691028     3.679848     3.668669     3.657489     3.646310     3.635130     3.623951     3.612772     3.601592     3.590413
      3.579233     3.568054     3.556874     3.545695     3.534515     3.523336     3.512156     3.500977     3.489798     3.478618
      3.467439     3.456259     3.445080     3.433900     3.422721     3.411541     3.400362     3.389183     3.378003     3.366824
      3.355644     3.344465     3.333285     3.322106     3.310926     3.299747     3.288568     3.277388     3.266209     3.255029
      3.243850     3.232670     3.221491     3.210311     3.199132     3.187953     3.176773     3.165594     3.154414     3.143235
      3.132055     3.120876     3.109696     3.098517     3.087337     3.076158     3.064979     3.053799     3.042620     3.031440
      3.020261     3.009081     2.997902     2.986722     2.975543     2.964364     2.953184     2.942005     2.930825     2.919646
      2.908466     2.897287     2.886107     2.874928     2.863749     2.852569     2.841390     2.830210     2.819031     2.807851
      2.796672     2.785492     2.774313     2.763134     2.751954     2.740775     2.729595     2.718416     2.707236     2.696057
      2.684877     2.673698     2.662519     2.651339     2.640160     2.628980     2.617801     2.606621     2.595442     2.584262
      2.573083     2.561903     2.550724     2.539545     2.528365     2.517186     2.506006     2.494827     2.483647     2.472468
      2.461288     2.450109     2.438930     2.427750     2.416571     2.405391     2.394212     2.383032     2.371853     2.360673
      2.349494     2.338315     2.327135     2.315956     2.304776     2.293597     2.282417     2.271238     2.260058     2.248879
      2.237700     2.226520     2.215341     2.204161     2.192982     2.181802     2.170623     2.159443     2.148264     2.137084
      2.125905     2.114726     2.103546     2.092367     2.081187     2.070008     2.058828     2.047649     2.036469     2.025290
      2.014111     2.002931     1.991752     1.980572     1.969393     1.958213     1.947034     1.935854     1.924675     1.913496
      1.902316     1.891137     1.879957     1.868778     1.857598     1.846419     1.835239     1.824060     1.812881     1.801701
      1.790522     1.779342     1.768163     1.756983     1.745804     1.734624     1.723445     1.712265     1.701086     1.689907
      1.678727     1.667548     1.656368     1.645189     1.634009     1.622830     1.611650     1.600471     1.589292     1.578112
      1.566933     1.555753     1.544574     1.533394     1.522215     1.511035     1.499856     1.488677     1.477497     1.466318
      1.455138     1.443959     1.432779     1.421600     1.410420     1.399241     1.388062     1.376882     1.365703     1.354523
      1.343344     1.332164     1.320985     1.309805     1.298626     1.287446     1.276267     1.265088     1.253908     1.242729
      1.231549     1.220370     1.209190     1.198011     1.186831     1.175652     1.164473     1.153293     1.142114     1.130934
      1.119755     1.108575     1.097396     1.086216     1.075037     1.063858     1.052678     1.041499     1.030319     1.019140
      1.007960     0.996781     0.985601     0.974422     0.963243     0.952063     0.940884     0.929704     0.918525     0.907345
      0.896166     0.884986     0.873807     0.862628     0.851448     0.840269     0.829089     0.817910     0.806730     0.795551
      0.784371     0.773192     0.762012     0.750833     0.739654     0.728474     0.717295     0.706115     0.694936     0.683756
      0.672577     0.661397     0.650218     0.639039     0.627859     0.616680     0.605500     0.594321     0.583141     0.571962
      0.560782     0.549603     0.538424     0.527244     0.516065     0.504885     0.493706     0.482526     0.471347     0.460167
      0.448988     0.437809     0.426629     0.415450     0.404270     0.393091     0.381911     0.370732     0.359552     0.348373
      0.337193     0.326014     0.314835     0.303655     0.292476     0.281296     0.270117     0.258937     0.247758     0.236578
      0.225399     0.214220     0.203040
 NY phased data points follow
   6.64466E-11 -2.11342E-09  2.72359E-10 -1.90113E-09 -8.31804E-10 -2.75724E-09 -1.33652E-09 -4.44431E-09 -2.25904E-09 -4.50824E-09
  -2.72020E-09 -5.18487E-09 -2.90522E-09 -4.97435E-09 -2.64372E-09 -4.86763E-09 -3.13884E-09 -5.74467E-09 -3.93464E-09 -5.83826E-09
  -3.54544E-09 -5.10603E-09 -2.62153E-09 -6.22968E-09 -6.10530E-09 -8.72291E-09 -7.34159E-09 -8.94817E-09 -7.02583E-09 -8.03277E-09
  -6.44898E-09 -7.93330E-09 -6.05229E-09 -7.70111E-09 -6.01275E-09 -7.54064E-09 -6.05909E-09 -7.63453E-09 -5.64817E-09 -6.45483E-09
  -4.68195E-09 -6.50371E-09 -4.56289E-09 -6.37713E-09 -4.64793E-09 -6.22450E-09 -3.91566E-09 -5.41988E-09 -3.44176E-09 -4.99894E-09
  -3.86469E-09 -5.49410E-09 -3.63875E-09 -5.86077E-09 -6.15958E-09 -9.43874E-09 -8.12188E-09 -9.77260E-09 -7.34810E-09 -8.13523E-09
  -6.27707E-09 -7.37133E-09 -5.94005E-09 -6.23633E-09 -4.83844E-09 -5.31240E-09 -4.21512E-09 -5.16748E-09 -3.58372E-09 -5.56597E-09
  -6.21681E-09 -1.13822E-08 -1.17589E-08 -1.22541E-08 -9.76419E-09 -1.08197E-08 -9.24085E-09 -9.57613E-09 -7.99650E-09 -9.20488E-09
  -7.96590E-09 -8.41332E-09 -7.01093E-09 -7.85282E-09 -5.50380E-09 -6.93763E-09 -4.85941E-09 -5.64947E-09 -3.74791E-09 -4.80211E-09
  -3.34188E-09 -3.93536E-09 -2.92901E-09 -3.81059E-09 -2.73359E-09 -3.19879E-09 -2.09278E-09 -3.71330E-09 -1.93507E-09 -2.40528E-09
  -9.25633E-10 -1.54909E-09 -2.46621E-10 -1.57300E-09 -1.07539E-09 -1.78668E-09 -1.10135E-09 -1.79502E-09 -1.52185E-09 -1.87739E-09
  -8.86453E-10 -1.68878E-09 -5.81814E-10 -1.55435E-09 -1.31295E-10 -9.24992E-10  4.31408E-10 -3.28833E-10  3.27298E-10 -6.70274E-10
  -4.41561E-10 -1.13802E-09 -2.98516E-10 -1.12018E-09 -5.90379E-10 -1.83256E-09  1.84836E-10 -5.57650E-10 -6.03040E-10 -1.05224E-09
  -1.42573E-09 -2.48587E-09 -1.14159E-09 -1.11568E-09 -1.26086E-10 -7.94006E-10 -3.93502E-10 -8.61286E-10  3.00272E-10  6.43680E-10
   1.30839E-09  1.17386E-09  2.16671E-09  1.69533E-09  2.72181E-09  2.48132E-09  3.02504E-09  3.29746E-09  3.69462E-09  3.45218E-09
   3.94844E-09  3.60421E-09  3.75826E-09  3.62474E-09  3.81529E-09  3.93995E-09  3.90098E-09  2.94731E-09  3.61722E-09  3.10145E-09
   2.01931E-09 -5.21047E-10 -9.75833E-10  2.25931E-09  6.83797E-09  9.15300E-09  1.06535E-08  1.17950E-08  1.26791E-08  1.33753E-08
   1.45719E-08  1.47918E-08  1.52766E-08  1.57463E-08  1.58290E-08  1.54979E-08  1.53366E-08  1.50426E-08  1.34530E-08  1.23132E-08
   1.07751E-08  9.15280E-09  7.58119E-09  5.46439E-09  3.48905E-09  1.44958E-09 -6.70218E-10 -2.06393E-09 -3.76609E-09 -4.83473E-09
  -5.48193E-09 -5.92946E-09 -6.21239E-09 -5.84889E-09 -5.89929E-09 -4.97758E-09 -4.62111E-09 -4.01939E-09 -3.79592E-09 -2.43303E-09
  -3.16901E-09 -2.05996E-09 -2.28997E-09 -1.56954E-09 -2.43768E-09 -2.06815E-09 -1.88798E-09 -1.79994E-09 -2.27771E-09 -1.44582E-09
  -2.16407E-09 -1.55568E-09 -2.19279E-09 -1.59300E-09 -1.97995E-09 -1.74204E-09 -1.75739E-09 -1.27538E-09 -1.85023E-09 -1.94703E-09
  -2.20755E-09 -1.47149E-09 -1.85276E-09 -1.36927E-09 -1.74266E-09 -1.69556E-09 -2.59250E-09 -1.66942E-09 -1.62704E-09 -1.01188E-09
  -2.42483E-09 -1.63805E-09 -2.21304E-09 -1.50296E-09 -2.36747E-09 -1.70643E-09 -2.03720E-09 -1.67928E-09 -2.40212E-09 -1.52619E-09
  -2.17315E-09 -1.12231E-09 -1.88423E-09 -1.01733E-09 -1.85267E-09 -8.39974E-10 -2.18292E-09 -1.07118E-09 -2.06967E-09 -1.15280E-09
  -1.96250E-09 -1.24195E-09 -2.28403E-09 -1.34402E-09 -2.10439E-09 -1.61382E-09 -2.10452E-09 -1.65427E-09 -2.10134E-09 -1.49818E-09
  -1.95380E-09 -7.60077E-10 -1.43448E-09 -7.17495E-10 -1.09187E-09  3.96339E-10 -7.80589E-10  1.59435E-10 -4.90155E-10  5.73771E-11
  -5.94067E-10  2.03311E-10 -4.52880E-10 -6.54817E-11 -1.09395E-09 -3.08229E-10 -1.01085E-09 -6.45800E-10 -1.34890E-09 -2.71683E-10
  -1.14598E-09 -7.73367E-10 -1.46688E-09 -5.00650E-10 -1.31165E-09 -7.35342E-10 -8.47085E-10 -6.80518E-10 -1.40392E-09  3.69387E-11
  -1.51231E-09 -5.37718E-10 -9.37339E-10 -3.79420E-10 -8.85554E-10 -2.12581E-10 -9.90675E-10 -1.53531E-10 -1.09891E-09 -4.39105E-11
  -5.64374E-10  1.91855E-10 -6.15454E-10  3.28376E-10 -2.67093E-10  2.72934E-10 -2.86144E-10  6.48766E-10  1.37058E-10  6.41658E-10
   5.88470E-11  6.44807E-10  6.24767E-10  1.23198E-09  5.72019E-10  1.50584E-09  2.19085E-10  1.30178E-09  6.49263E-10  1.41389E-09
   1.35951E-09  1.34623E-09  1.17412E-09  1.88910E-09  1.19402E-09  1.92237E-09  1.01411E-09  2.12986E-09  1.12440E-09  2.63112E-09
   1.67904E-09  2.64093E-09  2.06312E-09  2.32193E-09  2.03314E-09  2.61770E-09  2.43026E-09  3.15401E-09  2.38233E-09  3.28130E-09
   2.39146E-09  3.27758E-09  2.62693E-09  3.44532E-09  2.90615E-09  3.19227E-09  3.34868E-09  3.81388E-09  2.84518E-09  3.84291E-09
   3.28561E-09  4.16191E-09  3.24304E-09  4.23188E-09  3.25985E-09  3.90565E-09  2.96543E-09  4.03009E-09  3.93367E-09  3.89514E-09
   3.79392E-09  4.25236E-09  3.98338E-09
 NY points of the fit to the data follow
   5.97796E-10 -4.11852E-10 -1.32430E-09 -2.54926E-09 -2.55016E-09 -2.29092E-09 -3.45707E-09 -3.76959E-09 -3.05457E-09 -4.11518E-09
  -5.02858E-09 -4.96748E-09 -4.36428E-09 -3.71481E-09 -2.62488E-09 -2.25099E-09 -2.48896E-09 -2.64175E-09 -3.44773E-09 -4.51291E-09
  -4.54975E-09 -4.44656E-09 -4.93364E-09 -5.05220E-09 -5.06587E-09 -6.41936E-09 -8.51052E-09 -8.80107E-09 -8.63194E-09 -8.11277E-09
  -7.68736E-09 -7.10190E-09 -6.44778E-09 -6.44093E-09 -7.00799E-09 -6.99808E-09 -6.50744E-09 -6.21942E-09 -6.47878E-09 -6.76454E-09
  -6.66454E-09 -5.76752E-09 -5.50837E-09 -6.41373E-09 -4.72551E-09 -4.81180E-09 -5.70214E-09 -5.54467E-09 -4.63470E-09 -4.73702E-09
  -4.55058E-09 -4.02943E-09 -4.05395E-09 -5.04426E-09 -5.10719E-09 -7.66804E-09 -7.92937E-09 -7.15568E-09 -7.14516E-09 -8.05874E-09
  -7.82085E-09 -7.59867E-09 -7.98302E-09 -7.63012E-09 -6.63348E-09 -6.79380E-09 -7.13398E-09 -7.05313E-09 -6.88441E-09 -6.79164E-09
  -6.70966E-09 -6.72753E-09 -6.96771E-09 -6.85876E-09 -6.63234E-09 -7.06709E-09 -7.11048E-09 -6.81170E-09 -6.74726E-09 -6.56855E-09
  -6.38828E-09 -6.27489E-09 -5.89802E-09 -5.55027E-09 -5.46658E-09 -5.18155E-09 -4.83512E-09 -4.67800E-09 -4.44699E-09 -4.21073E-09
  -4.16847E-09 -4.01938E-09 -3.69925E-09 -3.77665E-09 -3.84210E-09 -3.51871E-09 -3.47171E-09 -3.50272E-09 -3.25799E-09 -2.91522E-09
  -2.56014E-09 -2.58683E-09 -2.32988E-09 -1.80698E-09 -1.60050E-09 -1.49107E-09 -1.25723E-09 -9.56635E-10 -8.27259E-10 -5.88097E-10
  -6.51039E-10 -1.01122E-09 -7.27596E-10 -7.05590E-10 -1.07521E-09 -1.06118E-09 -9.88880E-10 -1.04638E-09 -1.17239E-09 -9.89589E-10
  -1.01685E-09 -1.12329E-09 -1.07125E-09 -9.85990E-10 -8.91732E-10 -7.95168E-10 -6.98863E-10 -6.03969E-10 -5.11043E-10 -4.20408E-10
  -3.32328E-10 -2.46914E-10 -1.64286E-10 -8.44969E-11 -7.61236E-12  6.62539E-11  1.37139E-10  2.05000E-10  2.69916E-10  3.31963E-10
   3.91250E-10  4.47872E-10  5.01940E-10  5.53574E-10  6.02899E-10  6.50071E-10  6.95252E-10  7.38657E-10  7.80500E-10  8.21043E-10
   8.60599E-10  8.99570E-10  9.38420E-10  9.77768E-10  1.01839E-09  1.06132E-09  1.10797E-09  1.16030E-09  1.22117E-09  1.29495E-09
   1.38857E-09  1.51402E-09  1.69375E-09  1.97575E-09  2.48376E-09  3.64888E-09  7.65789E-09  1.24051E-08  1.42594E-08  1.38414E-08
   1.42833E-08  1.54823E-08  1.63062E-08  1.62541E-08  1.59403E-08  1.65480E-08  1.77866E-08  1.45790E-08  7.63389E-09  2.72826E-09
   1.32304E-09  8.02895E-10  5.35850E-10  3.70144E-10  2.53395E-10  1.63168E-10  8.84348E-11  2.32447E-11 -3.58429E-11 -9.09242E-11
  -1.43318E-10 -1.93884E-10 -2.43187E-10 -2.91608E-10 -3.39399E-10 -3.86729E-10 -4.33709E-10 -4.80400E-10 -5.26831E-10 -5.73021E-10
  -6.18961E-10 -6.64630E-10 -7.10001E-10 -7.55036E-10 -7.99695E-10 -8.43936E-10 -8.87706E-10 -9.30948E-10 -9.73610E-10 -1.01564E-09
  -1.05697E-09 -1.09756E-09 -1.13733E-09 -1.17622E-09 -1.21419E-09 -1.25116E-09 -1.28707E-09 -1.32186E-09 -1.35547E-09 -1.38784E-09
  -1.41890E-09 -1.44859E-09 -1.47685E-09 -1.50361E-09 -1.52882E-09 -1.55241E-09 -1.57432E-09 -1.59449E-09 -1.61293E-09 -1.62964E-09
  -1.64466E-09 -1.65801E-09 -1.66971E-09 -1.67980E-09 -1.68829E-09 -1.69520E-09 -1.70056E-09 -1.70440E-09 -1.70674E-09 -1.70760E-09
  -1.70701E-09 -1.70500E-09 -1.70157E-09 -1.69677E-09 -1.69062E-09 -1.68314E-09 -1.67435E-09 -1.66428E-09 -1.65295E-09 -1.64039E-09
  -1.62663E-09 -1.61168E-09 -1.59558E-09 -1.57835E-09 -1.56001E-09 -1.54058E-09 -1.52010E-09 -1.49859E-09 -1.47607E-09 -1.45256E-09
  -1.42810E-09 -1.40270E-09 -1.37640E-09 -1.34921E-09 -1.32116E-09 -1.29228E-09 -1.26259E-09 -1.23212E-09 -1.20089E-09 -1.16893E-09
  -1.13625E-09 -1.10290E-09 -1.06888E-09 -1.03422E-09 -9.98915E-10 -9.62970E-10 -9.26393E-10 -8.89182E-10 -8.51337E-10 -8.12866E-10
  -7.73778E-10 -7.34061E-10 -6.93735E-10 -6.52793E-10 -6.11243E-10 -5.69080E-10 -5.26319E-10 -4.82955E-10 -4.38995E-10 -3.94444E-10
  -3.49303E-10 -3.03574E-10 -2.57263E-10 -2.10378E-10 -1.62914E-10 -1.14878E-10 -6.62761E-11 -1.71142E-11  3.26119E-11  8.28912E-11
   1.33724E-10  1.85106E-10  2.37033E-10  2.89499E-10  3.42502E-10  3.96033E-10  4.50102E-10  5.04685E-10  5.59799E-10  6.15417E-10
   6.71552E-10  7.28200E-10  7.85352E-10  8.42989E-10  9.01132E-10  9.59769E-10  1.01888E-09  1.07850E-09  1.13857E-09  1.19910E-09
   1.26005E-09  1.32142E-09  1.38318E-09  1.44531E-09  1.50778E-09  1.57058E-09  1.63368E-09  1.69707E-09  1.76072E-09  1.82462E-09
   1.88874E-09  1.95306E-09  2.01756E-09  2.08223E-09  2.14703E-09  2.21196E-09  2.27698E-09  2.34209E-09  2.40725E-09  2.47246E-09
   2.53768E-09  2.60291E-09  2.66812E-09  2.73329E-09  2.79840E-09  2.86343E-09  2.92837E-09  2.99319E-09  3.05787E-09  3.12240E-09
   3.18675E-09  3.25091E-09  3.31486E-09  3.37857E-09  3.44204E-09  3.50524E-09  3.56816E-09  3.63076E-09  3.69305E-09  3.75499E-09
   3.81657E-09  3.87778E-09  3.93859E-09
 NY background values follow
    -1.557E-08   -1.548E-08   -1.539E-08   -1.529E-08   -1.520E-08   -1.510E-08   -1.501E-08   -1.491E-08   -1.481E-08   -1.472E-08
    -1.462E-08   -1.452E-08   -1.442E-08   -1.432E-08   -1.422E-08   -1.412E-08   -1.402E-08   -1.392E-08   -1.382E-08   -1.371E-08
    -1.361E-08   -1.351E-08   -1.340E-08   -1.330E-08   -1.319E-08   -1.309E-08   -1.298E-08   -1.288E-08   -1.277E-08   -1.266E-08
    -1.255E-08   -1.244E-08   -1.233E-08   -1.222E-08   -1.211E-08   -1.200E-08   -1.189E-08   -1.178E-08   -1.167E-08   -1.155E-08
    -1.144E-08   -1.132E-08   -1.121E-08   -1.110E-08   -1.098E-08   -1.086E-08   -1.075E-08   -1.063E-08   -1.051E-08   -1.039E-08
    -1.027E-08   -1.016E-08   -1.004E-08   -9.916E-09   -9.796E-09   -9.675E-09   -9.554E-09   -9.432E-09   -9.310E-09   -9.188E-09
    -9.065E-09   -8.942E-09   -8.819E-09   -8.695E-09   -8.571E-09   -8.447E-09   -8.322E-09   -8.198E-09   -8.073E-09   -7.947E-09
    -7.822E-09   -7.696E-09   -7.570E-09   -7.444E-09   -7.318E-09   -7.192E-09   -7.065E-09   -6.938E-09   -6.812E-09   -6.685E-09
    -6.558E-09   -6.431E-09   -6.304E-09   -6.177E-09   -6.049E-09   -5.922E-09   -5.795E-09   -5.668E-09   -5.541E-09   -5.413E-09
    -5.286E-09   -5.159E-09   -5.032E-09   -4.905E-09   -4.779E-09   -4.652E-09   -4.527E-09   -4.401E-09   -4.276E-09   -4.152E-09
    -4.028E-09   -3.905E-09   -3.782E-09   -3.661E-09   -3.540E-09   -3.420E-09   -3.302E-09   -3.184E-09   -3.068E-09   -2.953E-09
    -2.839E-09   -2.726E-09   -2.615E-09   -2.506E-09   -2.398E-09   -2.291E-09   -2.187E-09   -2.084E-09   -1.983E-09   -1.884E-09
    -1.786E-09   -1.691E-09   -1.598E-09   -1.508E-09   -1.419E-09   -1.333E-09   -1.249E-09   -1.168E-09   -1.089E-09   -1.013E-09
    -9.394E-10   -8.686E-10   -8.007E-10   -7.356E-10   -6.735E-10   -6.144E-10   -5.584E-10   -5.055E-10   -4.557E-10   -4.089E-10
    -3.651E-10   -3.243E-10   -2.864E-10   -2.514E-10   -2.192E-10   -1.898E-10   -1.631E-10   -1.391E-10   -1.178E-10   -9.909E-11
    -8.294E-11   -6.931E-11   -5.815E-11   -4.942E-11   -4.307E-11   -3.906E-11   -3.734E-11   -3.786E-11   -4.059E-11   -4.546E-11
    -5.246E-11   -6.150E-11   -7.256E-11   -8.558E-11   -1.005E-10   -1.173E-10   -1.360E-10   -1.564E-10   -1.785E-10   -2.024E-10
    -2.278E-10   -2.549E-10   -2.835E-10   -3.135E-10   -3.451E-10   -3.780E-10   -4.122E-10   -4.478E-10   -4.846E-10   -5.226E-10
    -5.617E-10   -6.020E-10   -6.433E-10   -6.855E-10   -7.287E-10   -7.728E-10   -8.177E-10   -8.633E-10   -9.096E-10   -9.564E-10
    -1.004E-09   -1.052E-09   -1.100E-09   -1.149E-09   -1.198E-09   -1.247E-09   -1.296E-09   -1.346E-09   -1.395E-09   -1.445E-09
    -1.494E-09   -1.543E-09   -1.592E-09   -1.641E-09   -1.689E-09   -1.737E-09   -1.785E-09   -1.831E-09   -1.878E-09   -1.923E-09
    -1.968E-09   -2.012E-09   -2.056E-09   -2.098E-09   -2.139E-09   -2.180E-09   -2.219E-09   -2.257E-09   -2.294E-09   -2.329E-09
    -2.363E-09   -2.396E-09   -2.427E-09   -2.457E-09   -2.485E-09   -2.511E-09   -2.536E-09   -2.559E-09   -2.580E-09   -2.599E-09
    -2.616E-09   -2.632E-09   -2.646E-09   -2.659E-09   -2.670E-09   -2.679E-09   -2.686E-09   -2.692E-09   -2.697E-09   -2.700E-09
    -2.701E-09   -2.701E-09   -2.700E-09   -2.697E-09   -2.693E-09   -2.687E-09   -2.680E-09   -2.672E-09   -2.662E-09   -2.651E-09
    -2.639E-09   -2.626E-09   -2.611E-09   -2.595E-09   -2.579E-09   -2.561E-09   -2.541E-09   -2.521E-09   -2.500E-09   -2.478E-09
    -2.455E-09   -2.430E-09   -2.405E-09   -2.379E-09   -2.352E-09   -2.325E-09   -2.296E-09   -2.266E-09   -2.236E-09   -2.205E-09
    -2.173E-09   -2.141E-09   -2.108E-09   -2.074E-09   -2.039E-09   -2.004E-09   -1.968E-09   -1.932E-09   -1.895E-09   -1.857E-09
    -1.818E-09   -1.779E-09   -1.739E-09   -1.699E-09   -1.658E-09   -1.616E-09   -1.574E-09   -1.531E-09   -1.487E-09   -1.443E-09
    -1.398E-09   -1.353E-09   -1.307E-09   -1.260E-09   -1.213E-09   -1.165E-09   -1.117E-09   -1.068E-09   -1.018E-09   -9.679E-10
    -9.171E-10   -8.658E-10   -8.139E-10   -7.614E-10   -7.084E-10   -6.548E-10   -6.006E-10   -5.459E-10   -4.907E-10   -4.349E-10
    -3.786E-10   -3.218E-10   -2.644E-10   -2.065E-10   -1.481E-10   -8.915E-11   -2.972E-11    3.023E-11    9.067E-11    1.516E-10
     2.129E-10    2.747E-10    3.369E-10    3.995E-10    4.625E-10    5.258E-10    5.895E-10    6.534E-10    7.176E-10    7.821E-10
     8.469E-10    9.119E-10    9.770E-10    1.042E-09    1.108E-09    1.174E-09    1.239E-09    1.305E-09    1.371E-09    1.437E-09
     1.503E-09    1.569E-09    1.635E-09    1.701E-09    1.767E-09    1.833E-09    1.899E-09    1.965E-09    2.031E-09    2.096E-09
     2.162E-09    2.227E-09    2.292E-09    2.357E-09    2.421E-09    2.486E-09    2.550E-09    2.613E-09    2.677E-09    2.740E-09
     2.803E-09    2.865E-09    2.927E-09
 Ala      Conc. = 3.88E-10
  -1.52160E-08 -1.51584E-08 -1.50570E-08 -1.49648E-08 -1.49029E-08 -1.48027E-08 -1.47153E-08 -1.47314E-08 -1.46382E-08 -1.44933E-08
  -1.45047E-08 -1.44510E-08 -1.43273E-08 -1.42584E-08 -1.41806E-08 -1.40879E-08 -1.39897E-08 -1.38888E-08 -1.37864E-08 -1.36830E-08
  -1.35789E-08 -1.34740E-08 -1.33686E-08 -1.32626E-08 -1.31561E-08 -1.30491E-08 -1.29416E-08 -1.28336E-08 -1.27252E-08 -1.26162E-08
  -1.25067E-08 -1.23968E-08 -1.22863E-08 -1.21753E-08 -1.20639E-08 -1.19519E-08 -1.18394E-08 -1.17264E-08 -1.16130E-08 -1.14990E-08
  -1.13844E-08 -1.12695E-08 -1.11539E-08 -1.10379E-08 -1.09213E-08 -1.08042E-08 -1.06868E-08 -1.05687E-08 -1.04501E-08 -1.03310E-08
  -1.02114E-08 -1.00914E-08 -9.97090E-09 -9.84997E-09 -9.72858E-09 -9.60677E-09 -9.48454E-09 -9.36191E-09 -9.23888E-09 -9.11545E-09
  -8.99165E-09 -8.86748E-09 -8.74295E-09 -8.61807E-09 -8.49284E-09 -8.36727E-09 -8.24138E-09 -8.11517E-09 -7.98864E-09 -7.86182E-09
  -7.73468E-09 -7.60727E-09 -7.47952E-09 -7.35151E-09 -7.22319E-09 -7.09459E-09 -6.96570E-09 -6.83652E-09 -6.70701E-09 -6.57717E-09
  -6.44700E-09 -6.31647E-09 -6.18554E-09 -6.05419E-09 -5.92231E-09 -5.78989E-09 -5.65683E-09 -5.52302E-09 -5.38827E-09 -5.25239E-09
  -5.11508E-09 -4.97591E-09 -4.83431E-09 -4.68945E-09 -4.53987E-09 -4.38317E-09 -4.21474E-09 -4.02465E-09 -3.78672E-09 -3.41023E-09
  -2.99831E-09 -3.00604E-09 -2.75109E-09 -2.24532E-09 -2.07206E-09 -2.02255E-09 -1.92043E-09 -1.77765E-09 -1.61280E-09 -1.49848E-09
  -1.72617E-09 -2.11606E-09 -1.82050E-09 -1.81630E-09 -2.20937E-09 -2.23096E-09 -2.17045E-09 -2.08605E-09 -1.99322E-09 -1.89754E-09
  -1.80142E-09 -1.70603E-09 -1.61205E-09 -1.51985E-09 -1.42972E-09 -1.34181E-09 -1.25626E-09 -1.17319E-09 -1.09269E-09 -1.01480E-09
  -9.39654E-10 -8.67301E-10 -7.97832E-10 -7.31283E-10 -6.67719E-10 -6.07269E-10 -5.49916E-10 -4.95726E-10 -4.44662E-10 -3.96682E-10
  -3.51724E-10 -3.09754E-10 -2.70724E-10 -2.34572E-10 -2.01267E-10 -1.70751E-10 -1.42980E-10 -1.17894E-10 -9.54469E-11 -7.55839E-11
  -5.82575E-11 -4.33921E-11 -3.09414E-11 -2.08312E-11 -1.29879E-11 -7.33797E-12 -3.78566E-12 -2.20695E-12 -2.46652E-12 -4.34142E-12
  -7.57335E-12 -1.16453E-11 -1.57205E-11 -1.80321E-11 -1.41716E-11  1.06316E-11  1.32924E-10  3.99667E-10  3.67033E-10  3.05571E-10
   3.08100E-10  3.49988E-10  3.45557E-10  3.12168E-10  2.56696E-10  2.52535E-10  3.00862E-10  1.78853E-10 -2.96357E-10 -4.31792E-10
  -5.01152E-10 -5.54500E-10 -6.02598E-10 -6.48803E-10 -6.94423E-10 -7.40037E-10 -7.85915E-10 -8.32185E-10 -8.78892E-10 -9.26048E-10
  -9.73632E-10 -1.02162E-09 -1.06995E-09 -1.11860E-09 -1.16750E-09 -1.21660E-09 -1.26585E-09 -1.31517E-09 -1.36452E-09 -1.41383E-09
  -1.46305E-09 -1.51209E-09 -1.56092E-09 -1.60945E-09 -1.65764E-09 -1.70541E-09 -1.75271E-09 -1.79946E-09 -1.84562E-09 -1.89110E-09
  -1.93586E-09 -1.97983E-09 -2.02293E-09 -2.06513E-09 -2.10633E-09 -2.14650E-09 -2.18555E-09 -2.22344E-09 -2.26009E-09 -2.29544E-09
  -2.32944E-09 -2.36201E-09 -2.39310E-09 -2.42265E-09 -2.45058E-09 -2.47685E-09 -2.50138E-09 -2.52413E-09 -2.54508E-09 -2.56427E-09
  -2.58171E-09 -2.59744E-09 -2.61148E-09 -2.62384E-09 -2.63457E-09 -2.64367E-09 -2.65118E-09 -2.65711E-09 -2.66151E-09 -2.66438E-09
  -2.66576E-09 -2.66566E-09 -2.66412E-09 -2.66117E-09 -2.65681E-09 -2.65109E-09 -2.64402E-09 -2.63563E-09 -2.62594E-09 -2.61499E-09
  -2.60279E-09 -2.58937E-09 -2.57475E-09 -2.55897E-09 -2.54204E-09 -2.52400E-09 -2.50486E-09 -2.48465E-09 -2.46340E-09 -2.44114E-09
  -2.41788E-09 -2.39365E-09 -2.36849E-09 -2.34240E-09 -2.31543E-09 -2.28759E-09 -2.25890E-09 -2.22941E-09 -2.19912E-09 -2.16807E-09
  -2.13628E-09 -2.10377E-09 -2.07058E-09 -2.03670E-09 -2.00216E-09 -1.96695E-09 -1.93107E-09 -1.89453E-09 -1.85733E-09 -1.81948E-09
  -1.78098E-09 -1.74182E-09 -1.70202E-09 -1.66159E-09 -1.62051E-09 -1.57880E-09 -1.53646E-09 -1.49349E-09 -1.44990E-09 -1.40569E-09
  -1.36087E-09 -1.31543E-09 -1.26938E-09 -1.22274E-09 -1.17549E-09 -1.12764E-09 -1.07920E-09 -1.03018E-09 -9.80571E-10 -9.30381E-10
  -8.79614E-10 -8.28275E-10 -7.76366E-10 -7.23893E-10 -6.70861E-10 -6.17276E-10 -5.63132E-10 -5.08448E-10 -4.53212E-10 -3.97448E-10
  -3.41144E-10 -2.84306E-10 -2.26940E-10 -1.69067E-10 -1.10666E-10 -5.17476E-11  7.66893E-12  6.76082E-11  1.28028E-10  1.88923E-10
   2.50268E-10  3.12046E-10  3.74236E-10  4.36816E-10  4.99760E-10  5.63055E-10  6.26674E-10  6.90600E-10  7.54809E-10  8.19283E-10
   8.84000E-10  9.48941E-10  1.01408E-09  1.07940E-09  1.14489E-09  1.21051E-09  1.27625E-09  1.34210E-09  1.40802E-09  1.47400E-09
   1.54003E-09  1.60607E-09  1.67211E-09  1.73814E-09  1.80412E-09  1.87005E-09  1.93589E-09  2.00164E-09  2.06727E-09  2.13277E-09
   2.19811E-09  2.26327E-09  2.32824E-09  2.39300E-09  2.45752E-09  2.52180E-09  2.58581E-09  2.64953E-09  2.71295E-09  2.77604E-09
   2.83879E-09  2.90118E-09  2.96320E-09
 Asp      Conc. = 4.82E-09
  -1.14197E-08 -1.25162E-08 -1.28611E-08 -1.32566E-08 -1.38304E-08 -1.38272E-08 -1.47585E-08 -1.49048E-08 -1.48251E-08 -1.46881E-08
  -1.45358E-08 -1.43800E-08 -1.42171E-08 -1.40463E-08 -1.38863E-08 -1.37294E-08 -1.35737E-08 -1.34185E-08 -1.32632E-08 -1.31074E-08
  -1.29504E-08 -1.27917E-08 -1.26308E-08 -1.24669E-08 -1.22992E-08 -1.21269E-08 -1.19488E-08 -1.17635E-08 -1.15691E-08 -1.13632E-08
  -1.11421E-08 -1.09007E-08 -1.06305E-08 -1.03168E-08 -9.93022E-09 -9.40818E-09 -8.93263E-09 -8.59597E-09 -8.43264E-09 -8.29689E-09
  -7.92321E-09 -7.26089E-09 -6.03637E-09 -5.45961E-09 -3.82820E-09 -4.04457E-09 -4.70200E-09 -4.54587E-09 -3.69539E-09 -3.87286E-09
  -3.76578E-09 -3.32383E-09 -3.42760E-09 -4.49776E-09 -4.64147E-09 -7.28537E-09 -7.63446E-09 -6.95630E-09 -7.05512E-09 -8.10436E-09
  -8.05324E-09 -8.12490E-09 -8.59352E-09 -8.27301E-09 -7.71962E-09 -8.00198E-09 -8.20294E-09 -8.21593E-09 -8.15746E-09 -8.06589E-09
  -7.95663E-09 -7.83706E-09 -7.71108E-09 -7.58103E-09 -7.44827E-09 -7.31374E-09 -7.17802E-09 -7.04154E-09 -6.90455E-09 -6.76726E-09
  -6.62984E-09 -6.49238E-09 -6.35496E-09 -6.21766E-09 -6.08047E-09 -5.94347E-09 -5.80669E-09 -5.67015E-09 -5.53383E-09 -5.39778E-09
  -5.26201E-09 -5.12650E-09 -4.99129E-09 -4.85648E-09 -4.72208E-09 -4.58818E-09 -4.45483E-09 -4.32210E-09 -4.19003E-09 -4.05869E-09
  -3.92812E-09 -3.79842E-09 -3.66963E-09 -3.54179E-09 -3.41498E-09 -3.28926E-09 -3.16469E-09 -3.04134E-09 -2.91926E-09 -2.79851E-09
  -2.67915E-09 -2.56125E-09 -2.44490E-09 -2.33011E-09 -2.21697E-09 -2.10554E-09 -1.99592E-09 -1.88812E-09 -1.78221E-09 -1.67827E-09
  -1.57636E-09 -1.47653E-09 -1.37887E-09 -1.28340E-09 -1.19025E-09 -1.09942E-09 -1.01100E-09 -9.25055E-10 -8.41637E-10 -7.60780E-10
  -6.82592E-10 -6.07108E-10 -5.34409E-10 -4.64523E-10 -3.97504E-10 -3.33471E-10 -2.72393E-10 -2.14325E-10 -1.59212E-10 -1.06994E-10
  -5.75916E-11 -1.09434E-11  3.30285E-11  7.44167E-11  1.13295E-10  1.49771E-10  1.83945E-10  2.15949E-10  2.45915E-10  2.74005E-10
   3.00401E-10  3.25347E-10  3.49104E-10  3.72027E-10  3.94562E-10  4.17285E-10  4.40992E-10  4.66804E-10  4.96332E-10  5.32083E-10
   5.78051E-10  6.41299E-10  7.35301E-10  8.89690E-10  1.18379E-09  1.90722E-09  4.55738E-09  6.60563E-09  6.26729E-09  6.05007E-09
   6.58324E-09  7.17606E-09  7.32155E-09  7.10666E-09  6.94220E-09  7.52033E-09  8.08023E-09  5.05485E-09  1.28415E-09  3.84811E-10
   4.55451E-11 -1.32105E-10 -2.46713E-10 -3.31929E-10 -4.01822E-10 -4.63126E-10 -5.19386E-10 -5.72595E-10 -6.23934E-10 -6.74125E-10
  -7.23619E-10 -7.72700E-10 -8.21544E-10 -8.70261E-10 -9.18906E-10 -9.67510E-10 -1.01608E-09 -1.06459E-09 -1.11303E-09 -1.16135E-09
  -1.20952E-09 -1.25749E-09 -1.30520E-09 -1.35262E-09 -1.39968E-09 -1.44632E-09 -1.49249E-09 -1.53813E-09 -1.58317E-09 -1.62756E-09
  -1.67123E-09 -1.71412E-09 -1.75618E-09 -1.79733E-09 -1.83752E-09 -1.87668E-09 -1.91476E-09 -1.95168E-09 -1.98738E-09 -2.02181E-09
  -2.05490E-09 -2.08658E-09 -2.11680E-09 -2.14549E-09 -2.17259E-09 -2.19803E-09 -2.22176E-09 -2.24373E-09 -2.26392E-09 -2.28235E-09
  -2.29907E-09 -2.31408E-09 -2.32741E-09 -2.33909E-09 -2.34914E-09 -2.35759E-09 -2.36445E-09 -2.36977E-09 -2.37355E-09 -2.37582E-09
