 LCModel (Version 6.3-1R) Copyright: S.W. Provencher.          Ref.: Magn. Reson. Med. 30:672-679 (1993).                
 onepulse 28x16_ftSpec_smooth_lcm
 26 lines in following concentration table = NCONC+1
    Conc.  %SD   /Cr    Metabolite                                         
 2.91E-11 999%   0.000 Ala                                                 
    0.000 999%   0.000 Asp                                                 
    0.000 999%   0.000 Cr                                                  
 4.59E-11 999%   0.000 GABA                                                
 1.13E-09 111%   0.000 Glc                                                 
 1.29E-09  63%   0.000 Gln                                                 
    0.000 999%   0.000 Glu                                                 
 1.84E-09 117%   0.000 Glyc                                                
    0.000 999%   0.000 GPC                                                 
 1.09E-09  51%   0.000 GSH                                                 
 1.46E-10 999%   0.000 Ins                                                 
    0.000 999%   0.000 Lac                                                 
 5.70E-10  46%   0.000 NAAG                                                
    0.000 999%   0.000 NAA                                                 
    0.000 999%   0.000 PCh                                                 
    0.000 999%   0.000 PCr                                                 
 2.22E-09  44%   0.000 PE                                                  
 1.95E-10 165%   0.000 Scyllo                                              
 2.67E-09  55%   0.000 Ser                                                 
    0.000 999%   0.000 Tau                                                 
    0.000 999%   0.000 GPC+PCh                                             
 5.70E-10  46%   0.000 NAA+NAAG                                            
 1.98E-09  38%   0.000 Ins+Glyc                                            
    0.000 999%   0.000 Cr+PCr                                              
 1.29E-09  63%   0.000 Glu+Gln                                             
   6 lines in following misc. output table
  FWHM = 0.123 ppm    S/N =   2                                            
  Data shift = 0.447 ppm                                                   
  Ph:  -8 deg     -38.8 deg/ppm                                            
  alphaB,S = 9.6E-01,   1.3E+01                                            
    8 spline knots.   Ns = 5(1)                                            
  (12) 4 infls.   (11) 3 extrs.                                            
  363 points on ppm-axis = NY
      4.250000     4.238821     4.227641     4.216462     4.205282     4.194103     4.182923     4.171744     4.160564     4.149385
      4.138206     4.127026     4.115847     4.104667     4.093488     4.082308     4.071129     4.059949     4.048770     4.037591
      4.026411     4.015232     4.004052     3.992873     3.981693     3.970514     3.959334     3.948155     3.936975     3.925796
      3.914617     3.903437     3.892258     3.881078     3.869899     3.858719     3.847540     3.836360     3.825181     3.814002
      3.802822     3.791643     3.780463     3.769284     3.758104     3.746925     3.735745     3.724566     3.713387     3.702207
      3.691028     3.679848     3.668669     3.657489     3.646310     3.635130     3.623951     3.612772     3.601592     3.590413
      3.579233     3.568054     3.556874     3.545695     3.534515     3.523336     3.512156     3.500977     3.489798     3.478618
      3.467439     3.456259     3.445080     3.433900     3.422721     3.411541     3.400362     3.389183     3.378003     3.366824
      3.355644     3.344465     3.333285     3.322106     3.310926     3.299747     3.288568     3.277388     3.266209     3.255029
      3.243850     3.232670     3.221491     3.210311     3.199132     3.187953     3.176773     3.165594     3.154414     3.143235
      3.132055     3.120876     3.109696     3.098517     3.087337     3.076158     3.064979     3.053799     3.042620     3.031440
      3.020261     3.009081     2.997902     2.986722     2.975543     2.964364     2.953184     2.942005     2.930825     2.919646
      2.908466     2.897287     2.886107     2.874928     2.863749     2.852569     2.841390     2.830210     2.819031     2.807851
      2.796672     2.785492     2.774313     2.763134     2.751954     2.740775     2.729595     2.718416     2.707236     2.696057
      2.684877     2.673698     2.662519     2.651339     2.640160     2.628980     2.617801     2.606621     2.595442     2.584262
      2.573083     2.561903     2.550724     2.539545     2.528365     2.517186     2.506006     2.494827     2.483647     2.472468
      2.461288     2.450109     2.438930     2.427750     2.416571     2.405391     2.394212     2.383032     2.371853     2.360673
      2.349494     2.338315     2.327135     2.315956     2.304776     2.293597     2.282417     2.271238     2.260058     2.248879
      2.237700     2.226520     2.215341     2.204161     2.192982     2.181802     2.170623     2.159443     2.148264     2.137084
      2.125905     2.114726     2.103546     2.092367     2.081187     2.070008     2.058828     2.047649     2.036469     2.025290
      2.014111     2.002931     1.991752     1.980572     1.969393     1.958213     1.947034     1.935854     1.924675     1.913496
      1.902316     1.891137     1.879957     1.868778     1.857598     1.846419     1.835239     1.824060     1.812881     1.801701
      1.790522     1.779342     1.768163     1.756983     1.745804     1.734624     1.723445     1.712265     1.701086     1.689907
      1.678727     1.667548     1.656368     1.645189     1.634009     1.622830     1.611650     1.600471     1.589292     1.578112
      1.566933     1.555753     1.544574     1.533394     1.522215     1.511035     1.499856     1.488677     1.477497     1.466318
      1.455138     1.443959     1.432779     1.421600     1.410420     1.399241     1.388062     1.376882     1.365703     1.354523
      1.343344     1.332164     1.320985     1.309805     1.298626     1.287446     1.276267     1.265088     1.253908     1.242729
      1.231549     1.220370     1.209190     1.198011     1.186831     1.175652     1.164473     1.153293     1.142114     1.130934
      1.119755     1.108575     1.097396     1.086216     1.075037     1.063858     1.052678     1.041499     1.030319     1.019140
      1.007960     0.996781     0.985601     0.974422     0.963243     0.952063     0.940884     0.929704     0.918525     0.907345
      0.896166     0.884986     0.873807     0.862628     0.851448     0.840269     0.829089     0.817910     0.806730     0.795551
      0.784371     0.773192     0.762012     0.750833     0.739654     0.728474     0.717295     0.706115     0.694936     0.683756
      0.672577     0.661397     0.650218     0.639039     0.627859     0.616680     0.605500     0.594321     0.583141     0.571962
      0.560782     0.549603     0.538424     0.527244     0.516065     0.504885     0.493706     0.482526     0.471347     0.460167
      0.448988     0.437809     0.426629     0.415450     0.404270     0.393091     0.381911     0.370732     0.359552     0.348373
      0.337193     0.326014     0.314835     0.303655     0.292476     0.281296     0.270117     0.258937     0.247758     0.236578
      0.225399     0.214220     0.203040
 NY phased data points follow
   9.65314E-09  1.05044E-08  9.04674E-09  1.00636E-08  9.01391E-09  1.05862E-08  9.57188E-09  1.12560E-08  1.02889E-08  1.10366E-08
   9.85957E-09  1.13252E-08  1.03207E-08  1.05175E-08  9.50735E-09  9.79333E-09  8.97261E-09  1.07874E-08  1.00836E-08  1.06662E-08
   9.13279E-09  1.03395E-08  9.11231E-09  1.04624E-08  1.08791E-08  1.27204E-08  1.24566E-08  1.33869E-08  1.23228E-08  1.23758E-08
   1.09520E-08  1.19492E-08  1.06292E-08  1.09629E-08  1.00696E-08  1.06209E-08  9.33037E-09  9.61946E-09  8.78392E-09  9.16265E-09
   8.67242E-09  8.61105E-09  7.51278E-09  7.95092E-09  6.85700E-09  7.81795E-09  7.01906E-09  6.72475E-09  6.07083E-09  5.97766E-09
   5.50731E-09  5.58582E-09  4.44237E-09  5.33087E-09  5.31989E-09  7.36086E-09  9.19774E-09  1.00840E-08  1.04924E-08  1.04043E-08
   9.59691E-09  8.95375E-09  8.51740E-09  8.20443E-09  7.10448E-09  6.59949E-09  5.39785E-09  5.85016E-09  3.66956E-09  3.51539E-09
   4.02147E-09  6.42477E-09  8.20509E-09  1.08709E-08  1.15050E-08  1.23963E-08  1.25011E-08  1.32004E-08  1.23784E-08  1.25144E-08
   1.20403E-08  1.23079E-08  1.25058E-08  1.25633E-08  1.17639E-08  1.22844E-08  1.11150E-08  1.15855E-08  1.02077E-08  1.07085E-08
   1.04463E-08  1.03075E-08  9.61747E-09  1.01707E-08  9.33800E-09  1.03854E-08  9.53963E-09  9.23986E-09  9.85251E-09  9.43746E-09
   8.57712E-09  8.53529E-09  7.80800E-09  7.08748E-09  7.20380E-09  7.14681E-09  6.99915E-09  7.06738E-09  6.82044E-09  6.62423E-09
   6.90548E-09  7.44485E-09  7.26956E-09  7.49800E-09  7.15826E-09  7.42911E-09  7.10289E-09  5.92868E-09  5.35141E-09  5.14058E-09
   5.26803E-09  5.92957E-09  5.03250E-09  5.05305E-09  4.82299E-09  5.27570E-09  4.33493E-09  4.63477E-09  4.29648E-09  4.45468E-09
   3.33546E-09  4.53510E-09  4.25048E-09  5.16813E-09  5.00475E-09  5.50574E-09  5.40446E-09  5.89076E-09  6.04695E-09  7.28309E-09
   6.78652E-09  7.34860E-09  7.40493E-09  8.26190E-09  7.26582E-09  7.93183E-09  7.09228E-09  7.69178E-09  7.28957E-09  8.49986E-09
   7.47323E-09  8.01826E-09  7.21261E-09  8.04525E-09  7.36062E-09  7.57623E-09  7.13025E-09  6.73370E-09  6.42819E-09  6.52467E-09
   6.16132E-09  7.16620E-09  9.96237E-09  1.27904E-08  1.66045E-08  1.84277E-08  1.90047E-08  1.97101E-08  1.99336E-08  2.02249E-08
   1.98297E-08  2.05853E-08  2.02509E-08  2.04515E-08  1.99680E-08  2.04444E-08  1.99550E-08  1.98750E-08  1.91492E-08  1.92908E-08
   1.85202E-08  1.76697E-08  1.71069E-08  1.59281E-08  1.42717E-08  1.32758E-08  1.00647E-08  8.89583E-09  6.86176E-09  3.90921E-09
   9.92809E-10 -1.28584E-09 -4.09908E-09 -6.29433E-09 -8.34370E-09 -9.87410E-09 -1.22057E-08 -1.24805E-08 -1.33848E-08 -1.31442E-08
  -1.27186E-08 -1.20542E-08 -1.10233E-08 -1.00860E-08 -8.91782E-09 -6.90969E-09 -6.07873E-09 -4.93498E-09 -4.67019E-09 -2.90654E-09
  -3.11857E-09 -2.24611E-09 -2.65666E-09 -2.91940E-09 -2.41798E-09 -2.32762E-09 -2.30419E-09 -2.13823E-09 -1.83897E-09 -1.69237E-09
  -1.95343E-09 -1.79580E-09 -1.34560E-09 -1.43991E-09 -1.41338E-09 -1.54736E-09 -1.55039E-09 -2.09698E-09 -2.01152E-09 -1.49784E-09
  -1.20451E-09 -5.97393E-10 -1.24773E-09 -1.27640E-09 -1.16409E-09 -1.51168E-09 -1.26426E-09 -1.01443E-09 -2.17641E-09 -1.24178E-09
  -2.03277E-09 -1.13529E-09 -1.48708E-09 -1.64576E-09 -9.24811E-10 -3.19245E-10 -4.28960E-10 -9.79194E-10 -4.53203E-10 -2.84001E-10
  -6.54359E-10 -9.74034E-10 -1.05010E-09 -1.18350E-09 -1.14543E-09 -1.48943E-09 -1.63718E-09 -1.97742E-09 -2.01492E-09 -1.70896E-09
  -2.05281E-09 -1.61247E-09 -1.75794E-09 -1.58561E-09 -1.32328E-09 -1.50914E-09 -8.50434E-10 -7.65058E-10 -9.73394E-10 -2.82584E-10
  -3.00808E-10  1.73081E-10 -1.04721E-10 -2.96755E-10 -1.94377E-10 -6.82455E-10 -8.16200E-10 -9.69917E-10 -5.87419E-10 -7.10172E-10
  -1.20234E-09 -8.49409E-10 -8.56842E-10 -9.81762E-10 -8.98764E-10 -1.20524E-09 -1.18960E-09 -1.06266E-09 -1.26741E-09 -1.37916E-09
  -1.47823E-09 -1.00115E-09 -1.37153E-09 -1.53472E-09 -1.35664E-09 -2.02741E-09 -1.80070E-09 -1.85918E-09 -1.69379E-09 -1.77287E-09
  -1.46099E-09 -1.85209E-09 -1.83606E-09 -1.71131E-09 -1.98129E-09 -1.98091E-09 -1.78570E-09 -1.99029E-09 -1.74918E-09 -2.08746E-09
  -1.57115E-09 -2.29451E-09 -2.23012E-09 -2.27542E-09 -1.95195E-09 -2.27546E-09 -2.20273E-09 -2.12448E-09 -2.01159E-09 -2.50769E-09
  -1.94003E-09 -2.15711E-09 -2.20968E-09 -2.14269E-09 -2.32518E-09 -2.33097E-09 -1.99487E-09 -2.51016E-09 -2.51732E-09 -2.48300E-09
  -2.14424E-09 -2.79891E-09 -2.17411E-09 -2.54880E-09 -2.63948E-09 -3.19946E-09 -2.40195E-09 -2.49789E-09 -2.44218E-09 -2.89369E-09
  -2.15383E-09 -2.50501E-09 -2.19341E-09 -2.52659E-09 -2.71463E-09 -3.55566E-09 -2.88156E-09 -2.74375E-09 -2.19640E-09 -3.19024E-09
  -2.23054E-09 -3.35771E-09 -3.03001E-09 -3.36711E-09 -3.48639E-09 -2.74997E-09 -3.02462E-09 -2.84856E-09 -2.60392E-09 -2.83419E-09
  -2.91644E-09 -3.51217E-09 -3.21472E-09
 NY points of the fit to the data follow
   1.10738E-08  1.16724E-08  1.05908E-08  1.00787E-08  1.00642E-08  1.03085E-08  9.61084E-09  8.65287E-09  9.89172E-09  1.14718E-08
   1.06097E-08  9.88622E-09  9.11518E-09  8.65195E-09  8.91373E-09  9.22552E-09  9.47837E-09  1.04628E-08  1.24586E-08  1.19610E-08
   1.00454E-08  9.69718E-09  9.75457E-09  1.03942E-08  1.10281E-08  1.12822E-08  1.17485E-08  1.22899E-08  1.24810E-08  1.18976E-08
   1.18000E-08  1.17067E-08  1.11284E-08  1.08013E-08  1.07925E-08  1.02922E-08  9.80805E-09  9.51764E-09  9.24813E-09  8.96699E-09
   8.76063E-09  8.65731E-09  8.71066E-09  8.85408E-09  8.72083E-09  8.01637E-09  7.84247E-09  7.30711E-09  6.68796E-09  6.35441E-09
   6.29606E-09  6.37446E-09  6.15583E-09  6.19189E-09  6.85358E-09  7.30599E-09  7.44795E-09  8.06931E-09  8.73576E-09  8.96905E-09
   9.07579E-09  9.08294E-09  9.10242E-09  9.33276E-09  9.05272E-09  8.42447E-09  8.27136E-09  8.16310E-09  7.46751E-09  7.12728E-09
   7.33536E-09  7.54967E-09  7.91352E-09  8.15142E-09  8.50539E-09  9.34780E-09  1.11644E-08  1.23167E-08  1.28958E-08  1.33520E-08
   1.36214E-08  1.36900E-08  1.35528E-08  1.33128E-08  1.34812E-08  1.35519E-08  1.28884E-08  1.12761E-08  1.04034E-08  9.86902E-09
   9.44055E-09  9.10893E-09  8.86437E-09  8.66743E-09  8.46941E-09  8.29567E-09  8.15088E-09  8.02489E-09  7.92003E-09  7.80394E-09
   7.72979E-09  7.66061E-09  7.58595E-09  7.54194E-09  7.49746E-09  7.44591E-09  7.39568E-09  7.35237E-09  7.31594E-09  7.28111E-09
   7.23270E-09  7.16567E-09  7.13613E-09  7.10423E-09  7.03945E-09  6.99222E-09  6.95293E-09  6.91721E-09  6.88344E-09  6.85081E-09
   6.81883E-09  6.78718E-09  6.75560E-09  6.72389E-09  6.69188E-09  6.65943E-09  6.62639E-09  6.59267E-09  6.55814E-09  6.52270E-09
   6.48628E-09  6.44876E-09  6.41009E-09  6.37018E-09  6.32896E-09  6.28636E-09  6.24232E-09  6.19678E-09  6.14969E-09  6.10098E-09
   6.05063E-09  5.99858E-09  5.94479E-09  5.88925E-09  5.83192E-09  5.77280E-09  5.71190E-09  5.64931E-09  5.58516E-09  5.51957E-09
   5.45271E-09  5.38481E-09  5.31613E-09  5.24702E-09  5.17795E-09  5.10956E-09  5.04278E-09  4.97891E-09  4.92001E-09  4.86926E-09
   4.83207E-09  4.81816E-09  4.84665E-09  4.96007E-09  5.27168E-09  6.18116E-09  9.89231E-09  1.95329E-08  2.24096E-08  2.16621E-08
   2.08796E-08  2.06861E-08  2.05015E-08  2.03030E-08  2.04651E-08  2.14632E-08  2.17308E-08  1.71308E-08  7.62093E-09  5.16149E-09
   4.22892E-09  3.72004E-09  3.37982E-09  3.12248E-09  2.91171E-09  2.72963E-09  2.56651E-09  2.41660E-09  2.27628E-09  2.14323E-09
   2.01587E-09  1.89306E-09  1.77404E-09  1.65824E-09  1.54524E-09  1.43474E-09  1.32649E-09  1.22035E-09  1.11620E-09  1.01392E-09
   9.13469E-10  8.14805E-10  7.17904E-10  6.22751E-10  5.29342E-10  4.37696E-10  3.47819E-10  2.59730E-10  1.73448E-10  8.90305E-11
   6.46684E-12 -7.41782E-11 -1.52878E-10 -2.29599E-10 -3.04310E-10 -3.76950E-10 -4.47490E-10 -5.15904E-10 -5.82129E-10 -6.46209E-10
  -7.08171E-10 -7.68081E-10 -8.25958E-10 -8.81864E-10 -9.35820E-10 -9.87895E-10 -1.03811E-09 -1.08651E-09 -1.13314E-09 -1.17804E-09
  -1.22125E-09 -1.26281E-09 -1.30276E-09 -1.34114E-09 -1.37800E-09 -1.41336E-09 -1.44728E-09 -1.47977E-09 -1.51090E-09 -1.54070E-09
  -1.56919E-09 -1.59644E-09 -1.62247E-09 -1.64731E-09 -1.67101E-09 -1.69360E-09 -1.71513E-09 -1.73563E-09 -1.75514E-09 -1.77368E-09
  -1.79131E-09 -1.80805E-09 -1.82395E-09 -1.83902E-09 -1.85331E-09 -1.86688E-09 -1.87972E-09 -1.89189E-09 -1.90342E-09 -1.91433E-09
  -1.92467E-09 -1.93447E-09 -1.94376E-09 -1.95258E-09 -1.96094E-09 -1.96888E-09 -1.97645E-09 -1.98364E-09 -1.99052E-09 -1.99710E-09
  -2.00341E-09 -2.00947E-09 -2.01533E-09 -2.02099E-09 -2.02650E-09 -2.03187E-09 -2.03713E-09 -2.04232E-09 -2.04743E-09 -2.05251E-09
  -2.05758E-09 -2.06266E-09 -2.06778E-09 -2.07294E-09 -2.07818E-09 -2.08351E-09 -2.08896E-09 -2.09452E-09 -2.10024E-09 -2.10613E-09
  -2.11219E-09 -2.11845E-09 -2.12487E-09 -2.13145E-09 -2.13816E-09 -2.14500E-09 -2.15193E-09 -2.15896E-09 -2.16606E-09 -2.17321E-09
  -2.18041E-09 -2.18763E-09 -2.19486E-09 -2.20209E-09 -2.20929E-09 -2.21646E-09 -2.22358E-09 -2.23064E-09 -2.23761E-09 -2.24449E-09
  -2.25127E-09 -2.25792E-09 -2.26443E-09 -2.27079E-09 -2.27700E-09 -2.28302E-09 -2.28885E-09 -2.29448E-09 -2.29989E-09 -2.30508E-09
  -2.31002E-09 -2.31471E-09 -2.31913E-09 -2.32328E-09 -2.32713E-09 -2.33069E-09 -2.33393E-09 -2.33685E-09 -2.33944E-09 -2.34168E-09
  -2.34357E-09 -2.34509E-09 -2.34624E-09 -2.34700E-09 -2.34737E-09 -2.34734E-09 -2.34690E-09 -2.34603E-09 -2.34474E-09 -2.34301E-09
  -2.34084E-09 -2.33821E-09 -2.33512E-09 -2.33157E-09 -2.32754E-09 -2.32304E-09 -2.31804E-09 -2.31256E-09 -2.30658E-09 -2.30009E-09
  -2.29309E-09 -2.28559E-09 -2.27756E-09 -2.26901E-09 -2.25993E-09 -2.25033E-09 -2.24019E-09 -2.22951E-09 -2.21829E-09 -2.20654E-09
  -2.19423E-09 -2.18138E-09 -2.16799E-09
 NY background values follow
     7.527E-10    7.786E-10    8.049E-10    8.315E-10    8.586E-10    8.860E-10    9.138E-10    9.419E-10    9.704E-10    9.993E-10
     1.029E-09    1.058E-09    1.088E-09    1.118E-09    1.149E-09    1.180E-09    1.211E-09    1.243E-09    1.275E-09    1.307E-09
     1.340E-09    1.373E-09    1.406E-09    1.440E-09    1.473E-09    1.508E-09    1.542E-09    1.577E-09    1.612E-09    1.648E-09
     1.683E-09    1.719E-09    1.756E-09    1.792E-09    1.829E-09    1.866E-09    1.904E-09    1.941E-09    1.979E-09    2.017E-09
     2.056E-09    2.095E-09    2.134E-09    2.173E-09    2.212E-09    2.252E-09    2.292E-09    2.332E-09    2.372E-09    2.413E-09
     2.454E-09    2.495E-09    2.536E-09    2.578E-09    2.620E-09    2.661E-09    2.704E-09    2.746E-09    2.788E-09    2.831E-09
     2.874E-09    2.917E-09    2.960E-09    3.004E-09    3.047E-09    3.091E-09    3.135E-09    3.179E-09    3.223E-09    3.268E-09
     3.312E-09    3.357E-09    3.402E-09    3.447E-09    3.492E-09    3.537E-09    3.582E-09    3.628E-09    3.673E-09    3.718E-09
     3.763E-09    3.808E-09    3.853E-09    3.898E-09    3.942E-09    3.987E-09    4.031E-09    4.075E-09    4.118E-09    4.161E-09
     4.204E-09    4.246E-09    4.288E-09    4.329E-09    4.370E-09    4.410E-09    4.450E-09    4.489E-09    4.527E-09    4.565E-09
     4.601E-09    4.637E-09    4.672E-09    4.707E-09    4.740E-09    4.772E-09    4.804E-09    4.834E-09    4.863E-09    4.891E-09
     4.918E-09    4.944E-09    4.969E-09    4.992E-09    5.014E-09    5.035E-09    5.054E-09    5.072E-09    5.088E-09    5.103E-09
     5.116E-09    5.128E-09    5.138E-09    5.146E-09    5.153E-09    5.158E-09    5.161E-09    5.163E-09    5.162E-09    5.160E-09
     5.156E-09    5.149E-09    5.141E-09    5.131E-09    5.118E-09    5.104E-09    5.087E-09    5.068E-09    5.047E-09    5.024E-09
     4.998E-09    4.970E-09    4.940E-09    4.907E-09    4.872E-09    4.834E-09    4.794E-09    4.751E-09    4.706E-09    4.659E-09
     4.609E-09    4.557E-09    4.504E-09    4.447E-09    4.389E-09    4.329E-09    4.267E-09    4.203E-09    4.137E-09    4.070E-09
     4.001E-09    3.930E-09    3.858E-09    3.784E-09    3.708E-09    3.632E-09    3.554E-09    3.475E-09    3.394E-09    3.313E-09
     3.230E-09    3.146E-09    3.062E-09    2.977E-09    2.890E-09    2.804E-09    2.716E-09    2.628E-09    2.539E-09    2.450E-09
     2.361E-09    2.271E-09    2.181E-09    2.091E-09    2.000E-09    1.910E-09    1.820E-09    1.730E-09    1.639E-09    1.550E-09
     1.460E-09    1.371E-09    1.282E-09    1.194E-09    1.106E-09    1.019E-09    9.321E-10    8.463E-10    7.614E-10    6.773E-10
     5.942E-10    5.121E-10    4.310E-10    3.511E-10    2.723E-10    1.948E-10    1.187E-10    4.384E-11   -2.955E-11   -1.014E-10
    -1.718E-10   -2.406E-10   -3.077E-10   -3.730E-10   -4.367E-10   -4.984E-10   -5.583E-10   -6.163E-10   -6.723E-10   -7.264E-10
    -7.785E-10   -8.287E-10   -8.770E-10   -9.236E-10   -9.683E-10   -1.011E-09   -1.053E-09   -1.092E-09   -1.130E-09   -1.166E-09
    -1.201E-09   -1.234E-09   -1.266E-09   -1.297E-09   -1.325E-09   -1.353E-09   -1.379E-09   -1.404E-09   -1.427E-09   -1.450E-09
    -1.471E-09   -1.491E-09   -1.509E-09   -1.527E-09   -1.544E-09   -1.559E-09   -1.574E-09   -1.587E-09   -1.600E-09   -1.612E-09
    -1.623E-09   -1.633E-09   -1.642E-09   -1.651E-09   -1.659E-09   -1.666E-09   -1.673E-09   -1.679E-09   -1.684E-09   -1.689E-09
    -1.693E-09   -1.697E-09   -1.701E-09   -1.704E-09   -1.706E-09   -1.708E-09   -1.710E-09   -1.712E-09   -1.713E-09   -1.714E-09
    -1.715E-09   -1.716E-09   -1.716E-09   -1.717E-09   -1.717E-09   -1.717E-09   -1.717E-09   -1.717E-09   -1.717E-09   -1.717E-09
    -1.717E-09   -1.718E-09   -1.718E-09   -1.718E-09   -1.719E-09   -1.719E-09   -1.720E-09   -1.721E-09   -1.722E-09   -1.723E-09
    -1.725E-09   -1.726E-09   -1.728E-09   -1.730E-09   -1.733E-09   -1.735E-09   -1.738E-09   -1.740E-09   -1.743E-09   -1.746E-09
    -1.749E-09   -1.752E-09   -1.755E-09   -1.758E-09   -1.762E-09   -1.765E-09   -1.768E-09   -1.771E-09   -1.774E-09   -1.777E-09
    -1.780E-09   -1.783E-09   -1.786E-09   -1.788E-09   -1.791E-09   -1.793E-09   -1.795E-09   -1.797E-09   -1.799E-09   -1.801E-09
    -1.802E-09   -1.803E-09   -1.804E-09   -1.805E-09   -1.805E-09   -1.805E-09   -1.805E-09   -1.805E-09   -1.804E-09   -1.803E-09
    -1.802E-09   -1.800E-09   -1.798E-09   -1.796E-09   -1.793E-09   -1.790E-09   -1.786E-09   -1.782E-09   -1.778E-09   -1.773E-09
    -1.768E-09   -1.763E-09   -1.757E-09   -1.750E-09   -1.743E-09   -1.736E-09   -1.728E-09   -1.720E-09   -1.711E-09   -1.702E-09
    -1.692E-09   -1.682E-09   -1.671E-09   -1.660E-09   -1.648E-09   -1.636E-09   -1.624E-09   -1.610E-09   -1.597E-09   -1.582E-09
    -1.568E-09   -1.552E-09   -1.536E-09
 Ala      Conc. = 2.91E-11
   7.47829E-10  7.78772E-10  8.06284E-10  8.35683E-10  8.65165E-10  8.93982E-10  9.26300E-10  9.56426E-10  9.80130E-10  1.01177E-09
   1.04474E-09  1.06937E-09  1.09785E-09  1.12876E-09  1.15762E-09  1.18703E-09  1.21709E-09  1.24772E-09  1.27886E-09  1.31045E-09
   1.34247E-09  1.37489E-09  1.40769E-09  1.44086E-09  1.47439E-09  1.50826E-09  1.54247E-09  1.57701E-09  1.61187E-09  1.64704E-09
   1.68253E-09  1.71832E-09  1.75441E-09  1.79079E-09  1.82747E-09  1.86443E-09  1.90167E-09  1.93919E-09  1.97697E-09  2.01503E-09
   2.05335E-09  2.09194E-09  2.13077E-09  2.16986E-09  2.20920E-09  2.24878E-09  2.28860E-09  2.32866E-09  2.36895E-09  2.40947E-09
   2.45021E-09  2.49117E-09  2.53235E-09  2.57374E-09  2.61534E-09  2.65714E-09  2.69914E-09  2.74134E-09  2.78374E-09  2.82632E-09
   2.86908E-09  2.91202E-09  2.95514E-09  2.99844E-09  3.04189E-09  3.08552E-09  3.12930E-09  3.17323E-09  3.21732E-09  3.26155E-09
   3.30593E-09  3.35044E-09  3.39508E-09  3.43985E-09  3.48473E-09  3.52969E-09  3.57469E-09  3.61972E-09  3.66472E-09  3.70969E-09
   3.75457E-09  3.79935E-09  3.84398E-09  3.88842E-09  3.93265E-09  3.97663E-09  4.02032E-09  4.06369E-09  4.10669E-09  4.14928E-09
   4.19143E-09  4.23309E-09  4.27422E-09  4.31480E-09  4.35477E-09  4.39414E-09  4.43296E-09  4.47147E-09  4.51071E-09  4.55633E-09
   4.62942E-09  4.67358E-09  4.70342E-09  4.76898E-09  4.82534E-09  4.86595E-09  4.90095E-09  4.93663E-09  4.97470E-09  5.01017E-09
   5.02825E-09  5.02429E-09  5.05472E-09  5.07999E-09  5.06983E-09  5.07489E-09  5.08573E-09  5.09816E-09  5.11072E-09  5.12271E-09
   5.13377E-09  5.14369E-09  5.15229E-09  5.15946E-09  5.16511E-09  5.16917E-09  5.17155E-09  5.17222E-09  5.17111E-09  5.16817E-09
   5.16336E-09  5.15662E-09  5.14792E-09  5.13720E-09  5.12444E-09  5.10957E-09  5.09259E-09  5.07343E-09  5.05206E-09  5.02844E-09
   5.00254E-09  4.97432E-09  4.94374E-09  4.91077E-09  4.87537E-09  4.83751E-09  4.79718E-09  4.75442E-09  4.70929E-09  4.66184E-09
   4.61212E-09  4.56019E-09  4.50611E-09  4.44993E-09  4.39170E-09  4.33150E-09  4.26939E-09  4.20541E-09  4.13964E-09  4.07216E-09
   4.00301E-09  3.93231E-09  3.86015E-09  3.78670E-09  3.71229E-09  3.63790E-09  3.56855E-09  3.51580E-09  3.44386E-09  3.36055E-09
   3.27594E-09  3.19201E-09  3.10722E-09  3.02150E-09  2.93584E-09  2.85182E-09  2.76590E-09  2.66718E-09  2.55252E-09  2.45683E-09
   2.36511E-09  2.27424E-09  2.18355E-09  2.09290E-09  2.00226E-09  1.91165E-09  1.82110E-09  1.73070E-09  1.64045E-09  1.55044E-09
   1.46075E-09  1.37141E-09  1.28249E-09  1.19407E-09  1.10622E-09  1.01898E-09  9.32415E-10  8.46617E-10  7.61635E-10  6.77521E-10
   5.94350E-10  5.12183E-10  4.31083E-10  3.51110E-10  2.72322E-10  1.94792E-10  1.18571E-10  4.37163E-11 -2.97145E-11 -1.01638E-10
  -1.72036E-10 -2.40821E-10 -3.07944E-10 -3.73354E-10 -4.37005E-10 -4.98817E-10 -5.58750E-10 -6.16765E-10 -6.72789E-10 -7.26856E-10
  -7.78984E-10 -8.29229E-10 -8.77604E-10 -9.24163E-10 -9.68921E-10 -1.01194E-09 -1.05324E-09 -1.09285E-09 -1.13083E-09 -1.16719E-09
  -1.20198E-09 -1.23524E-09 -1.26700E-09 -1.29730E-09 -1.32617E-09 -1.35366E-09 -1.37979E-09 -1.40461E-09 -1.42815E-09 -1.45044E-09
  -1.47152E-09 -1.49145E-09 -1.51023E-09 -1.52792E-09 -1.54454E-09 -1.56014E-09 -1.57474E-09 -1.58839E-09 -1.60113E-09 -1.61297E-09
  -1.62397E-09 -1.63415E-09 -1.64356E-09 -1.65220E-09 -1.66013E-09 -1.66740E-09 -1.67401E-09 -1.68001E-09 -1.68543E-09 -1.69029E-09
  -1.69463E-09 -1.69851E-09 -1.70192E-09 -1.70492E-09 -1.70751E-09 -1.70974E-09 -1.71166E-09 -1.71325E-09 -1.71457E-09 -1.71566E-09
  -1.71652E-09 -1.71718E-09 -1.71769E-09 -1.71804E-09 -1.71830E-09 -1.71847E-09 -1.71857E-09 -1.71864E-09 -1.71869E-09 -1.71875E-09
  -1.71884E-09 -1.71899E-09 -1.71922E-09 -1.71953E-09 -1.71996E-09 -1.72053E-09 -1.72126E-09 -1.72214E-09 -1.72322E-09 -1.72451E-09
  -1.72602E-09 -1.72775E-09 -1.72969E-09 -1.73183E-09 -1.73413E-09 -1.73660E-09 -1.73921E-09 -1.74194E-09 -1.74478E-09 -1.74771E-09
  -1.75073E-09 -1.75380E-09 -1.75692E-09 -1.76006E-09 -1.76322E-09 -1.76638E-09 -1.76953E-09 -1.77264E-09 -1.77571E-09 -1.77871E-09
  -1.78164E-09 -1.78448E-09 -1.78722E-09 -1.78983E-09 -1.79232E-09 -1.79466E-09 -1.79684E-09 -1.79885E-09 -1.80067E-09 -1.80230E-09
  -1.80371E-09 -1.80490E-09 -1.80586E-09 -1.80656E-09 -1.80701E-09 -1.80718E-09 -1.80707E-09 -1.80667E-09 -1.80596E-09 -1.80494E-09
  -1.80359E-09 -1.80190E-09 -1.79987E-09 -1.79747E-09 -1.79472E-09 -1.79159E-09 -1.78807E-09 -1.78416E-09 -1.77985E-09 -1.77513E-09
  -1.76999E-09 -1.76442E-09 -1.75842E-09 -1.75198E-09 -1.74509E-09 -1.73775E-09 -1.72995E-09 -1.72168E-09 -1.71294E-09 -1.70372E-09
  -1.69401E-09 -1.68382E-09 -1.67313E-09 -1.66195E-09 -1.65026E-09 -1.63807E-09 -1.62537E-09 -1.61216E-09 -1.59843E-09 -1.58419E-09
  -1.56942E-09 -1.55413E-09 -1.53832E-09
 GABA     Conc. = 4.59E-11
   7.33196E-10  7.58775E-10  7.84718E-10  8.11022E-10  8.37682E-10  8.64694E-10  8.92052E-10  9.19753E-10  9.47789E-10  9.76158E-10
   1.00485E-09  1.03386E-09  1.06319E-09  1.09282E-09  1.12274E-09  1.15296E-09  1.18345E-09  1.21420E-09  1.24522E-09  1.27646E-09
   1.30791E-09  1.33957E-09  1.37139E-09  1.40336E-09  1.43545E-09  1.46762E-09  1.49988E-09  1.53246E-09  1.56662E-09  1.61169E-09
   1.65496E-09  1.68622E-09  1.73897E-09  1.79947E-09  1.84185E-09  1.88787E-09  1.94071E-09  1.99222E-09  2.04121E-09  2.08488E-09
   2.11899E-09  2.16258E-09  2.21163E-09  2.23489E-09  2.26062E-09  2.30141E-09  2.33260E-09  2.36168E-09  2.39447E-09  2.42944E-09
   2.46583E-09  2.50320E-09  2.54129E-09  2.57995E-09  2.61909E-09  2.65863E-09  2.69850E-09  2.73871E-09  2.77928E-09  2.82046E-09
   2.86308E-09  2.91149E-09  2.97182E-09  3.01691E-09  3.06338E-09  3.13471E-09  3.19056E-09  3.23445E-09  3.28709E-09  3.34101E-09
   3.39323E-09  3.44202E-09  3.48180E-09  3.51595E-09  3.56711E-09  3.60570E-09  3.62528E-09  3.66571E-09  3.70726E-09  3.74358E-09
   3.78977E-09  3.82883E-09  3.86815E-09  3.92653E-09  3.97595E-09  4.01715E-09  4.07165E-09  4.12415E-09  4.17155E-09  4.22203E-09
   4.26733E-09  4.30855E-09  4.35934E-09  4.40277E-09  4.43076E-09  4.47271E-09  4.51438E-09  4.54192E-09  4.57485E-09  4.60994E-09
   4.64144E-09  4.67306E-09  4.70478E-09  4.73628E-09  4.76732E-09  4.79774E-09  4.82742E-09  4.85627E-09  4.88422E-09  4.91120E-09
   4.93715E-09  4.96201E-09  4.98571E-09  5.00821E-09  5.02945E-09  5.04941E-09  5.06803E-09  5.08527E-09  5.10108E-09  5.11542E-09
   5.12823E-09  5.13950E-09  5.14916E-09  5.15718E-09  5.16353E-09  5.16815E-09  5.17100E-09  5.17206E-09  5.17128E-09  5.16861E-09
   5.16403E-09  5.15748E-09  5.14894E-09  5.13837E-09  5.12572E-09  5.11096E-09  5.09405E-09  5.07496E-09  5.05365E-09  5.03007E-09
   5.00421E-09  4.97602E-09  4.94546E-09  4.91251E-09  4.87713E-09  4.83927E-09  4.79895E-09  4.75619E-09  4.71106E-09  4.66360E-09
   4.61387E-09  4.56194E-09  4.50785E-09  4.45166E-09  4.39343E-09  4.33323E-09  4.27111E-09  4.20714E-09  4.14139E-09  4.07393E-09
   4.00484E-09  3.93422E-09  3.86220E-09  3.78901E-09  3.71513E-09  3.64205E-09  3.57752E-09  3.54013E-09  3.47322E-09  3.38894E-09
   3.30315E-09  3.21901E-09  3.13406E-09  3.04813E-09  2.96272E-09  2.88034E-09  2.79540E-09  2.69077E-09  2.56097E-09  2.46138E-09
   2.36833E-09  2.27681E-09  2.18574E-09  2.09484E-09  2.00402E-09  1.91326E-09  1.82261E-09  1.73210E-09  1.64178E-09  1.55170E-09
   1.46194E-09  1.37254E-09  1.28358E-09  1.19511E-09  1.10721E-09  1.01993E-09  9.33331E-10  8.47496E-10  7.62478E-10  6.78330E-10
   5.95126E-10  5.12927E-10  4.31797E-10  3.51794E-10  2.72977E-10  1.95419E-10  1.19170E-10  4.42894E-11 -2.91675E-11 -1.01116E-10
  -1.71539E-10 -2.40349E-10 -3.07496E-10 -3.72930E-10 -4.36603E-10 -4.98438E-10 -5.58394E-10 -6.16431E-10 -6.72477E-10 -7.26565E-10
  -7.78714E-10 -8.28980E-10 -8.77376E-10 -9.23955E-10 -9.68733E-10 -1.01177E-09 -1.05309E-09 -1.09272E-09 -1.13071E-09 -1.16709E-09
