 LCModel (Version 6.3-1R) Copyright: S.W. Provencher.          Ref.: Magn. Reson. Med. 30:672-679 (1993).                
 onepulse 28x15_ftSpec_smooth_lcm
 26 lines in following concentration table = NCONC+1
    Conc.  %SD   /Cr    Metabolite                                         
 1.66E-11 999%   0.000 Ala                                                 
 6.79E-10 162%   0.000 Asp                                                 
    0.000 999%   0.000 Cr                                                  
 3.86E-10 187%   0.000 GABA                                                
 2.18E-11 999%   0.000 Glc                                                 
 1.80E-09  44%   0.000 Gln                                                 
    0.000 999%   0.000 Glu                                                 
 1.84E-09 153%   0.000 Glyc                                                
    0.000 999%   0.000 GPC                                                 
 9.64E-10  76%   0.000 GSH                                                 
 4.16E-10 697%   0.000 Ins                                                 
    0.000 999%   0.000 Lac                                                 
 5.84E-10  73%   0.000 NAAG                                                
    0.000 999%   0.000 NAA                                                 
    0.000 999%   0.000 PCh                                                 
    0.000 999%   0.000 PCr                                                 
 2.34E-09 128%   0.000 PE                                                  
 3.27E-10 100%   0.000 Scyllo                                              
 8.59E-10 383%   0.000 Ser                                                 
 2.68E-10 999%   0.000 Tau                                                 
    0.000 999%   0.000 GPC+PCh                                             
 5.84E-10  69%   0.000 NAA+NAAG                                            
 2.26E-09  34%   0.000 Ins+Glyc                                            
    0.000 999%   0.000 Cr+PCr                                              
 1.80E-09  44%   0.000 Glu+Gln                                             
   6 lines in following misc. output table
  FWHM = 0.123 ppm    S/N =   3                                            
  Data shift = 0.436 ppm                                                   
  Ph: -14 deg     -39.2 deg/ppm                                            
  alphaB,S = 9.9E-01,   1.2E+01                                            
    8 spline knots.   Ns = 5(1)                                            
  (12) 6 infls.   (11) 3 extrs.                                            
  363 points on ppm-axis = NY
      4.250000     4.238821     4.227641     4.216462     4.205282     4.194103     4.182923     4.171744     4.160564     4.149385
      4.138206     4.127026     4.115847     4.104667     4.093488     4.082308     4.071129     4.059949     4.048770     4.037591
      4.026411     4.015232     4.004052     3.992873     3.981693     3.970514     3.959334     3.948155     3.936975     3.925796
      3.914617     3.903437     3.892258     3.881078     3.869899     3.858719     3.847540     3.836360     3.825181     3.814002
      3.802822     3.791643     3.780463     3.769284     3.758104     3.746925     3.735745     3.724566     3.713387     3.702207
      3.691028     3.679848     3.668669     3.657489     3.646310     3.635130     3.623951     3.612772     3.601592     3.590413
      3.579233     3.568054     3.556874     3.545695     3.534515     3.523336     3.512156     3.500977     3.489798     3.478618
      3.467439     3.456259     3.445080     3.433900     3.422721     3.411541     3.400362     3.389183     3.378003     3.366824
      3.355644     3.344465     3.333285     3.322106     3.310926     3.299747     3.288568     3.277388     3.266209     3.255029
      3.243850     3.232670     3.221491     3.210311     3.199132     3.187953     3.176773     3.165594     3.154414     3.143235
      3.132055     3.120876     3.109696     3.098517     3.087337     3.076158     3.064979     3.053799     3.042620     3.031440
      3.020261     3.009081     2.997902     2.986722     2.975543     2.964364     2.953184     2.942005     2.930825     2.919646
      2.908466     2.897287     2.886107     2.874928     2.863749     2.852569     2.841390     2.830210     2.819031     2.807851
      2.796672     2.785492     2.774313     2.763134     2.751954     2.740775     2.729595     2.718416     2.707236     2.696057
      2.684877     2.673698     2.662519     2.651339     2.640160     2.628980     2.617801     2.606621     2.595442     2.584262
      2.573083     2.561903     2.550724     2.539545     2.528365     2.517186     2.506006     2.494827     2.483647     2.472468
      2.461288     2.450109     2.438930     2.427750     2.416571     2.405391     2.394212     2.383032     2.371853     2.360673
      2.349494     2.338315     2.327135     2.315956     2.304776     2.293597     2.282417     2.271238     2.260058     2.248879
      2.237700     2.226520     2.215341     2.204161     2.192982     2.181802     2.170623     2.159443     2.148264     2.137084
      2.125905     2.114726     2.103546     2.092367     2.081187     2.070008     2.058828     2.047649     2.036469     2.025290
      2.014111     2.002931     1.991752     1.980572     1.969393     1.958213     1.947034     1.935854     1.924675     1.913496
      1.902316     1.891137     1.879957     1.868778     1.857598     1.846419     1.835239     1.824060     1.812881     1.801701
      1.790522     1.779342     1.768163     1.756983     1.745804     1.734624     1.723445     1.712265     1.701086     1.689907
      1.678727     1.667548     1.656368     1.645189     1.634009     1.622830     1.611650     1.600471     1.589292     1.578112
      1.566933     1.555753     1.544574     1.533394     1.522215     1.511035     1.499856     1.488677     1.477497     1.466318
      1.455138     1.443959     1.432779     1.421600     1.410420     1.399241     1.388062     1.376882     1.365703     1.354523
      1.343344     1.332164     1.320985     1.309805     1.298626     1.287446     1.276267     1.265088     1.253908     1.242729
      1.231549     1.220370     1.209190     1.198011     1.186831     1.175652     1.164473     1.153293     1.142114     1.130934
      1.119755     1.108575     1.097396     1.086216     1.075037     1.063858     1.052678     1.041499     1.030319     1.019140
      1.007960     0.996781     0.985601     0.974422     0.963243     0.952063     0.940884     0.929704     0.918525     0.907345
      0.896166     0.884986     0.873807     0.862628     0.851448     0.840269     0.829089     0.817910     0.806730     0.795551
      0.784371     0.773192     0.762012     0.750833     0.739654     0.728474     0.717295     0.706115     0.694936     0.683756
      0.672577     0.661397     0.650218     0.639039     0.627859     0.616680     0.605500     0.594321     0.583141     0.571962
      0.560782     0.549603     0.538424     0.527244     0.516065     0.504885     0.493706     0.482526     0.471347     0.460167
      0.448988     0.437809     0.426629     0.415450     0.404270     0.393091     0.381911     0.370732     0.359552     0.348373
      0.337193     0.326014     0.314835     0.303655     0.292476     0.281296     0.270117     0.258937     0.247758     0.236578
      0.225399     0.214220     0.203040
 NY phased data points follow
   9.84454E-09  1.04380E-08  9.86455E-09  1.03253E-08  1.04118E-08  1.11387E-08  1.10240E-08  1.17977E-08  1.14695E-08  1.10578E-08
   1.05350E-08  1.08653E-08  1.07044E-08  9.98288E-09  9.46088E-09  9.71713E-09  9.68983E-09  1.07424E-08  1.09509E-08  1.07318E-08
   9.86926E-09  9.82532E-09  1.00869E-08  1.05239E-08  1.16909E-08  1.24612E-08  1.22537E-08  1.19698E-08  1.08523E-08  9.66904E-09
   8.79689E-09  8.94159E-09  8.68802E-09  8.21619E-09  8.14415E-09  7.77262E-09  7.66254E-09  7.05396E-09  7.25483E-09  6.85083E-09
   6.81389E-09  6.79898E-09  6.16561E-09  6.46676E-09  6.33184E-09  6.47375E-09  6.71979E-09  6.00228E-09  5.79552E-09  6.01805E-09
   5.96916E-09  6.60909E-09  6.36593E-09  6.42757E-09  8.17334E-09  9.18623E-09  1.15978E-08  1.22023E-08  1.17421E-08  1.07455E-08
   9.68201E-09  8.75474E-09  7.98999E-09  7.95323E-09  7.03462E-09  6.69442E-09  6.11279E-09  6.30895E-09  6.13047E-09  5.37089E-09
   6.58868E-09  8.90363E-09  1.20024E-08  1.42972E-08  1.52349E-08  1.43331E-08  1.39878E-08  1.35474E-08  1.32980E-08  1.20530E-08
   1.18369E-08  1.13265E-08  1.16245E-08  1.15774E-08  1.11010E-08  1.03784E-08  1.02870E-08  9.30962E-09  9.41611E-09  8.43121E-09
   9.10108E-09  8.47991E-09  8.48209E-09  7.67285E-09  8.37726E-09  7.53249E-09  8.84729E-09  7.22304E-09  7.82727E-09  7.87376E-09
   7.43276E-09  6.44517E-09  6.33847E-09  5.50191E-09  5.29119E-09  5.86573E-09  5.83980E-09  5.72310E-09  5.93578E-09  5.70611E-09
   6.00348E-09  6.07342E-09  6.54500E-09  6.46226E-09  6.64098E-09  6.10689E-09  6.32181E-09  5.34548E-09  4.46053E-09  4.34819E-09
   4.21564E-09  4.89727E-09  5.13185E-09  4.54364E-09  4.72190E-09  4.53460E-09  4.70227E-09  4.26181E-09  4.83548E-09  4.52044E-09
   4.50166E-09  3.76398E-09  5.30351E-09  5.26615E-09  6.36949E-09  6.04309E-09  6.48084E-09  6.25882E-09  6.83747E-09  7.30048E-09
   8.40183E-09  7.61714E-09  8.25334E-09  8.16921E-09  8.83063E-09  7.49898E-09  8.40668E-09  7.25501E-09  8.02404E-09  7.37990E-09
   8.65046E-09  7.48611E-09  7.95038E-09  7.01713E-09  8.29992E-09  7.04239E-09  7.73571E-09  6.95904E-09  6.98771E-09  6.48275E-09
   6.58154E-09  5.50029E-09  7.23158E-09  1.03458E-08  1.44648E-08  1.80642E-08  1.94173E-08  1.89685E-08  1.91733E-08  1.88920E-08
   1.91972E-08  1.85555E-08  1.93512E-08  1.84787E-08  1.88862E-08  1.81607E-08  1.86795E-08  1.77380E-08  1.78362E-08  1.65096E-08
   1.67577E-08  1.58680E-08  1.49326E-08  1.39811E-08  1.30798E-08  1.10589E-08  9.96950E-09  6.79951E-09  6.06260E-09  3.88218E-09
   1.35727E-09 -1.27532E-09 -3.03821E-09 -5.59849E-09 -7.14593E-09 -8.67691E-09 -9.41095E-09 -1.14395E-08 -1.11831E-08 -1.21069E-08
  -1.10400E-08 -1.04815E-08 -9.52820E-09 -8.89699E-09 -7.83736E-09 -6.88894E-09 -5.12732E-09 -4.63753E-09 -3.46700E-09 -3.68847E-09
  -2.00146E-09 -2.65733E-09 -1.79095E-09 -2.50614E-09 -2.40264E-09 -2.15771E-09 -1.86233E-09 -2.08140E-09 -1.72897E-09 -1.69179E-09
  -1.21863E-09 -1.55494E-09 -1.23460E-09 -1.38032E-09 -1.10483E-09 -1.25374E-09 -1.14056E-09 -1.49477E-09 -1.76809E-09 -1.86653E-09
  -1.12998E-09 -1.20379E-09 -3.06040E-10 -9.66290E-10 -7.82001E-10 -1.06362E-09 -1.28534E-09 -1.40288E-09 -7.56437E-10 -2.00290E-09
  -1.12128E-09 -1.87159E-09 -1.13639E-09 -1.36494E-09 -1.43672E-09 -1.18818E-09 -4.58455E-10 -4.50100E-10 -6.34966E-10 -3.61193E-10
  -1.21626E-10 -5.72236E-10 -5.91546E-10 -6.97451E-10 -7.83471E-10 -8.28221E-10 -1.06819E-09 -1.58489E-09 -1.58808E-09 -2.08503E-09
  -1.49126E-09 -2.04058E-09 -1.76611E-09 -1.96308E-09 -2.08798E-09 -1.43204E-09 -1.91584E-09 -1.54938E-09 -8.52087E-10 -1.39669E-09
  -6.04942E-10 -8.53796E-10 -1.12783E-11  8.18472E-11 -3.57110E-10 -2.37558E-10 -3.86309E-10 -8.95938E-10 -5.78502E-10 -5.48767E-10
  -4.04094E-10 -1.03063E-09 -6.39249E-10 -8.59664E-10 -6.75338E-10 -4.98727E-10 -6.76110E-10 -7.37247E-10 -5.23566E-10 -9.45825E-10
  -8.57651E-10 -9.97015E-10 -9.18588E-10 -7.09998E-10 -1.10802E-09 -5.83324E-10 -1.27902E-09 -1.50851E-09 -1.43970E-09 -1.26301E-09
  -1.48305E-09 -1.06676E-09 -1.43663E-09 -1.38836E-09 -1.28765E-09 -1.58205E-09 -1.85457E-09 -1.39168E-09 -1.40394E-09 -1.29305E-09
  -1.62309E-09 -1.20113E-09 -1.69459E-09 -1.72389E-09 -1.80077E-09 -1.80609E-09 -1.79940E-09 -1.94839E-09 -1.99532E-09 -1.53831E-09
  -2.11897E-09 -1.73330E-09 -1.84281E-09 -1.85585E-09 -1.58442E-09 -1.81839E-09 -2.07786E-09 -1.58798E-09 -1.93141E-09 -1.90885E-09
  -2.16451E-09 -1.65991E-09 -2.05815E-09 -1.76911E-09 -2.05512E-09 -1.64636E-09 -2.66703E-09 -2.43973E-09 -2.12080E-09 -1.94460E-09
  -2.43554E-09 -2.09241E-09 -2.05832E-09 -1.69747E-09 -1.87368E-09 -1.68080E-09 -2.34215E-09 -2.75214E-09 -2.56029E-09 -1.68804E-09
  -2.46811E-09 -2.01950E-09 -1.93916E-09 -2.36911E-09 -2.16181E-09 -2.98920E-09 -2.61501E-09 -2.45968E-09 -2.76550E-09 -2.22327E-09
  -2.34853E-09 -1.84085E-09 -2.60036E-09
 NY points of the fit to the data follow
   1.29615E-08  1.17867E-08  1.08093E-08  1.00173E-08  9.85274E-09  9.71012E-09  9.40726E-09  9.75728E-09  1.24825E-08  1.24557E-08
   1.10648E-08  1.04717E-08  9.84769E-09  9.74013E-09  9.82271E-09  9.79488E-09  1.02189E-08  1.17661E-08  1.26869E-08  1.01282E-08
   8.70169E-09  9.54341E-09  1.01486E-08  1.09369E-08  1.12987E-08  1.20685E-08  1.24627E-08  1.22845E-08  1.13210E-08  1.02655E-08
   1.00195E-08  9.47815E-09  8.74076E-09  8.47652E-09  8.11875E-09  7.73425E-09  7.34215E-09  7.25459E-09  7.13845E-09  6.99665E-09
   6.89064E-09  6.97828E-09  7.16768E-09  7.09598E-09  6.90665E-09  6.72289E-09  6.56148E-09  5.99348E-09  6.07614E-09  6.28196E-09
   6.69759E-09  7.05792E-09  7.27113E-09  7.94352E-09  8.81977E-09  8.81243E-09  9.11250E-09  1.00873E-08  1.03868E-08  9.97398E-09
   1.00678E-08  9.97785E-09  9.92104E-09  9.82056E-09  9.27280E-09  8.88937E-09  8.99922E-09  8.57824E-09  8.00435E-09  8.25608E-09
   8.94655E-09  9.35980E-09  9.75882E-09  1.01500E-08  1.10237E-08  1.21582E-08  1.34374E-08  1.37844E-08  1.36982E-08  1.35730E-08
   1.33056E-08  1.27733E-08  1.21760E-08  1.18867E-08  1.15937E-08  1.09549E-08  9.83367E-09  8.33308E-09  7.74913E-09  7.47344E-09
   7.21616E-09  7.05470E-09  7.00734E-09  6.90091E-09  6.71442E-09  6.67829E-09  6.61780E-09  6.49353E-09  6.45110E-09  6.39457E-09
   6.35720E-09  6.33583E-09  6.31479E-09  6.31279E-09  6.30697E-09  6.30013E-09  6.29726E-09  6.29807E-09  6.30076E-09  6.30308E-09
   6.29670E-09  6.28337E-09  6.29079E-09  6.29093E-09  6.27579E-09  6.27199E-09  6.27093E-09  6.27022E-09  6.26910E-09  6.26719E-09
   6.26430E-09  6.26028E-09  6.25503E-09  6.24846E-09  6.24048E-09  6.23105E-09  6.22009E-09  6.20755E-09  6.19339E-09  6.17756E-09
   6.16002E-09  6.14073E-09  6.11966E-09  6.09678E-09  6.07205E-09  6.04545E-09  6.01695E-09  5.98654E-09  5.95419E-09  5.91989E-09
   5.88364E-09  5.84542E-09  5.80524E-09  5.76312E-09  5.71906E-09  5.67309E-09  5.62528E-09  5.57579E-09  5.52478E-09  5.47246E-09
   5.41907E-09  5.36491E-09  5.31035E-09  5.25587E-09  5.20209E-09  5.14984E-09  5.10030E-09  5.05514E-09  5.01686E-09  4.98936E-09
   4.97911E-09  4.99757E-09  5.06696E-09  5.23621E-09  5.63455E-09  6.71888E-09  1.09874E-08  1.97873E-08  2.13114E-08  2.00856E-08
   1.94521E-08  1.91046E-08  1.89006E-08  1.87133E-08  1.88207E-08  1.94103E-08  1.96425E-08  1.54087E-08  7.08100E-09  4.87156E-09
   4.03945E-09  3.58743E-09  3.28581E-09  3.05757E-09  2.87021E-09  2.70780E-09  2.56170E-09  2.42685E-09  2.30008E-09  2.17937E-09
   2.06335E-09  1.95107E-09  1.84188E-09  1.73528E-09  1.63096E-09  1.52865E-09  1.42817E-09  1.32941E-09  1.23228E-09  1.13670E-09
   1.04264E-09  9.50082E-10  8.59022E-10  7.69462E-10  6.81412E-10  5.94905E-10  5.09960E-10  4.26606E-10  3.44879E-10  2.64841E-10
   1.86498E-10  1.09924E-10  3.51577E-11 -3.77557E-11 -1.08773E-10 -1.77821E-10 -2.44858E-10 -3.09844E-10 -3.72704E-10 -4.33475E-10
  -4.92177E-10 -5.48873E-10 -6.03577E-10 -6.56346E-10 -7.07194E-10 -7.56187E-10 -8.03344E-10 -8.48700E-10 -8.92297E-10 -9.34166E-10
  -9.74355E-10 -1.01289E-09 -1.04980E-09 -1.08513E-09 -1.11892E-09 -1.15119E-09 -1.18199E-09 -1.21134E-09 -1.23929E-09 -1.26586E-09
  -1.29109E-09 -1.31502E-09 -1.33769E-09 -1.35912E-09 -1.37933E-09 -1.39839E-09 -1.41632E-09 -1.43315E-09 -1.44891E-09 -1.46364E-09
  -1.47739E-09 -1.49015E-09 -1.50202E-09 -1.51296E-09 -1.52304E-09 -1.53232E-09 -1.54080E-09 -1.54852E-09 -1.55551E-09 -1.56180E-09
  -1.56745E-09 -1.57247E-09 -1.57691E-09 -1.58080E-09 -1.58415E-09 -1.58702E-09 -1.58945E-09 -1.59143E-09 -1.59304E-09 -1.59431E-09
  -1.59524E-09 -1.59589E-09 -1.59630E-09 -1.59647E-09 -1.59648E-09 -1.59632E-09 -1.59605E-09 -1.59570E-09 -1.59529E-09 -1.59487E-09
  -1.59448E-09 -1.59413E-09 -1.59387E-09 -1.59372E-09 -1.59373E-09 -1.59393E-09 -1.59436E-09 -1.59501E-09 -1.59596E-09 -1.59724E-09
  -1.59886E-09 -1.60086E-09 -1.60322E-09 -1.60594E-09 -1.60901E-09 -1.61243E-09 -1.61619E-09 -1.62028E-09 -1.62470E-09 -1.62943E-09
  -1.63448E-09 -1.63984E-09 -1.64549E-09 -1.65144E-09 -1.65767E-09 -1.66419E-09 -1.67097E-09 -1.67803E-09 -1.68535E-09 -1.69292E-09
  -1.70073E-09 -1.70879E-09 -1.71708E-09 -1.72560E-09 -1.73434E-09 -1.74330E-09 -1.75246E-09 -1.76183E-09 -1.77139E-09 -1.78114E-09
  -1.79107E-09 -1.80117E-09 -1.81144E-09 -1.82188E-09 -1.83247E-09 -1.84321E-09 -1.85409E-09 -1.86511E-09 -1.87626E-09 -1.88753E-09
  -1.89892E-09 -1.91042E-09 -1.92201E-09 -1.93371E-09 -1.94550E-09 -1.95736E-09 -1.96931E-09 -1.98133E-09 -1.99341E-09 -2.00554E-09
  -2.01773E-09 -2.02996E-09 -2.04223E-09 -2.05453E-09 -2.06685E-09 -2.07919E-09 -2.09154E-09 -2.10390E-09 -2.11625E-09 -2.12860E-09
  -2.14093E-09 -2.15324E-09 -2.16552E-09 -2.17776E-09 -2.18996E-09 -2.20212E-09 -2.21422E-09 -2.22626E-09 -2.23823E-09 -2.25013E-09
  -2.26194E-09 -2.27366E-09 -2.28530E-09
 NY background values follow
    -9.273E-10   -8.601E-10   -7.929E-10   -7.255E-10   -6.582E-10   -5.908E-10   -5.234E-10   -4.560E-10   -3.886E-10   -3.212E-10
    -2.537E-10   -1.863E-10   -1.189E-10   -5.156E-11    1.578E-11    8.309E-11    1.504E-10    2.176E-10    2.847E-10    3.518E-10
     4.189E-10    4.858E-10    5.527E-10    6.195E-10    6.862E-10    7.528E-10    8.193E-10    8.857E-10    9.519E-10    1.018E-09
     1.084E-09    1.150E-09    1.216E-09    1.281E-09    1.347E-09    1.412E-09    1.477E-09    1.542E-09    1.606E-09    1.671E-09
     1.735E-09    1.799E-09    1.863E-09    1.927E-09    1.990E-09    2.054E-09    2.117E-09    2.179E-09    2.242E-09    2.304E-09
     2.366E-09    2.428E-09    2.489E-09    2.550E-09    2.611E-09    2.672E-09    2.732E-09    2.792E-09    2.852E-09    2.911E-09
     2.970E-09    3.029E-09    3.087E-09    3.145E-09    3.202E-09    3.260E-09    3.317E-09    3.373E-09    3.429E-09    3.485E-09
     3.540E-09    3.595E-09    3.650E-09    3.704E-09    3.758E-09    3.811E-09    3.864E-09    3.916E-09    3.968E-09    4.019E-09
     4.070E-09    4.119E-09    4.169E-09    4.217E-09    4.265E-09    4.312E-09    4.359E-09    4.404E-09    4.449E-09    4.493E-09
     4.536E-09    4.578E-09    4.619E-09    4.660E-09    4.699E-09    4.737E-09    4.774E-09    4.811E-09    4.846E-09    4.880E-09
     4.912E-09    4.944E-09    4.974E-09    5.003E-09    5.031E-09    5.058E-09    5.083E-09    5.107E-09    5.130E-09    5.151E-09
     5.171E-09    5.189E-09    5.206E-09    5.221E-09    5.235E-09    5.247E-09    5.258E-09    5.266E-09    5.274E-09    5.279E-09
     5.283E-09    5.286E-09    5.286E-09    5.285E-09    5.281E-09    5.276E-09    5.269E-09    5.261E-09    5.250E-09    5.237E-09
     5.223E-09    5.206E-09    5.187E-09    5.166E-09    5.144E-09    5.119E-09    5.091E-09    5.062E-09    5.031E-09    4.997E-09
     4.961E-09    4.922E-09    4.882E-09    4.839E-09    4.793E-09    4.746E-09    4.696E-09    4.643E-09    4.588E-09    4.531E-09
     4.472E-09    4.411E-09    4.348E-09    4.282E-09    4.215E-09    4.146E-09    4.075E-09    4.003E-09    3.928E-09    3.852E-09
     3.775E-09    3.696E-09    3.616E-09    3.534E-09    3.451E-09    3.367E-09    3.282E-09    3.195E-09    3.108E-09    3.019E-09
     2.930E-09    2.839E-09    2.748E-09    2.656E-09    2.564E-09    2.471E-09    2.377E-09    2.283E-09    2.188E-09    2.093E-09
     1.998E-09    1.902E-09    1.807E-09    1.711E-09    1.615E-09    1.519E-09    1.423E-09    1.327E-09    1.232E-09    1.136E-09
     1.041E-09    9.467E-10    8.525E-10    7.588E-10    6.657E-10    5.731E-10    4.813E-10    3.902E-10    2.998E-10    2.104E-10
     1.219E-10    3.434E-11   -5.214E-11   -1.375E-10   -2.217E-10   -3.047E-10   -3.863E-10   -4.666E-10   -5.455E-10   -6.229E-10
    -6.988E-10   -7.730E-10   -8.456E-10   -9.165E-10   -9.856E-10   -1.053E-09   -1.118E-09   -1.181E-09   -1.243E-09   -1.302E-09
    -1.359E-09   -1.415E-09   -1.468E-09   -1.519E-09   -1.569E-09   -1.617E-09   -1.663E-09   -1.707E-09   -1.750E-09   -1.791E-09
    -1.830E-09   -1.867E-09   -1.903E-09   -1.938E-09   -1.971E-09   -2.002E-09   -2.032E-09   -2.061E-09   -2.088E-09   -2.114E-09
    -2.138E-09   -2.162E-09   -2.184E-09   -2.204E-09   -2.224E-09   -2.242E-09   -2.260E-09   -2.276E-09   -2.291E-09   -2.305E-09
    -2.318E-09   -2.330E-09   -2.342E-09   -2.352E-09   -2.362E-09   -2.370E-09   -2.378E-09   -2.385E-09   -2.392E-09   -2.398E-09
    -2.403E-09   -2.407E-09   -2.411E-09   -2.415E-09   -2.418E-09   -2.420E-09   -2.422E-09   -2.423E-09   -2.425E-09   -2.425E-09
    -2.426E-09   -2.426E-09   -2.426E-09   -2.426E-09   -2.425E-09   -2.425E-09   -2.424E-09   -2.423E-09   -2.422E-09   -2.422E-09
    -2.421E-09   -2.420E-09   -2.419E-09   -2.419E-09   -2.418E-09   -2.418E-09   -2.418E-09   -2.419E-09   -2.419E-09   -2.420E-09
    -2.421E-09   -2.423E-09   -2.425E-09   -2.427E-09   -2.430E-09   -2.433E-09   -2.436E-09   -2.440E-09   -2.444E-09   -2.448E-09
    -2.453E-09   -2.458E-09   -2.463E-09   -2.469E-09   -2.475E-09   -2.481E-09   -2.487E-09   -2.494E-09   -2.501E-09   -2.508E-09
    -2.515E-09   -2.523E-09   -2.531E-09   -2.539E-09   -2.547E-09   -2.556E-09   -2.565E-09   -2.574E-09   -2.583E-09   -2.592E-09
    -2.602E-09   -2.612E-09   -2.622E-09   -2.632E-09   -2.642E-09   -2.652E-09   -2.663E-09   -2.673E-09   -2.684E-09   -2.695E-09
    -2.706E-09   -2.717E-09   -2.728E-09   -2.740E-09   -2.751E-09   -2.763E-09   -2.774E-09   -2.786E-09   -2.797E-09   -2.809E-09
    -2.821E-09   -2.833E-09   -2.845E-09   -2.857E-09   -2.868E-09   -2.880E-09   -2.892E-09   -2.904E-09   -2.916E-09   -2.928E-09
    -2.940E-09   -2.952E-09   -2.964E-09   -2.976E-09   -2.988E-09   -2.999E-09   -3.011E-09   -3.023E-09   -3.034E-09   -3.046E-09
    -3.057E-09   -3.068E-09   -3.079E-09
 Ala      Conc. = 1.66E-11
  -9.14393E-10 -8.47186E-10 -7.79973E-10 -7.12007E-10 -6.44988E-10 -5.77861E-10 -5.10078E-10 -4.44903E-10 -3.79558E-10 -3.10895E-10
  -2.45148E-10 -1.80531E-10 -1.13243E-10 -4.65445E-11  1.96263E-11  8.62664E-11  1.53111E-10  2.20031E-10  2.86973E-10  3.53908E-10
   4.20811E-10  4.87662E-10  5.54454E-10  6.21172E-10  6.87814E-10  7.54357E-10  8.20804E-10  8.87138E-10  9.53358E-10  1.01946E-09
   1.08543E-09  1.15126E-09  1.21696E-09  1.28249E-09  1.34788E-09  1.41309E-09  1.47814E-09  1.54302E-09  1.60770E-09  1.67220E-09
   1.73650E-09  1.80060E-09  1.86448E-09  1.92817E-09  1.99161E-09  2.05483E-09  2.11781E-09  2.18055E-09  2.24305E-09  2.30528E-09
   2.36726E-09  2.42896E-09  2.49039E-09  2.55154E-09  2.61239E-09  2.67296E-09  2.73323E-09  2.79317E-09  2.85283E-09  2.91215E-09
   2.97114E-09  3.02981E-09  3.08813E-09  3.14612E-09  3.20373E-09  3.26100E-09  3.31789E-09  3.37443E-09  3.43058E-09  3.48634E-09
   3.54172E-09  3.59670E-09  3.65127E-09  3.70544E-09  3.75917E-09  3.81245E-09  3.86524E-09  3.91753E-09  3.96927E-09  4.02045E-09
   4.07103E-09  4.12100E-09  4.17032E-09  4.21896E-09  4.26691E-09  4.31413E-09  4.36060E-09  4.40629E-09  4.45119E-09  4.49527E-09
   4.53851E-09  4.58089E-09  4.62242E-09  4.66308E-09  4.70290E-09  4.74194E-09  4.78034E-09  4.81846E-09  4.85731E-09  4.90096E-09
   4.95381E-09  4.98375E-09  5.01340E-09  5.06161E-09  5.09561E-09  5.12103E-09  5.14534E-09  5.16913E-09  5.19231E-09  5.21270E-09
   5.22234E-09  5.22340E-09  5.24375E-09  5.25560E-09  5.25113E-09  5.25699E-09  5.26475E-09  5.27213E-09  5.27843E-09  5.28337E-09
   5.28680E-09  5.28862E-09  5.28876E-09  5.28716E-09  5.28380E-09  5.27862E-09  5.27159E-09  5.26269E-09  5.25187E-09  5.23911E-09
   5.22437E-09  5.20763E-09  5.18887E-09  5.16804E-09  5.14511E-09  5.12008E-09  5.09290E-09  5.06354E-09  5.03198E-09  4.99819E-09
   4.96214E-09  4.92380E-09  4.88315E-09  4.84017E-09  4.79481E-09  4.74705E-09  4.69689E-09  4.64438E-09  4.58959E-09  4.53258E-09
   4.47341E-09  4.41214E-09  4.34884E-09  4.28356E-09  4.21637E-09  4.14733E-09  4.07651E-09  4.00396E-09  3.92977E-09  3.85398E-09
   3.77668E-09  3.69794E-09  3.61785E-09  3.53654E-09  3.45426E-09  3.37164E-09  3.29186E-09  3.22108E-09  3.13678E-09  3.04630E-09
   2.95592E-09  2.86516E-09  2.77388E-09  2.68183E-09  2.58956E-09  2.49744E-09  2.40488E-09  2.30531E-09  2.19618E-09  2.09749E-09
   2.00094E-09  1.90479E-09  1.80870E-09  1.71262E-09  1.61654E-09  1.52049E-09  1.42454E-09  1.32874E-09  1.23312E-09  1.13776E-09
   1.04273E-09  9.48058E-10  8.53828E-10  7.60092E-10  6.66925E-10  5.74372E-10  4.82491E-10  3.91366E-10  3.01047E-10  2.11585E-10
   1.23054E-10  3.55113E-11 -5.09788E-11 -1.36357E-10 -2.20566E-10 -3.03531E-10 -3.85201E-10 -4.65513E-10 -5.44411E-10 -6.21807E-10
  -6.97678E-10 -7.71934E-10 -8.44520E-10 -9.15378E-10 -9.84456E-10 -1.05167E-09 -1.11696E-09 -1.18029E-09 -1.24158E-09 -1.30085E-09
  -1.35812E-09 -1.41345E-09 -1.46685E-09 -1.51836E-09 -1.56800E-09 -1.61583E-09 -1.66187E-09 -1.70615E-09 -1.74871E-09 -1.78958E-09
  -1.82880E-09 -1.86639E-09 -1.90240E-09 -1.93685E-09 -1.96978E-09 -2.00122E-09 -2.03121E-09 -2.05978E-09 -2.08696E-09 -2.11278E-09
  -2.13728E-09 -2.16051E-09 -2.18248E-09 -2.20323E-09 -2.22278E-09 -2.24119E-09 -2.25848E-09 -2.27469E-09 -2.28984E-09 -2.30397E-09
  -2.31713E-09 -2.32931E-09 -2.34061E-09 -2.35100E-09 -2.36053E-09 -2.36927E-09 -2.37721E-09 -2.38440E-09 -2.39087E-09 -2.39666E-09
  -2.40180E-09 -2.40633E-09 -2.41027E-09 -2.41367E-09 -2.41655E-09 -2.41894E-09 -2.42090E-09 -2.42242E-09 -2.42357E-09 -2.42438E-09
  -2.42487E-09 -2.42507E-09 -2.42504E-09 -2.42477E-09 -2.42434E-09 -2.42376E-09 -2.42306E-09 -2.42229E-09 -2.42146E-09 -2.42062E-09
  -2.41981E-09 -2.41905E-09 -2.41839E-09 -2.41783E-09 -2.41743E-09 -2.41722E-09 -2.41725E-09 -2.41750E-09 -2.41806E-09 -2.41894E-09
  -2.42017E-09 -2.42177E-09 -2.42375E-09 -2.42608E-09 -2.42876E-09 -2.43180E-09 -2.43517E-09 -2.43888E-09 -2.44291E-09 -2.44726E-09
  -2.45193E-09 -2.45690E-09 -2.46218E-09 -2.46775E-09 -2.47360E-09 -2.47974E-09 -2.48615E-09 -2.49283E-09 -2.49977E-09 -2.50696E-09
  -2.51440E-09 -2.52208E-09 -2.53000E-09 -2.53814E-09 -2.54650E-09 -2.55508E-09 -2.56387E-09 -2.57286E-09 -2.58204E-09 -2.59141E-09
  -2.60097E-09 -2.61069E-09 -2.62059E-09 -2.63065E-09 -2.64086E-09 -2.65122E-09 -2.66172E-09 -2.67236E-09 -2.68313E-09 -2.69401E-09
  -2.70502E-09 -2.71614E-09 -2.72735E-09 -2.73866E-09 -2.75006E-09 -2.76154E-09 -2.77310E-09 -2.78473E-09 -2.79642E-09 -2.80816E-09
  -2.81996E-09 -2.83179E-09 -2.84367E-09 -2.85557E-09 -2.86749E-09 -2.87943E-09 -2.89138E-09 -2.90334E-09 -2.91529E-09 -2.92723E-09
  -2.93915E-09 -2.95105E-09 -2.96292E-09 -2.97475E-09 -2.98654E-09 -2.99828E-09 -3.00997E-09 -3.02159E-09 -3.03314E-09 -3.04461E-09
  -3.05600E-09 -3.06730E-09 -3.07851E-09
 Asp      Conc. = 6.79E-10
  -2.18727E-10 -2.70692E-10 -2.60122E-10 -2.93547E-10 -2.63340E-10 -2.68261E-10 -2.93018E-10 -3.10224E-10 -2.79871E-10 -2.32555E-10
  -1.77596E-10 -1.18670E-10 -5.68548E-11  7.98457E-12  7.33654E-11  1.39129E-10  2.05359E-10  2.71986E-10  3.38956E-10  4.06228E-10
   4.73770E-10  5.41567E-10  6.09625E-10  6.77956E-10  7.46600E-10  8.15593E-10  8.85025E-10  9.54994E-10  1.02567E-09  1.09728E-09
   1.17018E-09  1.24492E-09  1.32246E-09  1.40451E-09  1.49479E-09  1.60307E-09  1.75132E-09  1.84360E-09  1.96019E-09  2.01110E-09
   2.05605E-09  2.13908E-09  2.30491E-09  2.53032E-09  2.80833E-09  3.08117E-09  3.07525E-09  3.00757E-09  3.20357E-09  3.28402E-09
   3.35784E-09  3.49727E-09  3.58450E-09  3.55771E-09  3.48554E-09  3.38326E-09  3.26030E-09  3.35015E-09  3.41870E-09  3.31283E-09
   3.30903E-09  3.33263E-09  3.31660E-09  3.35566E-09  3.44000E-09  3.49791E-09  3.49674E-09  3.52066E-09  3.55613E-09  3.59733E-09
   3.64179E-09  3.68824E-09  3.73593E-09  3.78445E-09  3.83344E-09  3.88268E-09  3.93201E-09  3.98128E-09  4.03038E-09  4.07922E-09
   4.12773E-09  4.17583E-09  4.22347E-09  4.27059E-09  4.31715E-09  4.36308E-09  4.40837E-09  4.45295E-09  4.49680E-09  4.53988E-09
   4.58215E-09  4.62357E-09  4.66412E-09  4.70376E-09  4.74245E-09  4.78018E-09  4.81690E-09  4.85258E-09  4.88719E-09  4.92071E-09
   4.95310E-09  4.98434E-09  5.01439E-09  5.04322E-09  5.07081E-09  5.09713E-09  5.12214E-09  5.14582E-09  5.16814E-09  5.18908E-09
   5.20859E-09  5.22666E-09  5.24326E-09  5.25836E-09  5.27193E-09  5.28394E-09  5.29436E-09  5.30316E-09  5.31033E-09  5.31582E-09
   5.31961E-09  5.32168E-09  5.32199E-09  5.32052E-09  5.31723E-09  5.31211E-09  5.30513E-09  5.29625E-09  5.28545E-09  5.27270E-09
   5.25797E-09  5.24124E-09  5.22248E-09  5.20166E-09  5.17875E-09  5.15373E-09  5.12657E-09  5.09724E-09  5.06572E-09  5.03198E-09
   4.99599E-09  4.95772E-09  4.91716E-09  4.87428E-09  4.82905E-09  4.78144E-09  4.73146E-09  4.67917E-09  4.62464E-09  4.56794E-09
   4.50914E-09  4.44831E-09  4.38554E-09  4.32092E-09  4.25454E-09  4.18650E-09  4.11695E-09  4.04602E-09  3.97395E-09  3.90101E-09
   3.82765E-09  3.75461E-09  3.68325E-09  3.61647E-09  3.56169E-09  3.54397E-09  3.69528E-09  4.24041E-09  4.28042E-09  4.11311E-09
   3.98628E-09  3.87822E-09  3.78037E-09  3.68123E-09  3.59987E-09  3.54926E-09  3.49851E-09  3.17722E-09  2.49929E-09  2.25647E-09
   2.11079E-09  1.99115E-09  1.88156E-09  1.77683E-09  1.67479E-09  1.57442E-09  1.47519E-09  1.37685E-09  1.27920E-09  1.18219E-09
   1.08579E-09  9.89976E-10  8.94772E-10  8.00198E-10  7.06306E-10  6.13119E-10  5.20679E-10  4.29058E-10  3.38298E-10  2.48438E-10
   1.59550E-10  7.16825E-11 -1.51027E-11 -1.00751E-10 -1.85207E-10 -2.68401E-10 -3.50280E-10 -4.30788E-10 -5.09867E-10 -5.87431E-10
  -6.63460E-10 -7.37863E-10 -8.10588E-10 -8.81576E-10 -9.50776E-10 -1.01810E-09 -1.08351E-09 -1.14694E-09 -1.20833E-09 -1.26769E-09
  -1.32506E-09 -1.38047E-09 -1.43394E-09 -1.48553E-09 -1.53525E-09 -1.58315E-09 -1.62926E-09 -1.67361E-09 -1.71623E-09 -1.75716E-09
