 LCModel (Version 6.3-1R) Copyright: S.W. Provencher.          Ref.: Magn. Reson. Med. 30:672-679 (1993).                
 onepulse 28x19_ftSpec_smooth_lcm
 26 lines in following concentration table = NCONC+1
    Conc.  %SD /Cr+PCr  Metabolite                                         
    0.000 999%   0.000 Ala                                                 
 1.74E-10 995%   0.211 Asp                                                 
    0.000 999%   0.000 Cr                                                  
    0.000 999%   0.000 GABA                                                
 9.19E-10 146%   1.109 Glc                                                 
 4.26E-10 269%   0.514 Gln                                                 
    0.000 999%   0.000 Glu                                                 
    0.000 999%   0.000 Glyc                                                
 1.26E-10 569%   0.152 GPC                                                 
 6.96E-10 129%   0.840 GSH                                                 
 1.84E-09  46%   2.215 Ins                                                 
    0.000 999%   0.000 Lac                                                 
    0.000 999%   0.000 NAAG                                                
 5.20E-10  83%   0.627 NAA                                                 
    0.000 999%   0.000 PCh                                                 
 8.29E-10  81%   1.000 PCr                                                 
 1.57E-09 300%   1.889 PE                                                  
 2.11E-10 202%   0.255 Scyllo                                              
 3.06E-09 148%   3.688 Ser                                                 
    0.000 999%   0.000 Tau                                                 
 1.26E-10 569%   0.152 GPC+PCh                                             
 5.20E-10  83%   0.627 NAA+NAAG                                            
 1.84E-09  46%   2.215 Ins+Glyc                                            
 8.29E-10  81%   1.000 Cr+PCr                                              
 4.26E-10 269%   0.514 Glu+Gln                                             
   6 lines in following misc. output table
  FWHM = 0.101 ppm    S/N =   2                                            
  Data shift = 0.447 ppm                                                   
  Ph: 116 deg      22.4 deg/ppm                                            
  alphaB,S = 5.4E+01,   7.9E+01                                            
    7 spline knots.   Ns = 5(1)                                            
  (10) 3 infls.   ( 7) 3 extrs.                                            
  363 points on ppm-axis = NY
      4.250000     4.238821     4.227641     4.216462     4.205282     4.194103     4.182923     4.171744     4.160564     4.149385
      4.138206     4.127026     4.115847     4.104667     4.093488     4.082308     4.071129     4.059949     4.048770     4.037591
      4.026411     4.015232     4.004052     3.992873     3.981693     3.970514     3.959334     3.948155     3.936975     3.925796
      3.914617     3.903437     3.892258     3.881078     3.869899     3.858719     3.847540     3.836360     3.825181     3.814002
      3.802822     3.791643     3.780463     3.769284     3.758104     3.746925     3.735745     3.724566     3.713387     3.702207
      3.691028     3.679848     3.668669     3.657489     3.646310     3.635130     3.623951     3.612772     3.601592     3.590413
      3.579233     3.568054     3.556874     3.545695     3.534515     3.523336     3.512156     3.500977     3.489798     3.478618
      3.467439     3.456259     3.445080     3.433900     3.422721     3.411541     3.400362     3.389183     3.378003     3.366824
      3.355644     3.344465     3.333285     3.322106     3.310926     3.299747     3.288568     3.277388     3.266209     3.255029
      3.243850     3.232670     3.221491     3.210311     3.199132     3.187953     3.176773     3.165594     3.154414     3.143235
      3.132055     3.120876     3.109696     3.098517     3.087337     3.076158     3.064979     3.053799     3.042620     3.031440
      3.020261     3.009081     2.997902     2.986722     2.975543     2.964364     2.953184     2.942005     2.930825     2.919646
      2.908466     2.897287     2.886107     2.874928     2.863749     2.852569     2.841390     2.830210     2.819031     2.807851
      2.796672     2.785492     2.774313     2.763134     2.751954     2.740775     2.729595     2.718416     2.707236     2.696057
      2.684877     2.673698     2.662519     2.651339     2.640160     2.628980     2.617801     2.606621     2.595442     2.584262
      2.573083     2.561903     2.550724     2.539545     2.528365     2.517186     2.506006     2.494827     2.483647     2.472468
      2.461288     2.450109     2.438930     2.427750     2.416571     2.405391     2.394212     2.383032     2.371853     2.360673
      2.349494     2.338315     2.327135     2.315956     2.304776     2.293597     2.282417     2.271238     2.260058     2.248879
      2.237700     2.226520     2.215341     2.204161     2.192982     2.181802     2.170623     2.159443     2.148264     2.137084
      2.125905     2.114726     2.103546     2.092367     2.081187     2.070008     2.058828     2.047649     2.036469     2.025290
      2.014111     2.002931     1.991752     1.980572     1.969393     1.958213     1.947034     1.935854     1.924675     1.913496
      1.902316     1.891137     1.879957     1.868778     1.857598     1.846419     1.835239     1.824060     1.812881     1.801701
      1.790522     1.779342     1.768163     1.756983     1.745804     1.734624     1.723445     1.712265     1.701086     1.689907
      1.678727     1.667548     1.656368     1.645189     1.634009     1.622830     1.611650     1.600471     1.589292     1.578112
      1.566933     1.555753     1.544574     1.533394     1.522215     1.511035     1.499856     1.488677     1.477497     1.466318
      1.455138     1.443959     1.432779     1.421600     1.410420     1.399241     1.388062     1.376882     1.365703     1.354523
      1.343344     1.332164     1.320985     1.309805     1.298626     1.287446     1.276267     1.265088     1.253908     1.242729
      1.231549     1.220370     1.209190     1.198011     1.186831     1.175652     1.164473     1.153293     1.142114     1.130934
      1.119755     1.108575     1.097396     1.086216     1.075037     1.063858     1.052678     1.041499     1.030319     1.019140
      1.007960     0.996781     0.985601     0.974422     0.963243     0.952063     0.940884     0.929704     0.918525     0.907345
      0.896166     0.884986     0.873807     0.862628     0.851448     0.840269     0.829089     0.817910     0.806730     0.795551
      0.784371     0.773192     0.762012     0.750833     0.739654     0.728474     0.717295     0.706115     0.694936     0.683756
      0.672577     0.661397     0.650218     0.639039     0.627859     0.616680     0.605500     0.594321     0.583141     0.571962
      0.560782     0.549603     0.538424     0.527244     0.516065     0.504885     0.493706     0.482526     0.471347     0.460167
      0.448988     0.437809     0.426629     0.415450     0.404270     0.393091     0.381911     0.370732     0.359552     0.348373
      0.337193     0.326014     0.314835     0.303655     0.292476     0.281296     0.270117     0.258937     0.247758     0.236578
      0.225399     0.214220     0.203040
 NY phased data points follow
   1.49384E-08  1.54114E-08  1.46066E-08  1.51062E-08  1.38868E-08  1.55994E-08  1.44731E-08  1.53908E-08  1.49100E-08  1.53996E-08
   1.42453E-08  1.50719E-08  1.44352E-08  1.43460E-08  1.40204E-08  1.40060E-08  1.30228E-08  1.45422E-08  1.38290E-08  1.43493E-08
   1.30650E-08  1.44364E-08  1.37831E-08  1.45861E-08  1.50067E-08  1.57340E-08  1.59310E-08  1.55298E-08  1.50011E-08  1.52222E-08
   1.34987E-08  1.39889E-08  1.32625E-08  1.26238E-08  1.24414E-08  1.25712E-08  1.19248E-08  1.17217E-08  1.11058E-08  1.08805E-08
   1.08169E-08  1.03287E-08  1.01401E-08  1.01482E-08  9.52325E-09  9.89157E-09  9.03228E-09  9.15141E-09  8.98158E-09  8.48444E-09
   8.64593E-09  8.06817E-09  8.80180E-09  8.66737E-09  9.71025E-09  1.05012E-08  1.22925E-08  1.23512E-08  1.34659E-08  1.25407E-08
   1.21980E-08  1.14111E-08  1.14116E-08  1.03087E-08  1.00818E-08  9.08478E-09  8.83698E-09  8.58609E-09  7.87858E-09  7.20713E-09
   9.31531E-09  1.04173E-08  1.27583E-08  1.28308E-08  1.48008E-08  1.45792E-08  1.60018E-08  1.46973E-08  1.50645E-08  1.45057E-08
   1.46837E-08  1.42314E-08  1.46639E-08  1.36888E-08  1.40930E-08  1.33698E-08  1.30984E-08  1.26718E-08  1.25299E-08  1.14050E-08
   1.24155E-08  1.09579E-08  1.18731E-08  1.08177E-08  1.13449E-08  1.08878E-08  1.13267E-08  1.07066E-08  1.13934E-08  1.04444E-08
   1.05410E-08  9.99940E-09  9.75737E-09  8.50650E-09  9.46210E-09  8.10827E-09  9.11798E-09  8.14398E-09  8.71607E-09  7.76186E-09
   8.92332E-09  8.53239E-09  9.01287E-09  8.21932E-09  8.64371E-09  7.76915E-09  8.28707E-09  6.99575E-09  7.05026E-09  6.46795E-09
   6.94244E-09  6.73313E-09  6.68223E-09  6.17996E-09  6.28612E-09  6.69820E-09  6.00437E-09  5.51543E-09  5.85003E-09  5.15860E-09
   5.55164E-09  5.28048E-09  5.85372E-09  5.89695E-09  5.90569E-09  6.27137E-09  6.42512E-09  6.35528E-09  7.64558E-09  7.33853E-09
   7.69094E-09  6.98019E-09  7.93045E-09  8.20625E-09  8.23305E-09  7.81087E-09  8.63441E-09  7.94488E-09  8.14607E-09  8.93618E-09
   8.45087E-09  9.01248E-09  8.67709E-09  8.52393E-09  9.11284E-09  8.60670E-09  8.66614E-09  8.52571E-09  9.16883E-09  8.97675E-09
   1.06203E-08  1.10577E-08  1.39093E-08  1.50784E-08  1.78798E-08  1.92352E-08  2.08854E-08  2.15973E-08  2.17676E-08  2.18547E-08
   2.19094E-08  2.17428E-08  2.20896E-08  2.15731E-08  2.16625E-08  2.19952E-08  2.18180E-08  2.11370E-08  2.18862E-08  2.21103E-08
   2.15473E-08  2.08729E-08  2.14092E-08  1.97401E-08  1.95280E-08  1.90628E-08  1.78535E-08  1.59607E-08  1.52240E-08  1.23254E-08
   1.02914E-08  7.58199E-09  5.30834E-09  1.63815E-09 -1.43095E-09 -4.86274E-09 -7.59660E-09 -1.04198E-08 -1.21104E-08 -1.46567E-08
  -1.57075E-08 -1.71856E-08 -1.66752E-08 -1.68634E-08 -1.62870E-08 -1.54355E-08 -1.37727E-08 -1.24972E-08 -1.02675E-08 -8.44773E-09
  -6.90594E-09 -5.53238E-09 -4.16213E-09 -4.28112E-09 -3.41583E-09 -3.25804E-09 -2.42305E-09 -2.99409E-09 -2.03243E-09 -3.23666E-09
  -2.45976E-09 -2.62505E-09 -2.11201E-09 -2.67992E-09 -1.63390E-09 -1.82214E-09 -1.22974E-09 -2.05180E-09 -1.56860E-09 -2.35921E-09
  -1.18991E-09 -1.92197E-09 -1.22051E-09 -2.09275E-09 -1.15002E-09 -1.93803E-09 -8.45851E-10 -1.22496E-09 -1.27171E-09 -1.56287E-09
  -9.40604E-10 -1.83486E-09 -1.25271E-09 -2.23646E-09 -5.45215E-10 -1.63947E-09 -3.31779E-10 -1.82491E-09 -1.04439E-09 -8.30644E-10
  -1.86281E-10 -9.96024E-10 -2.53127E-10 -9.49034E-10 -4.06567E-10 -1.54407E-09 -6.39786E-10 -1.88476E-09 -1.60954E-09 -2.16172E-09
  -1.27881E-09 -2.12326E-09 -9.18984E-10 -1.59310E-09 -1.66316E-09 -1.62786E-09 -3.88671E-10 -1.67129E-09 -1.02524E-09 -1.15919E-09
   3.03088E-10 -1.09211E-09 -3.28288E-10 -4.38878E-10  8.38480E-11 -1.14155E-09  3.50471E-11 -1.69706E-09  8.27431E-11 -1.28647E-09
  -5.41899E-10 -1.28375E-09 -2.91059E-11 -1.71165E-09 -8.53664E-10 -1.42170E-09 -1.08406E-09 -1.02590E-09 -8.36406E-10 -1.11698E-09
  -1.09108E-09 -1.02253E-09 -9.55504E-10 -1.38540E-09 -1.06003E-09 -1.87185E-09 -6.55478E-10 -1.78128E-09 -1.17511E-09 -1.72039E-09
  -1.30161E-09 -1.83264E-09 -1.01179E-09 -1.87904E-09 -1.11304E-09 -2.05477E-09 -1.49733E-09 -2.22143E-09 -1.29205E-09 -2.33613E-09
  -1.02614E-09 -2.06428E-09 -1.44874E-09 -2.56831E-09 -1.42099E-09 -2.45142E-09 -1.97313E-09 -2.53127E-09 -2.21155E-09 -2.54165E-09
  -2.08083E-09 -2.23678E-09 -1.87152E-09 -2.96832E-09 -1.69417E-09 -2.96685E-09 -1.69615E-09 -3.17230E-09 -2.07103E-09 -2.96973E-09
  -1.74320E-09 -3.25600E-09 -2.03102E-09 -2.63900E-09 -2.29687E-09 -3.03121E-09 -2.27562E-09 -3.17451E-09 -2.58202E-09 -3.40057E-09
  -2.63671E-09 -3.18137E-09 -2.46558E-09 -2.81330E-09 -2.82071E-09 -3.51596E-09 -2.91138E-09 -3.19747E-09 -2.40107E-09 -3.59676E-09
  -2.34782E-09 -3.72076E-09 -3.02145E-09 -4.09904E-09 -3.10825E-09 -3.92494E-09 -3.11196E-09 -3.50450E-09 -2.96782E-09 -3.89688E-09
  -3.20097E-09 -3.57783E-09 -3.44515E-09
 NY points of the fit to the data follow
   1.73211E-08  1.56427E-08  1.47650E-08  1.42985E-08  1.39291E-08  1.35666E-08  1.34064E-08  1.37138E-08  1.43522E-08  1.50952E-08
   1.57119E-08  1.58927E-08  1.57672E-08  1.53854E-08  1.47683E-08  1.41061E-08  1.35654E-08  1.31020E-08  1.27614E-08  1.28864E-08
   1.34171E-08  1.41148E-08  1.47236E-08  1.54692E-08  1.60221E-08  1.62605E-08  1.60548E-08  1.54314E-08  1.46489E-08  1.39724E-08
   1.33320E-08  1.30997E-08  1.29400E-08  1.27623E-08  1.25293E-08  1.24418E-08  1.23166E-08  1.21016E-08  1.15964E-08  1.07696E-08
   9.71830E-09  8.68851E-09  8.06740E-09  8.13304E-09  8.34455E-09  8.57582E-09  8.82232E-09  9.07793E-09  9.47117E-09  9.89425E-09
   1.03405E-08  1.07450E-08  1.10765E-08  1.14037E-08  1.17053E-08  1.19101E-08  1.20697E-08  1.21583E-08  1.21211E-08  1.19482E-08
   1.17145E-08  1.14680E-08  1.12696E-08  1.10774E-08  1.09085E-08  1.08228E-08  1.07800E-08  1.07622E-08  1.08477E-08  1.10734E-08
   1.13491E-08  1.16065E-08  1.19241E-08  1.22633E-08  1.26049E-08  1.29557E-08  1.33897E-08  1.41114E-08  1.46988E-08  1.49425E-08
   1.48453E-08  1.45212E-08  1.40227E-08  1.33930E-08  1.26998E-08  1.18909E-08  1.10091E-08  1.01924E-08  9.67641E-09  9.65101E-09
   9.69476E-09  9.73828E-09  9.77402E-09  9.80145E-09  9.82142E-09  9.83488E-09  9.84251E-09  9.84500E-09  9.84287E-09  9.83654E-09
   9.82627E-09  9.81233E-09  9.79505E-09  9.77465E-09  9.75132E-09  9.72524E-09  9.69648E-09  9.66519E-09  9.63150E-09  9.59551E-09
   9.55728E-09  9.51692E-09  9.47450E-09  9.43010E-09  9.38379E-09  9.33561E-09  9.28562E-09  9.23384E-09  9.18040E-09  9.12527E-09
   9.06851E-09  9.01019E-09  8.95031E-09  8.88891E-09  8.82606E-09  8.76174E-09  8.69601E-09  8.62888E-09  8.56039E-09  8.49060E-09
   8.41944E-09  8.34702E-09  8.27332E-09  8.19838E-09  8.12219E-09  8.04481E-09  7.96616E-09  7.88637E-09  7.80540E-09  7.72324E-09
   7.63994E-09  7.55549E-09  7.46989E-09  7.38318E-09  7.29528E-09  7.20626E-09  7.11611E-09  7.02482E-09  6.93241E-09  6.83882E-09
   6.74419E-09  6.64842E-09  6.55157E-09  6.45374E-09  6.35500E-09  6.25547E-09  6.15545E-09  6.05536E-09  5.95596E-09  5.85847E-09
   5.76512E-09  5.68011E-09  5.61182E-09  5.57856E-09  5.62774E-09  5.91444E-09  7.22125E-09  1.14208E-08  1.64734E-08  2.08347E-08
   2.39351E-08  2.57965E-08  2.66068E-08  2.64387E-08  2.51434E-08  2.24283E-08  1.81863E-08  1.30179E-08  8.67601E-09  7.10495E-09
   6.32482E-09  5.82521E-09  5.45966E-09  5.16971E-09  4.92700E-09  4.71592E-09  4.52714E-09  4.35470E-09  4.19463E-09  4.04414E-09
   3.90128E-09  3.76456E-09  3.63289E-09  3.50543E-09  3.38153E-09  3.26069E-09  3.14248E-09  3.02656E-09  2.91270E-09  2.80065E-09
   2.69024E-09  2.58130E-09  2.47375E-09  2.36745E-09  2.26230E-09  2.15828E-09  2.05528E-09  1.95327E-09  1.85220E-09  1.75204E-09
   1.65276E-09  1.55432E-09  1.45671E-09  1.35992E-09  1.26391E-09  1.16871E-09  1.07429E-09  9.80623E-10  8.87731E-10  7.95613E-10
   7.04252E-10  6.13669E-10  5.23834E-10  4.34788E-10  3.46505E-10  2.59010E-10  1.72264E-10  8.63623E-11  1.21747E-12 -8.31248E-11
  -1.66668E-10 -2.49378E-10 -3.31285E-10 -4.12340E-10 -4.92562E-10 -5.71947E-10 -6.50466E-10 -7.28117E-10 -8.04892E-10 -8.80781E-10
  -9.55783E-10 -1.02986E-09 -1.10305E-09 -1.17530E-09 -1.24664E-09 -1.31702E-09 -1.38643E-09 -1.45488E-09 -1.52237E-09 -1.58886E-09
  -1.65437E-09 -1.71886E-09 -1.78233E-09 -1.84481E-09 -1.90622E-09 -1.96661E-09 -2.02592E-09 -2.08417E-09 -2.14136E-09 -2.19746E-09
  -2.25245E-09 -2.30635E-09 -2.35914E-09 -2.41077E-09 -2.46130E-09 -2.51068E-09 -2.55892E-09 -2.60599E-09 -2.65189E-09 -2.69656E-09
  -2.74012E-09 -2.78242E-09 -2.82354E-09 -2.86344E-09 -2.90211E-09 -2.93955E-09 -2.97575E-09 -3.01069E-09 -3.04438E-09 -3.07679E-09
  -3.10793E-09 -3.13779E-09 -3.16635E-09 -3.19362E-09 -3.21958E-09 -3.24422E-09 -3.26754E-09 -3.28953E-09 -3.31018E-09 -3.32949E-09
  -3.34744E-09 -3.36404E-09 -3.37927E-09 -3.39313E-09 -3.40561E-09 -3.41671E-09 -3.42642E-09 -3.43472E-09 -3.44163E-09 -3.44712E-09
  -3.45120E-09 -3.45386E-09 -3.45509E-09 -3.45489E-09 -3.45325E-09 -3.45017E-09 -3.44564E-09 -3.43966E-09 -3.43223E-09 -3.42333E-09
  -3.41296E-09 -3.40112E-09 -3.38781E-09 -3.37302E-09 -3.35674E-09 -3.33898E-09 -3.31972E-09 -3.29898E-09 -3.27673E-09 -3.25299E-09
  -3.22773E-09 -3.20097E-09 -3.17271E-09 -3.14292E-09 -3.11163E-09 -3.07881E-09 -3.04447E-09 -3.00861E-09 -2.97123E-09 -2.93232E-09
  -2.89188E-09 -2.84991E-09 -2.80641E-09 -2.76138E-09 -2.71481E-09 -2.66671E-09 -2.61707E-09 -2.56590E-09 -2.51319E-09 -2.45894E-09
  -2.40315E-09 -2.34582E-09 -2.28696E-09 -2.22655E-09 -2.16461E-09 -2.10113E-09 -2.03612E-09 -1.96957E-09 -1.90148E-09 -1.83186E-09
  -1.76070E-09 -1.68801E-09 -1.61380E-09 -1.53805E-09 -1.46077E-09 -1.38197E-09 -1.30165E-09 -1.21980E-09 -1.13644E-09 -1.05156E-09
  -9.65159E-10 -8.77251E-10 -7.87834E-10
 NY background values follow
     9.904E-09    9.987E-09    1.007E-08    1.015E-08    1.023E-08    1.030E-08    1.038E-08    1.045E-08    1.052E-08    1.059E-08
     1.066E-08    1.072E-08    1.079E-08    1.085E-08    1.091E-08    1.097E-08    1.102E-08    1.108E-08    1.113E-08    1.118E-08
     1.123E-08    1.128E-08    1.133E-08    1.137E-08    1.142E-08    1.146E-08    1.150E-08    1.153E-08    1.157E-08    1.161E-08
     1.164E-08    1.167E-08    1.170E-08    1.173E-08    1.175E-08    1.178E-08    1.180E-08    1.182E-08    1.184E-08    1.186E-08
     1.187E-08    1.189E-08    1.190E-08    1.191E-08    1.192E-08    1.193E-08    1.194E-08    1.194E-08    1.194E-08    1.195E-08
     1.195E-08    1.195E-08    1.194E-08    1.194E-08    1.193E-08    1.192E-08    1.192E-08    1.190E-08    1.189E-08    1.188E-08
     1.186E-08    1.185E-08    1.183E-08    1.181E-08    1.179E-08    1.177E-08    1.174E-08    1.172E-08    1.169E-08    1.166E-08
     1.163E-08    1.160E-08    1.157E-08    1.154E-08    1.150E-08    1.147E-08    1.143E-08    1.139E-08    1.135E-08    1.131E-08
     1.126E-08    1.122E-08    1.117E-08    1.113E-08    1.108E-08    1.103E-08    1.098E-08    1.093E-08    1.088E-08    1.082E-08
     1.077E-08    1.071E-08    1.065E-08    1.059E-08    1.053E-08    1.047E-08    1.041E-08    1.035E-08    1.028E-08    1.022E-08
     1.015E-08    1.009E-08    1.002E-08    9.948E-09    9.877E-09    9.806E-09    9.734E-09    9.660E-09    9.586E-09    9.511E-09
     9.435E-09    9.358E-09    9.280E-09    9.201E-09    9.121E-09    9.041E-09    8.959E-09    8.877E-09    8.794E-09    8.710E-09
     8.625E-09    8.540E-09    8.454E-09    8.367E-09    8.279E-09    8.191E-09    8.102E-09    8.012E-09    7.922E-09    7.831E-09
     7.739E-09    7.647E-09    7.554E-09    7.460E-09    7.366E-09    7.271E-09    7.176E-09    7.080E-09    6.984E-09    6.887E-09
     6.789E-09    6.691E-09    6.593E-09    6.494E-09    6.395E-09    6.296E-09    6.196E-09    6.095E-09    5.994E-09    5.893E-09
     5.792E-09    5.690E-09    5.588E-09    5.485E-09    5.382E-09    5.279E-09    5.176E-09    5.072E-09    4.969E-09    4.865E-09
     4.761E-09    4.656E-09    4.552E-09    4.447E-09    4.342E-09    4.237E-09    4.132E-09    4.027E-09    3.922E-09    3.817E-09
     3.712E-09    3.606E-09    3.501E-09    3.396E-09    3.291E-09    3.185E-09    3.080E-09    2.975E-09    2.870E-09    2.765E-09
     2.660E-09    2.556E-09    2.451E-09    2.347E-09    2.242E-09    2.138E-09    2.035E-09    1.931E-09    1.828E-09    1.724E-09
     1.622E-09    1.519E-09    1.417E-09    1.315E-09    1.213E-09    1.112E-09    1.011E-09    9.100E-10    8.098E-10    7.100E-10
     6.105E-10    5.115E-10    4.130E-10    3.149E-10    2.172E-10    1.201E-10    2.340E-11   -7.275E-11   -1.684E-10   -2.635E-10
    -3.580E-10   -4.519E-10   -5.453E-10   -6.381E-10   -7.303E-10   -8.218E-10   -9.127E-10   -1.003E-09   -1.093E-09   -1.181E-09
    -1.270E-09   -1.357E-09   -1.444E-09   -1.530E-09   -1.615E-09   -1.700E-09   -1.784E-09   -1.867E-09   -1.949E-09   -2.030E-09
    -2.111E-09   -2.191E-09   -2.269E-09   -2.347E-09   -2.425E-09   -2.501E-09   -2.576E-09   -2.651E-09   -2.724E-09   -2.797E-09
    -2.868E-09   -2.939E-09   -3.009E-09   -3.077E-09   -3.145E-09   -3.212E-09   -3.278E-09   -3.342E-09   -3.406E-09   -3.468E-09
    -3.530E-09   -3.590E-09   -3.650E-09   -3.708E-09   -3.765E-09   -3.821E-09   -3.876E-09   -3.930E-09   -3.982E-09   -4.034E-09
    -4.084E-09   -4.133E-09   -4.181E-09   -4.228E-09   -4.273E-09   -4.318E-09   -4.361E-09   -4.402E-09   -4.443E-09   -4.482E-09
    -4.520E-09   -4.557E-09   -4.593E-09   -4.627E-09   -4.660E-09   -4.691E-09   -4.722E-09   -4.751E-09   -4.778E-09   -4.805E-09
    -4.830E-09   -4.853E-09   -4.875E-09   -4.896E-09   -4.916E-09   -4.934E-09   -4.950E-09   -4.966E-09   -4.980E-09   -4.992E-09
    -5.003E-09   -5.013E-09   -5.021E-09   -5.028E-09   -5.033E-09   -5.037E-09   -5.039E-09   -5.040E-09   -5.040E-09   -5.038E-09
    -5.034E-09   -5.029E-09   -5.023E-09   -5.015E-09   -5.006E-09   -4.995E-09   -4.982E-09   -4.968E-09   -4.953E-09   -4.936E-09
    -4.917E-09   -4.897E-09   -4.876E-09   -4.852E-09   -4.828E-09   -4.802E-09   -4.774E-09   -4.745E-09   -4.714E-09   -4.681E-09
    -4.648E-09   -4.612E-09   -4.575E-09   -4.536E-09   -4.496E-09   -4.454E-09   -4.411E-09   -4.366E-09   -4.320E-09   -4.272E-09
    -4.222E-09   -4.171E-09   -4.118E-09   -4.064E-09   -4.008E-09   -3.951E-09   -3.892E-09   -3.831E-09   -3.769E-09   -3.705E-09
    -3.640E-09   -3.573E-09   -3.504E-09   -3.434E-09   -3.363E-09   -3.290E-09   -3.215E-09   -3.138E-09   -3.060E-09   -2.981E-09
    -2.900E-09   -2.817E-09   -2.733E-09   -2.647E-09   -2.560E-09   -2.471E-09   -2.381E-09   -2.289E-09   -2.196E-09   -2.101E-09
    -2.004E-09   -1.906E-09   -1.806E-09
 Asp      Conc. = 1.74E-10
   9.94740E-09  1.00018E-08  1.00635E-08  1.01246E-08  1.01905E-08  1.02598E-08  1.03325E-08  1.04126E-08  1.04920E-08  1.05686E-08
   1.06426E-08  1.07140E-08  1.07831E-08  1.08499E-08  1.09144E-08  1.09769E-08  1.10374E-08  1.10959E-08  1.11526E-08  1.12075E-08
   1.12606E-08  1.13120E-08  1.13617E-08  1.14097E-08  1.14561E-08  1.15009E-08  1.15442E-08  1.15861E-08  1.16265E-08  1.16657E-08
   1.17036E-08  1.17406E-08  1.17767E-08  1.18124E-08  1.18481E-08  1.18850E-08  1.19234E-08  1.19582E-08  1.19885E-08  1.20112E-08
   1.20292E-08  1.20475E-08  1.20738E-08  1.21045E-08  1.21446E-08  1.21774E-08  1.21899E-08  1.21900E-08  1.21944E-08  1.21906E-08
   1.21735E-08  1.21410E-08  1.20927E-08  1.20355E-08  1.19867E-08  1.19531E-08  1.19383E-08  1.19220E-08  1.18946E-08  1.18667E-08
   1.18491E-08  1.18304E-08  1.18109E-08  1.17924E-08  1.17683E-08  1.17395E-08  1.17116E-08  1.16860E-08  1.16602E-08  1.16335E-08
   1.16055E-08  1.15762E-08  1.15455E-08  1.15134E-08  1.14799E-08  1.14450E-08  1.14086E-08  1.13709E-08  1.13318E-08  1.12914E-08
   1.12496E-08  1.12064E-08  1.11620E-08  1.11163E-08  1.10693E-08  1.10210E-08  1.09714E-08  1.09206E-08  1.08686E-08  1.08153E-08
   1.07608E-08  1.07051E-08  1.06482E-08  1.05902E-08  1.05310E-08  1.04707E-08  1.04093E-08  1.03467E-08  1.02831E-08  1.02184E-08
   1.01526E-08  1.00857E-08  1.00178E-08  9.94883E-09  9.87886E-09  9.80791E-09  9.73595E-09  9.66301E-09  9.58911E-09  9.51427E-09
   9.43848E-09  9.36176E-09  9.28414E-09  9.20563E-09  9.12624E-09  9.04598E-09  8.96488E-09  8.88290E-09  8.80014E-09  8.71654E-09
   8.63214E-09  8.54699E-09  8.46105E-09  8.37436E-09  8.28694E-09  8.19878E-09  8.10991E-09  8.02034E-09  7.93010E-09  7.83921E-09
   7.74762E-09  7.65543E-09  7.56260E-09  7.46917E-09  7.37515E-09  7.28057E-09  7.18535E-09  7.08963E-09  6.99339E-09  6.89660E-09
   6.79932E-09  6.70154E-09  6.60330E-09  6.50462E-09  6.40545E-09  6.30585E-09  6.20585E-09  6.10544E-09  6.00465E-09  5.90343E-09
   5.80193E-09  5.70006E-09  5.59784E-09  5.49533E-09  5.39253E-09  5.28944E-09  5.18608E-09  5.08249E-09  4.97871E-09  4.87475E-09
   4.77065E-09  4.66651E-09  4.56250E-09  4.45882E-09  4.35640E-09  4.25755E-09  4.17421E-09  4.14139E-09  4.12420E-09  4.09563E-09
   4.04562E-09  3.97431E-09  3.88506E-09  3.77929E-09  3.65462E-09  3.50594E-09  3.33110E-09  3.13956E-09  2.96048E-09  2.82999E-09
   2.71352E-09  2.60205E-09  2.49301E-09  2.38540E-09  2.27877E-09  2.17287E-09  2.06754E-09  1.96271E-09  1.85831E-09  1.75431E-09
   1.65072E-09  1.54750E-09  1.44465E-09  1.34216E-09  1.24007E-09  1.13836E-09  1.03704E-09  9.36110E-10  8.35608E-10  7.35523E-10
   6.35862E-10  5.36637E-10  4.37897E-10  3.39614E-10  2.41796E-10  1.44495E-10  4.76900E-11 -4.85879E-11 -1.44343E-10 -2.39541E-10
  -3.34174E-10 -4.28240E-10 -5.21718E-10 -6.14595E-10 -7.06865E-10 -7.98485E-10 -8.89476E-10 -9.79819E-10 -1.06949E-09 -1.15847E-09
  -1.24677E-09 -1.33435E-09 -1.42122E-09 -1.50734E-09 -1.59272E-09 -1.67733E-09 -1.76120E-09 -1.84423E-09 -1.92649E-09 -2.00794E-09
  -2.08857E-09 -2.16835E-09 -2.24730E-09 -2.32536E-09 -2.40255E-09 -2.47887E-09 -2.55428E-09 -2.62877E-09 -2.70234E-09 -2.77497E-09
  -2.84667E-09 -2.91738E-09 -2.98714E-09 -3.05591E-09 -3.12370E-09 -3.19047E-09 -3.25622E-09 -3.32093E-09 -3.38462E-09 -3.44724E-09
  -3.50880E-09 -3.56929E-09 -3.62869E-09 -3.68701E-09 -3.74420E-09 -3.80030E-09 -3.85525E-09 -3.90906E-09 -3.96173E-09 -4.01325E-09
  -4.06358E-09 -4.11275E-09 -4.16073E-09 -4.20748E-09 -4.25306E-09 -4.29741E-09 -4.34054E-09 -4.38243E-09 -4.42308E-09 -4.46243E-09
  -4.50058E-09 -4.53741E-09 -4.57298E-09 -4.60726E-09 -4.64024E-09 -4.67191E-09 -4.70227E-09 -4.73130E-09 -4.75900E-09 -4.78536E-09
  -4.81037E-09 -4.83403E-09 -4.85632E-09 -4.87725E-09 -4.89680E-09 -4.91496E-09 -4.93173E-09 -4.94710E-09 -4.96107E-09 -4.97363E-09
  -4.98476E-09 -4.99447E-09 -5.00275E-09 -5.00959E-09 -5.01499E-09 -5.01894E-09 -5.02143E-09 -5.02246E-09 -5.02203E-09 -5.02012E-09
  -5.01673E-09 -5.01186E-09 -5.00551E-09 -4.99766E-09 -4.98831E-09 -4.97746E-09 -4.96511E-09 -4.95124E-09 -4.93586E-09 -4.91896E-09
  -4.90054E-09 -4.88060E-09 -4.85911E-09 -4.83610E-09 -4.81155E-09 -4.78546E-09 -4.75783E-09 -4.72865E-09 -4.69792E-09 -4.66564E-09
  -4.63180E-09 -4.59641E-09 -4.55945E-09 -4.52094E-09 -4.48086E-09 -4.43922E-09 -4.39602E-09 -4.35124E-09 -4.30489E-09 -4.25697E-09
  -4.20749E-09 -4.15642E-09 -4.10379E-09 -4.04958E-09 -3.99380E-09 -3.93644E-09 -3.87750E-09 -3.81699E-09 -3.75490E-09 -3.69124E-09
  -3.62601E-09 -3.55920E-09 -3.49081E-09 -3.42085E-09 -3.34933E-09 -3.27622E-09 -3.20155E-09 -3.12531E-09 -3.04751E-09 -2.96814E-09
  -2.88721E-09 -2.80471E-09 -2.72065E-09 -2.63504E-09 -2.54788E-09 -2.45916E-09 -2.36889E-09 -2.27708E-09 -2.18372E-09 -2.08882E-09
  -1.99239E-09 -1.89442E-09 -1.79492E-09
 Glc      Conc. = 9.19E-10
   1.25479E-08  1.24495E-08  1.22946E-08  1.20787E-08  1.18511E-08  1.16298E-08  1.14588E-08  1.13699E-08  1.13690E-08  1.15137E-08
   1.17330E-08  1.19959E-08  1.23064E-08  1.26583E-08  1.29824E-08  1.31728E-08  1.31881E-08  1.30256E-08  1.27426E-08  1.24123E-08
   1.20274E-08  1.16045E-08  1.11946E-08  1.08561E-08  1.06362E-08  1.05884E-08  1.06789E-08  1.07739E-08  1.08320E-08  1.08481E-08
   1.08474E-08  1.08541E-08  1.08545E-08  1.08518E-08  1.08706E-08  1.09104E-08  1.09437E-08  1.09819E-08  1.10392E-08  1.10984E-08
   1.11541E-08  1.12054E-08  1.12526E-08  1.12957E-08  1.13351E-08  1.13708E-08  1.14032E-08  1.14324E-08  1.14585E-08  1.14816E-08
   1.15021E-08  1.15199E-08  1.15350E-08  1.15478E-08  1.15582E-08  1.15662E-08  1.15720E-08  1.15757E-08  1.15772E-08  1.15766E-08
   1.15740E-08  1.15694E-08  1.15629E-08  1.15544E-08  1.15441E-08  1.15320E-08  1.15181E-08  1.15024E-08  1.14850E-08  1.14659E-08
   1.14450E-08  1.14226E-08  1.13984E-08  1.13727E-08  1.13454E-08  1.13165E-08  1.12860E-08  1.12540E-08  1.12205E-08  1.11855E-08
   1.11491E-08  1.11111E-08  1.10718E-08  1.10311E-08  1.09889E-08  1.09454E-08  1.09004E-08  1.08541E-08  1.08066E-08  1.07577E-08
   1.07075E-08  1.06559E-08  1.06031E-08  1.05491E-08  1.04938E-08  1.04374E-08  1.03797E-08  1.03208E-08  1.02608E-08  1.01996E-08
   1.01372E-08  1.00737E-08  1.00091E-08  9.94346E-09  9.87667E-09  9.80884E-09  9.73994E-09  9.67000E-09  9.59904E-09  9.52707E-09
   9.45410E-09  9.38015E-09  9.30523E-09  9.22937E-09  9.15258E-09  9.07487E-09  8.99627E-09  8.91673E-09  8.83636E-09  8.75510E-09
   8.67300E-09  8.59009E-09  8.50635E-09  8.42180E-09  8.33648E-09  8.25038E-09  8.16352E-09  8.07591E-09  7.98758E-09  7.89856E-09
   7.80880E-09  7.71838E-09  7.62728E-09  7.53554E-09  7.44315E-09  7.35017E-09  7.25650E-09  7.16228E-09  7.06749E-09  6.97211E-09
   6.87619E-09  6.77972E-09  6.68273E-09  6.58526E-09  6.48725E-09  6.38876E-09  6.28981E-09  6.19040E-09  6.09054E-09  5.99021E-09
   5.88954E-09  5.78844E-09  5.68694E-09  5.58509E-09  5.48291E-09  5.38040E-09  5.27760E-09  5.17459E-09  5.07144E-09  4.96826E-09
   4.86523E-09  4.76276E-09  4.66156E-09  4.56307E-09  4.47136E-09  4.39873E-09  4.40577E-09  4.67950E-09  5.03837E-09  5.33880E-09
   5.52635E-09  5.60175E-09  5.58237E-09  5.47584E-09  5.26989E-09  4.93793E-09  4.46778E-09  3.90813E-09  3.41113E-09  3.16961E-09
   3.00335E-09  2.86320E-09  2.73540E-09  2.61457E-09  2.49816E-09  2.38476E-09  2.27352E-09  2.16395E-09  2.05568E-09  1.94848E-09
   1.84221E-09  1.73672E-09  1.63195E-09  1.52781E-09  1.42430E-09  1.32136E-09  1.21897E-09  1.11711E-09  1.01578E-09  9.14975E-10
   8.14676E-10  7.14884E-10  6.15640E-10  5.16905E-10  4.18683E-10  3.21019E-10  2.23884E-10  1.27307E-10  3.12786E-11 -6.41696E-11
  -1.59033E-10 -2.53314E-10 -3.46992E-10 -4.40056E-10 -5.32504E-10 -6.24294E-10 -7.15449E-10 -8.05950E-10 -8.95777E-10 -9.84911E-10
  -1.07336E-09 -1.16108E-09 -1.24810E-09 -1.33437E-09 -1.41991E-09 -1.50467E-09 -1.58869E-09 -1.67188E-09 -1.75430E-09 -1.83591E-09
