 LCModel (Version 6.3-1R) Copyright: S.W. Provencher.          Ref.: Magn. Reson. Med. 30:672-679 (1993).                
 onepulse 28x17_ftSpec_smooth_lcm
 26 lines in following concentration table = NCONC+1
    Conc.  %SD /Cr+PCr  Metabolite                                         
    0.000 999%   0.000 Ala                                                 
 1.03E-09 122%   7.087 Asp                                                 
    0.000 999%   0.000 Cr                                                  
 4.43E-10 210%   3.063 GABA                                                
    0.000 999%   0.000 Glc                                                 
 2.12E-09  50%  14.678 Gln                                                 
    0.000 999%   0.000 Glu                                                 
 6.54E-10 443%   4.518 Glyc                                                
    0.000 999%   0.000 GPC                                                 
 5.46E-10 177%   3.775 GSH                                                 
 1.24E-09 192%   8.590 Ins                                                 
    0.000 999%   0.000 Lac                                                 
 5.66E-10  94%   3.913 NAAG                                                
    0.000 999%   0.000 NAA                                                 
    0.000 999%   0.000 PCh                                                 
 1.45E-10 386%   1.000 PCr                                                 
 1.85E-09  80%  12.760 PE                                                  
 2.81E-10 150%   1.946 Scyllo                                              
 1.20E-09 102%   8.314 Ser                                                 
 4.36E-10 326%   3.017 Tau                                                 
    0.000 999%   0.000 GPC+PCh                                             
 5.66E-10  82%   3.913 NAA+NAAG                                            
 1.90E-09  44%  13.108 Ins+Glyc                                            
 1.45E-10 386%   1.000 Cr+PCr                                              
 2.12E-09  50%  14.678 Glu+Gln                                             
   6 lines in following misc. output table
  FWHM = 0.123 ppm    S/N =   2                                            
  Data shift = 0.414 ppm                                                   
  Ph: -23 deg     -34.7 deg/ppm                                            
  alphaB,S = 7.5E-01,   2.6E+01                                            
    8 spline knots.   Ns = 5(1)                                            
  (12) 4 infls.   ( 7) 3 extrs.                                            
  363 points on ppm-axis = NY
      4.250000     4.238821     4.227641     4.216462     4.205282     4.194103     4.182923     4.171744     4.160564     4.149385
      4.138206     4.127026     4.115847     4.104667     4.093488     4.082308     4.071129     4.059949     4.048770     4.037591
      4.026411     4.015232     4.004052     3.992873     3.981693     3.970514     3.959334     3.948155     3.936975     3.925796
      3.914617     3.903437     3.892258     3.881078     3.869899     3.858719     3.847540     3.836360     3.825181     3.814002
      3.802822     3.791643     3.780463     3.769284     3.758104     3.746925     3.735745     3.724566     3.713387     3.702207
      3.691028     3.679848     3.668669     3.657489     3.646310     3.635130     3.623951     3.612772     3.601592     3.590413
      3.579233     3.568054     3.556874     3.545695     3.534515     3.523336     3.512156     3.500977     3.489798     3.478618
      3.467439     3.456259     3.445080     3.433900     3.422721     3.411541     3.400362     3.389183     3.378003     3.366824
      3.355644     3.344465     3.333285     3.322106     3.310926     3.299747     3.288568     3.277388     3.266209     3.255029
      3.243850     3.232670     3.221491     3.210311     3.199132     3.187953     3.176773     3.165594     3.154414     3.143235
      3.132055     3.120876     3.109696     3.098517     3.087337     3.076158     3.064979     3.053799     3.042620     3.031440
      3.020261     3.009081     2.997902     2.986722     2.975543     2.964364     2.953184     2.942005     2.930825     2.919646
      2.908466     2.897287     2.886107     2.874928     2.863749     2.852569     2.841390     2.830210     2.819031     2.807851
      2.796672     2.785492     2.774313     2.763134     2.751954     2.740775     2.729595     2.718416     2.707236     2.696057
      2.684877     2.673698     2.662519     2.651339     2.640160     2.628980     2.617801     2.606621     2.595442     2.584262
      2.573083     2.561903     2.550724     2.539545     2.528365     2.517186     2.506006     2.494827     2.483647     2.472468
      2.461288     2.450109     2.438930     2.427750     2.416571     2.405391     2.394212     2.383032     2.371853     2.360673
      2.349494     2.338315     2.327135     2.315956     2.304776     2.293597     2.282417     2.271238     2.260058     2.248879
      2.237700     2.226520     2.215341     2.204161     2.192982     2.181802     2.170623     2.159443     2.148264     2.137084
      2.125905     2.114726     2.103546     2.092367     2.081187     2.070008     2.058828     2.047649     2.036469     2.025290
      2.014111     2.002931     1.991752     1.980572     1.969393     1.958213     1.947034     1.935854     1.924675     1.913496
      1.902316     1.891137     1.879957     1.868778     1.857598     1.846419     1.835239     1.824060     1.812881     1.801701
      1.790522     1.779342     1.768163     1.756983     1.745804     1.734624     1.723445     1.712265     1.701086     1.689907
      1.678727     1.667548     1.656368     1.645189     1.634009     1.622830     1.611650     1.600471     1.589292     1.578112
      1.566933     1.555753     1.544574     1.533394     1.522215     1.511035     1.499856     1.488677     1.477497     1.466318
      1.455138     1.443959     1.432779     1.421600     1.410420     1.399241     1.388062     1.376882     1.365703     1.354523
      1.343344     1.332164     1.320985     1.309805     1.298626     1.287446     1.276267     1.265088     1.253908     1.242729
      1.231549     1.220370     1.209190     1.198011     1.186831     1.175652     1.164473     1.153293     1.142114     1.130934
      1.119755     1.108575     1.097396     1.086216     1.075037     1.063858     1.052678     1.041499     1.030319     1.019140
      1.007960     0.996781     0.985601     0.974422     0.963243     0.952063     0.940884     0.929704     0.918525     0.907345
      0.896166     0.884986     0.873807     0.862628     0.851448     0.840269     0.829089     0.817910     0.806730     0.795551
      0.784371     0.773192     0.762012     0.750833     0.739654     0.728474     0.717295     0.706115     0.694936     0.683756
      0.672577     0.661397     0.650218     0.639039     0.627859     0.616680     0.605500     0.594321     0.583141     0.571962
      0.560782     0.549603     0.538424     0.527244     0.516065     0.504885     0.493706     0.482526     0.471347     0.460167
      0.448988     0.437809     0.426629     0.415450     0.404270     0.393091     0.381911     0.370732     0.359552     0.348373
      0.337193     0.326014     0.314835     0.303655     0.292476     0.281296     0.270117     0.258937     0.247758     0.236578
      0.225399     0.214220     0.203040
 NY phased data points follow
   1.20150E-08  9.52076E-09  1.10422E-08  8.62502E-09  1.08581E-08  8.94140E-09  1.09806E-08  9.50086E-09  1.18347E-08  9.37305E-09
   1.18119E-08  9.28286E-09  1.10438E-08  8.97050E-09  1.13375E-08  8.57298E-09  1.03422E-08  8.50791E-09  1.00895E-08  9.21097E-09
   1.13896E-08  8.96353E-09  1.04439E-08  8.91977E-09  1.13786E-08  9.18889E-09  1.23031E-08  1.06831E-08  1.25300E-08  9.79232E-09
   1.08661E-08  8.38168E-09  9.33675E-09  7.08616E-09  9.16027E-09  6.35750E-09  8.12431E-09  6.39367E-09  7.88731E-09  5.63684E-09
   7.55189E-09  5.62446E-09  7.61694E-09  5.71774E-09  6.97035E-09  5.24301E-09  7.04736E-09  5.26166E-09  7.69916E-09  5.24227E-09
   7.13805E-09  5.42647E-09  7.32200E-09  5.98453E-09  7.59274E-09  6.91976E-09  9.35038E-09  8.92135E-09  1.19962E-08  1.11154E-08
   1.18459E-08  1.04062E-08  1.02013E-08  8.26965E-09  8.63070E-09  7.54329E-09  7.79720E-09  6.46564E-09  7.07464E-09  6.37277E-09
   7.70479E-09  6.02264E-09  8.95498E-09  1.00610E-08  1.30051E-08  1.30076E-08  1.49440E-08  1.38503E-08  1.45791E-08  1.32588E-08
   1.33565E-08  1.15644E-08  1.22524E-08  1.09053E-08  1.16524E-08  1.05827E-08  1.04996E-08  9.54621E-09  9.96247E-09  8.38829E-09
   9.30361E-09  7.37835E-09  8.84356E-09  7.73978E-09  8.02615E-09  7.50962E-09  8.12189E-09  7.21562E-09  8.28633E-09  6.68826E-09
   7.65132E-09  7.12725E-09  6.71762E-09  5.80181E-09  6.48993E-09  5.10774E-09  5.64808E-09  5.35101E-09  5.77079E-09  5.55324E-09
   5.91255E-09  5.38833E-09  5.83519E-09  6.26513E-09  6.69532E-09  5.99513E-09  6.23264E-09  5.71128E-09  6.07656E-09  5.28090E-09
   4.52640E-09  4.31776E-09  4.72773E-09  4.91185E-09  5.43170E-09  4.43384E-09  4.74614E-09  4.77606E-09  5.42810E-09  4.20735E-09
   4.79255E-09  4.60142E-09  4.89463E-09  4.44668E-09  5.80281E-09  5.42785E-09  6.48972E-09  6.09251E-09  7.07129E-09  6.81077E-09
   7.55484E-09  7.66107E-09  8.54567E-09  7.75823E-09  8.40795E-09  8.47287E-09  9.01316E-09  8.07918E-09  8.60559E-09  8.12068E-09
   8.65882E-09  8.43747E-09  9.53010E-09  8.14202E-09  9.21117E-09  8.10763E-09  9.09425E-09  8.38888E-09  8.82644E-09  8.28257E-09
   8.61364E-09  8.55681E-09  9.49163E-09  1.01249E-08  1.19739E-08  1.45093E-08  1.66459E-08  1.93074E-08  1.99765E-08  2.02241E-08
   2.05047E-08  1.99736E-08  1.97031E-08  1.89938E-08  1.91612E-08  1.85394E-08  1.82478E-08  1.75191E-08  1.77216E-08  1.68438E-08
   1.64060E-08  1.58658E-08  1.56713E-08  1.42826E-08  1.34977E-08  1.28203E-08  1.09936E-08  9.64645E-09  8.48171E-09  5.38668E-09
   4.11927E-09  2.11471E-09 -8.57210E-10 -3.57296E-09 -5.64789E-09 -8.20483E-09 -1.04715E-08 -1.24877E-08 -1.41548E-08 -1.60070E-08
  -1.60973E-08 -1.65928E-08 -1.66653E-08 -1.60546E-08 -1.53242E-08 -1.39039E-08 -1.28122E-08 -1.13260E-08 -9.23815E-09 -8.00427E-09
  -6.73165E-09 -5.78130E-09 -3.96004E-09 -3.73140E-09 -2.78045E-09 -2.85669E-09 -3.26947E-09 -2.58543E-09 -2.63420E-09 -2.29160E-09
  -2.39925E-09 -1.84711E-09 -2.34408E-09 -2.27134E-09 -2.14706E-09 -1.33036E-09 -1.77396E-09 -1.40721E-09 -1.72372E-09 -1.35546E-09
  -2.18226E-09 -1.91183E-09 -1.87955E-09 -1.13417E-09 -1.03983E-09 -1.21319E-09 -1.65426E-09 -9.78998E-10 -1.59493E-09 -9.50202E-10
  -1.13276E-09 -1.88575E-09 -1.41516E-09 -1.71108E-09 -1.46668E-09 -1.31731E-09 -1.99329E-09 -6.58380E-10 -6.36938E-10 -1.89634E-10
  -1.38479E-09 -5.36308E-10 -4.48760E-10 -3.19033E-10 -1.16698E-09 -7.60261E-10 -1.23776E-09 -7.03623E-10 -1.56163E-09 -1.08318E-09
  -2.04448E-09 -1.78258E-09 -2.04302E-09 -1.77284E-09 -1.89032E-09 -1.40362E-09 -1.70086E-09 -1.38029E-09 -1.65596E-09 -7.51704E-10
  -1.36753E-09 -1.00336E-09 -8.26763E-10  5.06553E-12 -4.72909E-10 -9.11551E-11 -4.13252E-10  1.65738E-10 -8.73370E-10 -1.89135E-10
  -1.51425E-09 -3.57620E-10 -9.30598E-10 -7.54920E-10 -1.21282E-09 -3.12926E-10 -1.34552E-09 -7.37853E-10 -1.45819E-09 -1.11490E-09
  -1.29435E-09 -8.51023E-10 -1.50376E-09 -1.23106E-09 -1.11722E-09 -9.46514E-10 -1.69934E-09 -1.01751E-09 -2.13113E-09 -1.15368E-09
  -2.07079E-09 -1.37255E-09 -1.95023E-09 -1.19617E-09 -1.81754E-09 -1.51852E-09 -1.88157E-09 -1.32414E-09 -2.11662E-09 -1.47571E-09
  -2.40919E-09 -1.40360E-09 -2.41859E-09 -1.09578E-09 -2.13279E-09 -1.88039E-09 -2.58551E-09 -1.53047E-09 -2.45708E-09 -1.96186E-09
  -2.44418E-09 -1.81179E-09 -2.69668E-09 -1.87847E-09 -2.29304E-09 -1.90318E-09 -2.73653E-09 -1.84539E-09 -2.77680E-09 -1.62272E-09
  -2.79379E-09 -2.21941E-09 -2.94887E-09 -1.79989E-09 -3.17990E-09 -2.08108E-09 -2.55708E-09 -2.32240E-09 -3.29671E-09 -2.38361E-09
  -2.97987E-09 -2.27116E-09 -3.34880E-09 -2.29889E-09 -2.86703E-09 -2.20858E-09 -2.69264E-09 -2.28887E-09 -3.81826E-09 -2.78432E-09
  -3.47482E-09 -2.07568E-09 -3.47494E-09 -2.20263E-09 -3.32618E-09 -3.11715E-09 -3.61751E-09 -3.55820E-09 -3.47778E-09 -3.09260E-09
  -3.46783E-09 -2.78084E-09 -3.38051E-09
 NY points of the fit to the data follow
   1.28152E-08  1.16425E-08  1.05751E-08  9.95400E-09  9.79781E-09  9.73568E-09  9.41934E-09  9.30399E-09  1.02967E-08  1.09411E-08
   1.08104E-08  1.06102E-08  1.02154E-08  1.00833E-08  1.00369E-08  9.88350E-09  1.00217E-08  1.03831E-08  1.01793E-08  8.98242E-09
   8.56273E-09  9.19189E-09  9.86287E-09  1.04804E-08  1.10133E-08  1.16777E-08  1.20703E-08  1.17718E-08  1.09348E-08  1.02085E-08
   9.84632E-09  9.28703E-09  8.70555E-09  8.34450E-09  7.91569E-09  7.38994E-09  6.97909E-09  6.91154E-09  6.93137E-09  6.86953E-09
   6.76954E-09  6.64564E-09  6.41555E-09  6.21264E-09  6.23874E-09  6.28759E-09  6.19031E-09  5.90113E-09  5.97628E-09  6.21757E-09
   6.58318E-09  6.96151E-09  7.21038E-09  7.48058E-09  8.08473E-09  8.55376E-09  8.90354E-09  9.71986E-09  1.03287E-08  1.02862E-08
   1.02781E-08  1.03119E-08  1.03355E-08  1.01628E-08  9.71486E-09  9.29211E-09  9.06731E-09  8.62143E-09  8.05981E-09  8.06486E-09
   8.41667E-09  8.85514E-09  9.35741E-09  9.79903E-09  1.05237E-08  1.15026E-08  1.27798E-08  1.37350E-08  1.40610E-08  1.39494E-08
   1.36168E-08  1.30545E-08  1.25045E-08  1.22844E-08  1.18679E-08  1.08487E-08  9.60682E-09  8.48419E-09  7.96210E-09  7.68379E-09
   7.47469E-09  7.34480E-09  7.26248E-09  7.13459E-09  6.99874E-09  6.95066E-09  6.86830E-09  6.76284E-09  6.71151E-09  6.65511E-09
   6.61452E-09  6.59947E-09  6.58629E-09  6.57663E-09  6.57550E-09  6.57997E-09  6.58785E-09  6.59799E-09  6.60916E-09  6.62109E-09
   6.63331E-09  6.64541E-09  6.65711E-09  6.66817E-09  6.67840E-09  6.68765E-09  6.69573E-09  6.70250E-09  6.70781E-09  6.71156E-09
   6.71365E-09  6.71399E-09  6.71249E-09  6.70907E-09  6.70365E-09  6.69616E-09  6.68653E-09  6.67469E-09  6.66059E-09  6.64415E-09
   6.62534E-09  6.60409E-09  6.58035E-09  6.55408E-09  6.52522E-09  6.49374E-09  6.45959E-09  6.42272E-09  6.38311E-09  6.34073E-09
   6.29555E-09  6.24753E-09  6.19667E-09  6.14296E-09  6.08638E-09  6.02694E-09  5.96471E-09  5.89984E-09  5.83252E-09  5.76297E-09
   5.69144E-09  5.61824E-09  5.54371E-09  5.46833E-09  5.39266E-09  5.31746E-09  5.24378E-09  5.17304E-09  5.10739E-09  5.05006E-09
   5.00623E-09  4.98488E-09  5.00270E-09  5.09466E-09  5.34706E-09  6.03660E-09  8.52456E-09  1.56729E-08  2.07698E-08  2.23821E-08
   2.19198E-08  2.08852E-08  2.01527E-08  2.00556E-08  2.04635E-08  2.05174E-08  1.84994E-08  1.29974E-08  6.20715E-09  4.30462E-09
   3.53257E-09  3.08440E-09  2.76873E-09  2.51950E-09  2.30814E-09  2.12038E-09  1.94836E-09  1.78742E-09  1.63461E-09  1.48807E-09
   1.34650E-09  1.20902E-09  1.07504E-09  9.44098E-10  8.15918E-10  6.90267E-10  5.66997E-10  4.46029E-10  3.27293E-10  2.10747E-10
   9.63958E-11 -1.57581E-11 -1.25690E-10 -2.33368E-10 -3.38751E-10 -4.41783E-10 -5.42413E-10 -6.40581E-10 -7.36226E-10 -8.29257E-10
  -9.19638E-10 -1.00727E-09 -1.09208E-09 -1.17400E-09 -1.25295E-09 -1.32884E-09 -1.40158E-09 -1.47112E-09 -1.53736E-09 -1.60034E-09
  -1.66011E-09 -1.71676E-09 -1.77034E-09 -1.82094E-09 -1.86858E-09 -1.91338E-09 -1.95537E-09 -1.99463E-09 -2.03121E-09 -2.06519E-09
  -2.09663E-09 -2.12559E-09 -2.15213E-09 -2.17633E-09 -2.19824E-09 -2.21793E-09 -2.23546E-09 -2.25089E-09 -2.26429E-09 -2.27572E-09
  -2.28524E-09 -2.29292E-09 -2.29883E-09 -2.30301E-09 -2.30553E-09 -2.30646E-09 -2.30586E-09 -2.30380E-09 -2.30033E-09 -2.29551E-09
  -2.28944E-09 -2.28212E-09 -2.27368E-09 -2.26411E-09 -2.25351E-09 -2.24198E-09 -2.22952E-09 -2.21622E-09 -2.20214E-09 -2.18733E-09
  -2.17187E-09 -2.15583E-09 -2.13925E-09 -2.12221E-09 -2.10475E-09 -2.08695E-09 -2.06888E-09 -2.05057E-09 -2.03211E-09 -2.01356E-09
  -1.99497E-09 -1.97640E-09 -1.95793E-09 -1.93960E-09 -1.92151E-09 -1.90367E-09 -1.88618E-09 -1.86910E-09 -1.85246E-09 -1.83636E-09
  -1.82085E-09 -1.80599E-09 -1.79184E-09 -1.77846E-09 -1.76591E-09 -1.75427E-09 -1.74360E-09 -1.73391E-09 -1.72533E-09 -1.71790E-09
  -1.71166E-09 -1.70666E-09 -1.70288E-09 -1.70029E-09 -1.69886E-09 -1.69858E-09 -1.69942E-09 -1.70136E-09 -1.70438E-09 -1.70845E-09
  -1.71356E-09 -1.71967E-09 -1.72677E-09 -1.73483E-09 -1.74383E-09 -1.75374E-09 -1.76456E-09 -1.77625E-09 -1.78879E-09 -1.80215E-09
  -1.81632E-09 -1.83127E-09 -1.84698E-09 -1.86342E-09 -1.88058E-09 -1.89843E-09 -1.91695E-09 -1.93611E-09 -1.95589E-09 -1.97628E-09
  -1.99725E-09 -2.01875E-09 -2.04080E-09 -2.06336E-09 -2.08640E-09 -2.10989E-09 -2.13384E-09 -2.15820E-09 -2.18296E-09 -2.20809E-09
  -2.23357E-09 -2.25938E-09 -2.28549E-09 -2.31187E-09 -2.33853E-09 -2.36541E-09 -2.39251E-09 -2.41980E-09 -2.44726E-09 -2.47485E-09
  -2.50258E-09 -2.53040E-09 -2.55830E-09 -2.58626E-09 -2.61422E-09 -2.64222E-09 -2.67020E-09 -2.69814E-09 -2.72602E-09 -2.75382E-09
  -2.78151E-09 -2.80907E-09 -2.83649E-09 -2.86372E-09 -2.89077E-09 -2.91758E-09 -2.94417E-09 -2.97048E-09 -2.99651E-09 -3.02223E-09
  -3.04761E-09 -3.07264E-09 -3.09730E-09
 NY background values follow
    -1.383E-09   -1.310E-09   -1.237E-09   -1.164E-09   -1.091E-09   -1.019E-09   -9.461E-10   -8.736E-10   -8.012E-10   -7.289E-10
    -6.567E-10   -5.846E-10   -5.126E-10   -4.407E-10   -3.689E-10   -2.972E-10   -2.257E-10   -1.542E-10   -8.285E-11   -1.161E-11
     5.951E-11    1.305E-10    2.014E-10    2.722E-10    3.429E-10    4.135E-10    4.839E-10    5.542E-10    6.245E-10    6.946E-10
     7.646E-10    8.344E-10    9.042E-10    9.738E-10    1.043E-09    1.113E-09    1.182E-09    1.251E-09    1.320E-09    1.389E-09
     1.458E-09    1.527E-09    1.595E-09    1.664E-09    1.732E-09    1.800E-09    1.868E-09    1.936E-09    2.004E-09    2.071E-09
     2.139E-09    2.206E-09    2.274E-09    2.341E-09    2.408E-09    2.475E-09    2.541E-09    2.608E-09    2.674E-09    2.741E-09
     2.807E-09    2.873E-09    2.939E-09    3.005E-09    3.071E-09    3.136E-09    3.201E-09    3.267E-09    3.332E-09    3.397E-09
     3.462E-09    3.526E-09    3.591E-09    3.655E-09    3.720E-09    3.784E-09    3.847E-09    3.911E-09    3.974E-09    4.037E-09
     4.099E-09    4.161E-09    4.222E-09    4.283E-09    4.343E-09    4.403E-09    4.461E-09    4.519E-09    4.577E-09    4.633E-09
     4.689E-09    4.743E-09    4.797E-09    4.849E-09    4.901E-09    4.952E-09    5.001E-09    5.049E-09    5.096E-09    5.142E-09
     5.186E-09    5.229E-09    5.271E-09    5.311E-09    5.349E-09    5.386E-09    5.422E-09    5.456E-09    5.488E-09    5.518E-09
     5.547E-09    5.574E-09    5.599E-09    5.622E-09    5.644E-09    5.663E-09    5.680E-09    5.695E-09    5.708E-09    5.719E-09
     5.728E-09    5.734E-09    5.739E-09    5.740E-09    5.740E-09    5.737E-09    5.732E-09    5.724E-09    5.713E-09    5.700E-09
     5.684E-09    5.666E-09    5.645E-09    5.621E-09    5.594E-09    5.564E-09    5.532E-09    5.496E-09    5.458E-09    5.416E-09
     5.372E-09    5.324E-09    5.273E-09    5.219E-09    5.161E-09    5.101E-09    5.037E-09    4.969E-09    4.899E-09    4.825E-09
     4.749E-09    4.670E-09    4.588E-09    4.503E-09    4.416E-09    4.326E-09    4.233E-09    4.139E-09    4.042E-09    3.943E-09
     3.842E-09    3.739E-09    3.634E-09    3.527E-09    3.419E-09    3.309E-09    3.198E-09    3.085E-09    2.971E-09    2.855E-09
     2.739E-09    2.621E-09    2.503E-09    2.383E-09    2.263E-09    2.142E-09    2.021E-09    1.899E-09    1.776E-09    1.653E-09
     1.530E-09    1.407E-09    1.284E-09    1.161E-09    1.038E-09    9.151E-10    7.926E-10    6.705E-10    5.490E-10    4.279E-10
     3.076E-10    1.880E-10    6.933E-11   -4.844E-11   -1.652E-10   -2.808E-10   -3.951E-10   -5.082E-10   -6.199E-10   -7.301E-10
    -8.386E-10   -9.456E-10   -1.051E-09   -1.154E-09   -1.255E-09   -1.355E-09   -1.452E-09   -1.547E-09   -1.639E-09   -1.730E-09
    -1.817E-09   -1.903E-09   -1.985E-09   -2.065E-09   -2.142E-09   -2.216E-09   -2.287E-09   -2.354E-09   -2.419E-09   -2.480E-09
    -2.539E-09   -2.594E-09   -2.646E-09   -2.695E-09   -2.742E-09   -2.785E-09   -2.826E-09   -2.864E-09   -2.900E-09   -2.932E-09
    -2.963E-09   -2.991E-09   -3.016E-09   -3.040E-09   -3.061E-09   -3.079E-09   -3.096E-09   -3.111E-09   -3.123E-09   -3.134E-09
    -3.143E-09   -3.150E-09   -3.155E-09   -3.158E-09   -3.160E-09   -3.160E-09   -3.159E-09   -3.156E-09   -3.152E-09   -3.147E-09
    -3.140E-09   -3.132E-09   -3.123E-09   -3.113E-09   -3.102E-09   -3.090E-09   -3.077E-09   -3.063E-09   -3.048E-09   -3.033E-09
    -3.017E-09   -3.000E-09   -2.983E-09   -2.966E-09   -2.948E-09   -2.929E-09   -2.911E-09   -2.892E-09   -2.873E-09   -2.854E-09
    -2.835E-09   -2.816E-09   -2.797E-09   -2.778E-09   -2.760E-09   -2.741E-09   -2.723E-09   -2.706E-09   -2.689E-09   -2.672E-09
    -2.656E-09   -2.641E-09   -2.626E-09   -2.613E-09   -2.600E-09   -2.588E-09   -2.576E-09   -2.566E-09   -2.557E-09   -2.550E-09
    -2.543E-09   -2.537E-09   -2.533E-09   -2.530E-09   -2.528E-09   -2.528E-09   -2.528E-09   -2.530E-09   -2.532E-09   -2.536E-09
    -2.541E-09   -2.546E-09   -2.553E-09   -2.561E-09   -2.569E-09   -2.579E-09   -2.589E-09   -2.601E-09   -2.613E-09   -2.626E-09
    -2.640E-09   -2.654E-09   -2.670E-09   -2.686E-09   -2.702E-09   -2.720E-09   -2.738E-09   -2.757E-09   -2.776E-09   -2.796E-09
    -2.817E-09   -2.838E-09   -2.859E-09   -2.882E-09   -2.904E-09   -2.927E-09   -2.951E-09   -2.975E-09   -2.999E-09   -3.024E-09
    -3.049E-09   -3.075E-09   -3.100E-09   -3.126E-09   -3.152E-09   -3.179E-09   -3.206E-09   -3.233E-09   -3.260E-09   -3.287E-09
    -3.314E-09   -3.342E-09   -3.369E-09   -3.397E-09   -3.424E-09   -3.452E-09   -3.479E-09   -3.507E-09   -3.534E-09   -3.562E-09
    -3.589E-09   -3.616E-09   -3.643E-09   -3.670E-09   -3.697E-09   -3.723E-09   -3.749E-09   -3.775E-09   -3.801E-09   -3.826E-09
    -3.851E-09   -3.875E-09   -3.900E-09
 Asp      Conc. = 1.03E-09
  -3.12507E-10 -4.05992E-10 -4.41591E-10 -4.98787E-10 -5.15476E-10 -5.74027E-10 -6.38742E-10 -6.69894E-10 -6.45412E-10 -6.00214E-10
  -5.45243E-10 -4.84540E-10 -4.19598E-10 -3.51470E-10 -2.82637E-10 -2.13210E-10 -1.43138E-10 -7.25216E-11 -1.43353E-12  7.00744E-11
   1.41967E-10  2.14232E-10  2.86885E-10  3.59954E-10  4.33502E-10  5.07593E-10  5.82358E-10  6.57946E-10  7.34597E-10  8.12645E-10
   8.92564E-10  9.75113E-10  1.06153E-09  1.15399E-09  1.25701E-09  1.38178E-09  1.55413E-09  1.70173E-09  1.85259E-09  1.94228E-09
   1.99476E-09  2.06219E-09  2.22330E-09  2.49248E-09  2.85942E-09  3.24609E-09  3.38050E-09  3.33143E-09  3.43998E-09  3.58511E-09
   3.75970E-09  3.92954E-09  3.99917E-09  3.88549E-09  3.65405E-09  3.44540E-09  3.36979E-09  3.46904E-09  3.47104E-09  3.34152E-09
   3.31194E-09  3.30481E-09  3.29658E-09  3.35804E-09  3.43893E-09  3.47173E-09  3.46155E-09  3.48288E-09  3.51926E-09  3.56360E-09
   3.61277E-09  3.66513E-09  3.71967E-09  3.77581E-09  3.83310E-09  3.89121E-09  3.94989E-09  4.00893E-09  4.06817E-09  4.12748E-09
   4.18675E-09  4.24586E-09  4.30473E-09  4.36327E-09  4.42141E-09  4.47907E-09  4.53620E-09  4.59272E-09  4.64858E-09  4.70372E-09
   4.75809E-09  4.81161E-09  4.86426E-09  4.91597E-09  4.96669E-09  5.01637E-09  5.06497E-09  5.11243E-09  5.15870E-09  5.20374E-09
   5.24750E-09  5.28993E-09  5.33099E-09  5.37063E-09  5.40880E-09  5.44546E-09  5.48055E-09  5.51404E-09  5.54588E-09  5.57603E-09
   5.60443E-09  5.63105E-09  5.65583E-09  5.67874E-09  5.69972E-09  5.71874E-09  5.73574E-09  5.75069E-09  5.76354E-09  5.77423E-09
   5.78275E-09  5.78902E-09  5.79301E-09  5.79468E-09  5.79398E-09  5.79087E-09  5.78530E-09  5.77723E-09  5.76661E-09  5.75340E-09
   5.73756E-09  5.71904E-09  5.69780E-09  5.67380E-09  5.64699E-09  5.61733E-09  5.58476E-09  5.54926E-09  5.51078E-09  5.46928E-09
   5.42472E-09  5.37704E-09  5.32621E-09  5.27221E-09  5.21497E-09  5.15446E-09  5.09068E-09  5.02372E-09  4.95368E-09  4.88067E-09
   4.80479E-09  4.72615E-09  4.64487E-09  4.56108E-09  4.47491E-09  4.38652E-09  4.29609E-09  4.20385E-09  4.11009E-09  4.01520E-09
   3.91976E-09  3.82475E-09  3.73186E-09  3.64460E-09  3.57150E-09  3.53978E-09  3.68374E-09  4.27959E-09  4.67242E-09  4.72440E-09
   4.57370E-09  4.36673E-09  4.18865E-09  4.07182E-09  4.00337E-09  3.89921E-09  3.59157E-09  2.94357E-09  2.17208E-09  1.87701E-09
   1.69101E-09  1.53629E-09  1.39437E-09  1.25895E-09  1.12733E-09  9.98207E-10  8.70899E-10  7.45046E-10  6.20417E-10  4.96927E-10
   3.74538E-10  2.53230E-10  1.33037E-10  1.39936E-11 -1.03836E-10 -2.20404E-10 -3.35648E-10 -4.49473E-10 -5.61814E-10 -6.72603E-10
  -7.81744E-10 -8.89163E-10 -9.94771E-10 -1.09849E-09 -1.20022E-09 -1.29988E-09 -1.39739E-09 -1.49266E-09 -1.58560E-09 -1.67611E-09
  -1.76412E-09 -1.84953E-09 -1.93224E-09 -2.01219E-09 -2.08927E-09 -2.16339E-09 -2.23446E-09 -2.30240E-09 -2.36712E-09 -2.42865E-09
  -2.48703E-09 -2.54237E-09 -2.59468E-09 -2.64406E-09 -2.69053E-09 -2.73421E-09 -2.77512E-09 -2.81333E-09 -2.84891E-09 -2.88191E-09
  -2.91241E-09 -2.94046E-09 -2.96612E-09 -2.98945E-09 -3.01054E-09 -3.02941E-09 -3.04616E-09 -3.06083E-09 -3.07348E-09 -3.08418E-09
  -3.09299E-09 -3.09999E-09 -3.10521E-09 -3.10874E-09 -3.11061E-09 -3.11091E-09 -3.10969E-09 -3.10702E-09 -3.10296E-09 -3.09756E-09
  -3.09091E-09 -3.08303E-09 -3.07404E-09 -3.06392E-09 -3.05279E-09 -3.04073E-09 -3.02775E-09 -3.01394E-09 -2.99936E-09 -2.98405E-09
  -2.96810E-09 -2.95158E-09 -2.93453E-09 -2.91701E-09 -2.89909E-09 -2.88083E-09 -2.86231E-09 -2.84354E-09 -2.82464E-09 -2.80565E-09
  -2.78662E-09 -2.76762E-09 -2.74873E-09 -2.72997E-09 -2.71146E-09 -2.69320E-09 -2.67530E-09 -2.65781E-09 -2.64077E-09 -2.62426E-09
  -2.60835E-09 -2.59309E-09 -2.57855E-09 -2.56477E-09 -2.55183E-09 -2.53980E-09 -2.52874E-09 -2.51867E-09 -2.50971E-09 -2.50190E-09
  -2.49528E-09 -2.48990E-09 -2.48574E-09 -2.48278E-09 -2.48097E-09 -2.48033E-09 -2.48079E-09 -2.48237E-09 -2.48502E-09 -2.48872E-09
  -2.49346E-09 -2.49920E-09 -2.50594E-09 -2.51364E-09 -2.52227E-09 -2.53183E-09 -2.54228E-09 -2.55361E-09 -2.56578E-09 -2.57879E-09
  -2.59259E-09 -2.60718E-09 -2.62253E-09 -2.63861E-09 -2.65541E-09 -2.67290E-09 -2.69106E-09 -2.70986E-09 -2.72928E-09 -2.74931E-09
  -2.76991E-09 -2.79106E-09 -2.81274E-09 -2.83494E-09 -2.85762E-09 -2.88075E-09 -2.90433E-09 -2.92833E-09 -2.95273E-09 -2.97749E-09
  -3.00261E-09 -3.02805E-09 -3.05379E-09 -3.07981E-09 -3.10609E-09 -3.13261E-09 -3.15934E-09 -3.18625E-09 -3.21335E-09 -3.24056E-09
  -3.26792E-09 -3.29536E-09 -3.32288E-09 -3.35046E-09 -3.37805E-09 -3.40567E-09 -3.43326E-09 -3.46082E-09 -3.48831E-09 -3.51573E-09
  -3.54304E-09 -3.57021E-09 -3.59723E-09 -3.62407E-09 -3.65072E-09 -3.67714E-09 -3.70334E-09 -3.72925E-09 -3.75487E-09 -3.78019E-09
  -3.80517E-09 -3.82979E-09 -3.85404E-09
 GABA     Conc. = 4.43E-10
  -1.33676E-09 -1.26303E-09 -1.18936E-09 -1.11573E-09 -1.04215E-09 -9.68623E-10 -8.95120E-10 -8.21640E-10 -7.48182E-10 -6.74705E-10
  -6.01226E-10 -5.27714E-10 -4.54120E-10 -3.80468E-10 -3.06661E-10 -2.32679E-10 -1.58548E-10 -8.40965E-11 -9.22484E-12  6.61058E-11
   1.42141E-10  2.19136E-10  2.97441E-10  3.77633E-10  4.60593E-10  5.47766E-10  6.42115E-10  7.49852E-10  8.87858E-10  1.10001E-09
   1.24706E-09  1.35762E-09  1.61425E-09  1.83489E-09  1.94028E-09  2.07711E-09  2.21155E-09  2.30105E-09  2.33130E-09  2.30991E-09
   2.28285E-09  2.31720E-09  2.25453E-09  2.11968E-09  2.13410E-09  2.15345E-09  2.10223E-09  2.10928E-09  2.14752E-09  2.19887E-09
   2.25732E-09  2.31999E-09  2.38570E-09  2.45402E-09  2.52476E-09  2.59803E-09  2.67442E-09  2.75503E-09  2.84215E-09  2.94025E-09
   3.05996E-09  3.23331E-09  3.43858E-09  3.56378E-09  3.72604E-09  3.95267E-09  4.08182E-09  4.15356E-09  4.23735E-09  4.30928E-09
   4.34462E-09  4.32958E-09  4.27856E-09  4.25306E-09  4.24674E-09  4.14520E-09  4.09043E-09  4.14554E-09  4.16446E-09  4.19817E-09
   4.29290E-09  4.35537E-09  4.43871E-09  4.60761E-09  4.72669E-09  4.81382E-09  4.95343E-09  5.07932E-09  5.17473E-09  5.25312E-09
   5.30196E-09  5.35571E-09  5.41794E-09  5.40203E-09  5.37177E-09  5.41372E-09  5.40347E-09  5.35999E-09  5.37041E-09  5.38102E-09
   5.38289E-09  5.39688E-09  5.41789E-09  5.44260E-09  5.46920E-09  5.49653E-09  5.52397E-09  5.55112E-09  5.57766E-09  5.60337E-09
   5.62797E-09  5.65124E-09  5.67307E-09  5.69336E-09  5.71203E-09  5.72902E-09  5.74423E-09  5.75757E-09  5.76895E-09  5.77831E-09
   5.78561E-09  5.79078E-09  5.79377E-09  5.79451E-09  5.79296E-09  5.78906E-09  5.78276E-09  5.77401E-09  5.76276E-09  5.74896E-09
   5.73257E-09  5.71353E-09  5.69179E-09  5.66732E-09  5.64007E-09  5.60999E-09  5.57703E-09  5.54114E-09  5.50228E-09  5.46041E-09
   5.41549E-09  5.36746E-09  5.31628E-09  5.26192E-09  5.20432E-09  5.14344E-09  5.07928E-09  5.01193E-09  4.94147E-09  4.86800E-09
   4.79162E-09  4.71243E-09  4.63052E-09  4.54602E-09  4.45902E-09  4.36964E-09  4.27802E-09  4.18430E-09  4.08866E-09  3.99131E-09
   3.89257E-09  3.79288E-09  3.69303E-09  3.59452E-09  3.50099E-09  3.42367E-09  3.41711E-09  3.61278E-09  3.72270E-09  3.68254E-09
   3.55177E-09  3.39480E-09  3.24939E-09  3.13016E-09  3.03229E-09  2.92037E-09  2.72181E-09  2.37416E-09  1.96457E-09  1.76477E-09
   1.61409E-09  1.47718E-09  1.34584E-09  1.21737E-09  1.09061E-09  9.65059E-10  8.40465E-10  7.16733E-10  5.93800E-10  4.71691E-10
   3.50443E-10  2.30091E-10  1.10707E-10 -7.64377E-12 -1.24876E-10 -2.40926E-10 -3.55714E-10 -4.69139E-10 -5.81126E-10 -6.91598E-10
  -8.00458E-10 -9.07622E-10 -1.01300E-09 -1.11651E-09 -1.21806E-09 -1.31755E-09 -1.41490E-09 -1.51002E-09 -1.60283E-09 -1.69322E-09
  -1.78112E-09 -1.86642E-09 -1.94904E-09 -2.02889E-09 -2.10589E-09 -2.17993E-09 -2.25093E-09 -2.31881E-09 -2.38346E-09 -2.44493E-09
  -2.50326E-09 -2.55854E-09 -2.61080E-09 -2.66013E-09 -2.70656E-09 -2.75019E-09 -2.79106E-09 -2.82923E-09 -2.86478E-09 -2.89774E-09
