 LCModel (Version 6.3-1R) Copyright: S.W. Provencher.          Ref.: Magn. Reson. Med. 30:672-679 (1993).                
 onepulse 28x13_ftSpec_smooth_lcm
 26 lines in following concentration table = NCONC+1
    Conc.  %SD /Cr+PCr  Metabolite                                         
    0.000 999%   0.000 Ala                                                 
    0.000 999%   0.000 Asp                                                 
    0.000 999%   0.000 Cr                                                  
    0.000 999%   0.000 GABA                                                
    0.000 999%   0.000 Glc                                                 
    0.000 999%   0.000 Gln                                                 
    0.000 999%   0.000 Glu                                                 
    0.000 999%   0.000 Glyc                                                
    0.000 999%   0.000 GPC                                                 
 1.58E-09  23%   3.525 GSH                                                 
 2.21E-09  12%   4.933 Ins                                                 
    0.000 999%   0.000 Lac                                                 
 1.42E-10 190%   0.317 NAAG                                                
 3.90E-10  94%   0.870 NAA                                                 
    0.000 999%   0.000 PCh                                                 
 4.48E-10  53%   1.000 PCr                                                 
 3.14E-09  20%   7.004 PE                                                  
 2.18E-10  71%   0.486 Scyllo                                              
 2.00E-09  47%   4.474 Ser                                                 
    0.000 999%   0.000 Tau                                                 
    0.000 999%   0.000 GPC+PCh                                             
 5.32E-10  40%   1.188 NAA+NAAG                                            
 2.21E-09  12%   4.933 Ins+Glyc                                            
 4.48E-10  53%   1.000 Cr+PCr                                              
    0.000 999%   0.000 Glu+Gln                                             
   6 lines in following misc. output table
  FWHM = 0.123 ppm    S/N =   3                                            
  Data shift = 0.470 ppm                                                   
  Ph: 114 deg       2.9 deg/ppm                                            
  alphaB,S = 1.4E+00,   2.3E+01                                            
    9 spline knots.   Ns = 5(1)                                            
  ( 9)10 infls.   (11) 5 extrs.                                            
  363 points on ppm-axis = NY
      4.250000     4.238821     4.227641     4.216462     4.205282     4.194103     4.182923     4.171744     4.160564     4.149385
      4.138206     4.127026     4.115847     4.104667     4.093488     4.082308     4.071129     4.059949     4.048770     4.037591
      4.026411     4.015232     4.004052     3.992873     3.981693     3.970514     3.959334     3.948155     3.936975     3.925796
      3.914617     3.903437     3.892258     3.881078     3.869899     3.858719     3.847540     3.836360     3.825181     3.814002
      3.802822     3.791643     3.780463     3.769284     3.758104     3.746925     3.735745     3.724566     3.713387     3.702207
      3.691028     3.679848     3.668669     3.657489     3.646310     3.635130     3.623951     3.612772     3.601592     3.590413
      3.579233     3.568054     3.556874     3.545695     3.534515     3.523336     3.512156     3.500977     3.489798     3.478618
      3.467439     3.456259     3.445080     3.433900     3.422721     3.411541     3.400362     3.389183     3.378003     3.366824
      3.355644     3.344465     3.333285     3.322106     3.310926     3.299747     3.288568     3.277388     3.266209     3.255029
      3.243850     3.232670     3.221491     3.210311     3.199132     3.187953     3.176773     3.165594     3.154414     3.143235
      3.132055     3.120876     3.109696     3.098517     3.087337     3.076158     3.064979     3.053799     3.042620     3.031440
      3.020261     3.009081     2.997902     2.986722     2.975543     2.964364     2.953184     2.942005     2.930825     2.919646
      2.908466     2.897287     2.886107     2.874928     2.863749     2.852569     2.841390     2.830210     2.819031     2.807851
      2.796672     2.785492     2.774313     2.763134     2.751954     2.740775     2.729595     2.718416     2.707236     2.696057
      2.684877     2.673698     2.662519     2.651339     2.640160     2.628980     2.617801     2.606621     2.595442     2.584262
      2.573083     2.561903     2.550724     2.539545     2.528365     2.517186     2.506006     2.494827     2.483647     2.472468
      2.461288     2.450109     2.438930     2.427750     2.416571     2.405391     2.394212     2.383032     2.371853     2.360673
      2.349494     2.338315     2.327135     2.315956     2.304776     2.293597     2.282417     2.271238     2.260058     2.248879
      2.237700     2.226520     2.215341     2.204161     2.192982     2.181802     2.170623     2.159443     2.148264     2.137084
      2.125905     2.114726     2.103546     2.092367     2.081187     2.070008     2.058828     2.047649     2.036469     2.025290
      2.014111     2.002931     1.991752     1.980572     1.969393     1.958213     1.947034     1.935854     1.924675     1.913496
      1.902316     1.891137     1.879957     1.868778     1.857598     1.846419     1.835239     1.824060     1.812881     1.801701
      1.790522     1.779342     1.768163     1.756983     1.745804     1.734624     1.723445     1.712265     1.701086     1.689907
      1.678727     1.667548     1.656368     1.645189     1.634009     1.622830     1.611650     1.600471     1.589292     1.578112
      1.566933     1.555753     1.544574     1.533394     1.522215     1.511035     1.499856     1.488677     1.477497     1.466318
      1.455138     1.443959     1.432779     1.421600     1.410420     1.399241     1.388062     1.376882     1.365703     1.354523
      1.343344     1.332164     1.320985     1.309805     1.298626     1.287446     1.276267     1.265088     1.253908     1.242729
      1.231549     1.220370     1.209190     1.198011     1.186831     1.175652     1.164473     1.153293     1.142114     1.130934
      1.119755     1.108575     1.097396     1.086216     1.075037     1.063858     1.052678     1.041499     1.030319     1.019140
      1.007960     0.996781     0.985601     0.974422     0.963243     0.952063     0.940884     0.929704     0.918525     0.907345
      0.896166     0.884986     0.873807     0.862628     0.851448     0.840269     0.829089     0.817910     0.806730     0.795551
      0.784371     0.773192     0.762012     0.750833     0.739654     0.728474     0.717295     0.706115     0.694936     0.683756
      0.672577     0.661397     0.650218     0.639039     0.627859     0.616680     0.605500     0.594321     0.583141     0.571962
      0.560782     0.549603     0.538424     0.527244     0.516065     0.504885     0.493706     0.482526     0.471347     0.460167
      0.448988     0.437809     0.426629     0.415450     0.404270     0.393091     0.381911     0.370732     0.359552     0.348373
      0.337193     0.326014     0.314835     0.303655     0.292476     0.281296     0.270117     0.258937     0.247758     0.236578
      0.225399     0.214220     0.203040
 NY phased data points follow
   1.01085E-08  9.47810E-09  1.07556E-08  1.00976E-08  1.16011E-08  1.11811E-08  1.15541E-08  1.07602E-08  1.11183E-08  1.08960E-08
   1.07113E-08  9.38004E-09  9.54004E-09  9.29227E-09  1.04018E-08  1.05802E-08  1.08693E-08  9.59429E-09  9.35443E-09  8.83722E-09
   9.61286E-09  1.07013E-08  1.21746E-08  1.21057E-08  1.31347E-08  1.18515E-08  1.10227E-08  9.80502E-09  1.02212E-08  9.72056E-09
   9.83230E-09  9.33910E-09  9.07089E-09  8.81544E-09  8.51693E-09  8.51147E-09  7.95999E-09  6.95836E-09  7.15768E-09  6.63919E-09
   6.92733E-09  6.71533E-09  6.82016E-09  6.55809E-09  5.88627E-09  5.06549E-09  4.89007E-09  4.70018E-09  5.29882E-09  4.78480E-09
   3.61418E-09  4.51216E-09  6.01207E-09  8.29329E-09  1.01079E-08  1.03714E-08  9.65979E-09  9.05044E-09  8.49992E-09  7.72259E-09
   7.43427E-09  6.69927E-09  5.89296E-09  5.53697E-09  5.05996E-09  4.35247E-09  2.90417E-09  2.21208E-09  3.21362E-09  6.44219E-09
   1.00692E-08  1.19862E-08  1.15259E-08  1.14496E-08  1.13256E-08  1.18096E-08  1.07681E-08  1.08315E-08  1.02246E-08  1.08789E-08
   1.07980E-08  1.11706E-08  1.04118E-08  1.04854E-08  9.53431E-09  9.79489E-09  8.93670E-09  9.28462E-09  8.61087E-09  8.98071E-09
   7.58879E-09  8.26935E-09  7.30512E-09  8.40039E-09  7.35075E-09  7.90320E-09  8.28291E-09  8.27095E-09  7.53137E-09  6.91123E-09
   6.02406E-09  5.18378E-09  5.60172E-09  5.66367E-09  5.50674E-09  5.66204E-09  5.04460E-09  6.03688E-09  5.42403E-09  5.86559E-09
   5.78860E-09  6.26106E-09  6.03205E-09  6.15715E-09  5.19817E-09  4.58330E-09  4.08294E-09  3.68608E-09  3.78489E-09  4.47725E-09
   4.01570E-09  4.08727E-09  3.58516E-09  3.98921E-09  3.71736E-09  3.98469E-09  3.74929E-09  3.46518E-09  2.20782E-09  2.92653E-09
   3.72830E-09  4.85237E-09  4.61602E-09  4.65378E-09  4.17221E-09  4.67815E-09  4.94632E-09  6.57752E-09  5.77336E-09  6.38053E-09
   6.20096E-09  7.15915E-09  5.80946E-09  6.76812E-09  5.99839E-09  6.41563E-09  5.43986E-09  6.44144E-09  6.20193E-09  6.02425E-09
   5.01118E-09  5.98087E-09  5.22602E-09  5.46699E-09  4.85986E-09  5.27718E-09  4.62894E-09  3.86684E-09  1.07152E-09  1.28705E-11
   1.53037E-09  6.89709E-09  1.16728E-08  1.45341E-08  1.45172E-08  1.51836E-08  1.49393E-08  1.61198E-08  1.59818E-08  1.68218E-08
   1.65536E-08  1.76011E-08  1.73945E-08  1.80367E-08  1.75501E-08  1.81263E-08  1.70694E-08  1.71370E-08  1.68249E-08  1.62301E-08
   1.55482E-08  1.50555E-08  1.31799E-08  1.24108E-08  9.74706E-09  9.04173E-09  7.34119E-09  5.69167E-09  3.27277E-09  1.96537E-09
   1.23818E-10 -1.45395E-09 -2.91710E-09 -3.34125E-09 -4.83471E-09 -4.88571E-09 -5.80833E-09 -5.23193E-09 -4.76614E-09 -3.88610E-09
  -4.20492E-09 -3.57747E-09 -3.09914E-09 -2.39697E-09 -2.46907E-09 -1.09797E-09 -1.78148E-09 -5.45552E-10 -1.52749E-09 -8.11387E-10
  -1.47861E-09 -1.34148E-09 -1.16253E-09 -7.97535E-10 -9.08982E-10 -4.69986E-10 -7.11210E-10 -4.87683E-10 -1.08858E-09 -1.73772E-10
  -8.50362E-10 -7.24648E-10 -6.68943E-10 -2.36538E-10 -8.22644E-10 -9.88598E-10 -9.55375E-10 -2.81546E-10 -6.41224E-10 -2.10814E-10
  -4.86736E-10 -2.04487E-10 -5.52474E-10 -6.19333E-10 -1.04636E-09 -5.82068E-10 -1.30771E-09 -9.01655E-10 -1.19603E-09 -9.57289E-10
  -1.03486E-09 -7.50884E-10 -8.03419E-10 -3.27423E-10 -4.81029E-10 -9.61249E-11 -1.00793E-10  4.65419E-11 -3.94320E-10 -4.26694E-10
  -1.28098E-10 -1.92227E-10 -2.23144E-11 -1.40446E-10 -1.16379E-09 -6.59925E-10 -1.55960E-09 -1.27631E-09 -1.56100E-09 -1.57459E-09
  -1.77111E-09 -2.19681E-09 -1.36670E-09 -1.52689E-09 -1.82166E-09 -9.39855E-10 -1.48149E-09 -5.82676E-10 -7.48656E-10 -1.07236E-10
  -1.88184E-11 -5.43260E-13 -1.79079E-10 -7.59948E-11 -6.39899E-10  9.30057E-11 -3.47647E-10 -1.72643E-10 -4.93519E-10  1.20513E-10
  -8.09250E-10 -1.84439E-10 -1.73832E-10 -2.26744E-10 -3.06913E-10  2.66603E-10 -3.54144E-10 -3.22995E-10 -7.41628E-11 -4.92048E-10
  -3.49916E-10 -3.71036E-10 -7.16209E-11 -4.56893E-10 -6.41296E-10 -5.93858E-10 -2.72686E-10 -5.22902E-10 -4.96590E-10 -4.42317E-10
  -7.77145E-10 -7.10429E-10 -7.97074E-10 -8.56626E-10 -8.66501E-10 -2.28973E-10 -5.20069E-10 -7.06113E-10 -5.26999E-10 -5.52646E-10
  -9.28957E-10 -5.40788E-10 -1.15792E-09 -9.02897E-10 -1.15157E-09 -1.19691E-09 -9.69119E-10 -8.56581E-10 -8.38076E-10 -1.06889E-09
  -9.76421E-10 -7.30712E-10 -1.13788E-09 -1.01617E-09 -9.23971E-10 -1.16064E-09 -1.06876E-09 -1.05900E-09 -1.09865E-09 -9.20509E-10
  -9.41080E-10 -1.06557E-09 -7.51913E-10 -1.01974E-09 -1.58459E-09 -1.20867E-09 -1.26453E-09 -1.16492E-09 -1.37992E-09 -1.18559E-09
  -9.23699E-10 -1.00631E-09 -9.54216E-10 -9.46532E-10 -1.49624E-09 -1.69408E-09 -6.63048E-10 -1.51662E-09 -1.44518E-09 -1.15277E-09
  -1.02482E-09 -1.33557E-09 -1.43360E-09 -1.58956E-09 -1.26676E-09 -1.22498E-09 -1.50704E-09 -1.55983E-09 -7.98974E-10 -1.38104E-09
  -1.40359E-09 -1.20550E-09 -1.27851E-09
 NY points of the fit to the data follow
   1.22988E-08  1.04131E-08  9.86913E-09  1.01673E-08  1.08302E-08  1.14262E-08  1.12944E-08  1.12197E-08  1.14286E-08  1.04251E-08
   9.79154E-09  9.55278E-09  9.63623E-09  1.02948E-08  1.02662E-08  9.79834E-09  9.81617E-09  1.07511E-08  9.98265E-09  8.38148E-09
   8.85366E-09  1.04133E-08  1.15327E-08  1.19510E-08  1.21843E-08  1.25695E-08  1.22014E-08  1.12147E-08  1.01527E-08  9.93240E-09
   9.75590E-09  9.50035E-09  8.70387E-09  7.96945E-09  7.85195E-09  7.32169E-09  7.19118E-09  7.60673E-09  7.72326E-09  7.65952E-09
   7.40233E-09  6.76428E-09  5.95275E-09  5.74319E-09  5.33643E-09  4.90622E-09  5.04293E-09  4.82490E-09  5.14788E-09  5.78939E-09
   6.54534E-09  7.08134E-09  7.28615E-09  7.70636E-09  8.11765E-09  8.09529E-09  8.19890E-09  8.29923E-09  8.22016E-09  7.95327E-09
   7.61789E-09  7.24819E-09  7.15495E-09  7.06542E-09  6.70683E-09  6.70324E-09  7.01383E-09  7.10781E-09  7.27518E-09  7.78038E-09
   8.36870E-09  8.59117E-09  9.04382E-09  9.50910E-09  9.73512E-09  1.02231E-08  1.08030E-08  1.14825E-08  1.14238E-08  1.09394E-08
   1.02631E-08  9.83002E-09  9.61032E-09  9.07215E-09  8.73913E-09  8.42810E-09  7.59941E-09  6.64597E-09  5.78939E-09  5.75784E-09
   5.83169E-09  5.91421E-09  5.98444E-09  6.04683E-09  6.09575E-09  6.13898E-09  6.17731E-09  6.20948E-09  6.23484E-09  6.25242E-09
   6.27361E-09  6.29242E-09  6.30350E-09  6.31115E-09  6.31699E-09  6.32064E-09  6.32172E-09  6.32028E-09  6.31629E-09  6.30988E-09
   6.30122E-09  6.29032E-09  6.27734E-09  6.26228E-09  6.24528E-09  6.22637E-09  6.20563E-09  6.18311E-09  6.15886E-09  6.13301E-09
   6.10544E-09  6.07633E-09  6.04569E-09  6.01358E-09  5.98002E-09  5.94507E-09  5.90875E-09  5.87112E-09  5.83220E-09  5.79204E-09
   5.75065E-09  5.70809E-09  5.66437E-09  5.61955E-09  5.57363E-09  5.52666E-09  5.47865E-09  5.42965E-09  5.37970E-09  5.32880E-09
   5.27702E-09  5.22436E-09  5.17086E-09  5.11660E-09  5.06156E-09  5.00581E-09  4.94941E-09  4.89243E-09  4.83491E-09  4.77698E-09
   4.71875E-09  4.66033E-09  4.60193E-09  4.54385E-09  4.48636E-09  4.42998E-09  4.37547E-09  4.32385E-09  4.27675E-09  4.23686E-09
   4.20856E-09  4.19998E-09  4.22697E-09  4.32484E-09  4.58749E-09  5.35039E-09  8.43127E-09  1.45734E-08  1.81177E-08  1.84326E-08
   1.78573E-08  1.77023E-08  1.79602E-08  1.85607E-08  1.95419E-08  2.04675E-08  1.97079E-08  1.51887E-08  8.71876E-09  5.85886E-09
   4.81353E-09  4.25995E-09  3.90146E-09  3.64019E-09  3.43446E-09  3.26351E-09  3.11581E-09  2.98442E-09  2.86494E-09  2.75445E-09
   2.65089E-09  2.55285E-09  2.45925E-09  2.36932E-09  2.28245E-09  2.19817E-09  2.11615E-09  2.03609E-09  1.95776E-09  1.88098E-09
   1.80561E-09  1.73152E-09  1.65862E-09  1.58682E-09  1.51607E-09  1.44630E-09  1.37748E-09  1.30957E-09  1.24254E-09  1.17635E-09
   1.11100E-09  1.04648E-09  9.82766E-10  9.19858E-10  8.57728E-10  7.96390E-10  7.35848E-10  6.76089E-10  6.17105E-10  5.58913E-10
   5.01517E-10  4.44914E-10  3.89105E-10  3.34090E-10  2.79871E-10  2.26484E-10  1.73898E-10  1.22129E-10  7.12004E-11  2.11036E-11
  -2.81550E-11 -7.65650E-11 -1.24118E-10 -1.70818E-10 -2.16648E-10 -2.61601E-10 -3.05679E-10 -3.48872E-10 -3.91174E-10 -4.32570E-10
  -4.73070E-10 -5.12659E-10 -5.51330E-10 -5.89090E-10 -6.25946E-10 -6.61910E-10 -6.96988E-10 -7.31190E-10 -7.64523E-10 -7.96997E-10
  -8.28620E-10 -8.59401E-10 -8.89346E-10 -9.18467E-10 -9.46769E-10 -9.74260E-10 -1.00095E-09 -1.02685E-09 -1.05196E-09 -1.07629E-09
  -1.09984E-09 -1.12264E-09 -1.14468E-09 -1.16597E-09 -1.18651E-09 -1.20632E-09 -1.22541E-09 -1.24377E-09 -1.26141E-09 -1.27835E-09
  -1.29459E-09 -1.31013E-09 -1.32498E-09 -1.33915E-09 -1.35264E-09 -1.36546E-09 -1.37761E-09 -1.38910E-09 -1.39993E-09 -1.41012E-09
  -1.41966E-09 -1.42856E-09 -1.43682E-09 -1.44445E-09 -1.45145E-09 -1.45783E-09 -1.46359E-09 -1.46874E-09 -1.47327E-09 -1.47720E-09
  -1.48052E-09 -1.48323E-09 -1.48535E-09 -1.48687E-09 -1.48780E-09 -1.48814E-09 -1.48788E-09 -1.48704E-09 -1.48561E-09 -1.48359E-09
  -1.48099E-09 -1.47781E-09 -1.47404E-09 -1.46969E-09 -1.46475E-09 -1.45921E-09 -1.45306E-09 -1.44631E-09 -1.43893E-09 -1.43094E-09
  -1.42231E-09 -1.41305E-09 -1.40314E-09 -1.39259E-09 -1.38139E-09 -1.36953E-09 -1.35701E-09 -1.34381E-09 -1.32995E-09 -1.31541E-09
  -1.30018E-09 -1.28426E-09 -1.26766E-09 -1.25036E-09 -1.23236E-09 -1.21365E-09 -1.19423E-09 -1.17411E-09 -1.15326E-09 -1.13170E-09
  -1.10942E-09 -1.08641E-09 -1.06268E-09 -1.03821E-09 -1.01301E-09 -9.87075E-10 -9.60399E-10 -9.32984E-10 -9.04827E-10 -8.75924E-10
  -8.46278E-10 -8.15882E-10 -7.84738E-10 -7.52844E-10 -7.20200E-10 -6.86803E-10 -6.52653E-10 -6.17751E-10 -5.82095E-10 -5.45685E-10
  -5.08522E-10 -4.70604E-10 -4.31934E-10 -3.92510E-10 -3.52333E-10 -3.11405E-10 -2.69727E-10 -2.27299E-10 -1.84123E-10 -1.40200E-10
  -9.55303E-11 -5.01180E-11 -3.96339E-12
 NY background values follow
     5.990E-09    6.061E-09    6.132E-09    6.201E-09    6.269E-09    6.335E-09    6.400E-09    6.464E-09    6.526E-09    6.587E-09
     6.647E-09    6.706E-09    6.763E-09    6.818E-09    6.873E-09    6.926E-09    6.978E-09    7.028E-09    7.077E-09    7.125E-09
     7.171E-09    7.216E-09    7.260E-09    7.303E-09    7.344E-09    7.384E-09    7.422E-09    7.459E-09    7.495E-09    7.530E-09
     7.563E-09    7.595E-09    7.625E-09    7.655E-09    7.683E-09    7.710E-09    7.735E-09    7.759E-09    7.782E-09    7.804E-09
     7.824E-09    7.843E-09    7.861E-09    7.877E-09    7.892E-09    7.906E-09    7.919E-09    7.930E-09    7.941E-09    7.949E-09
     7.957E-09    7.964E-09    7.969E-09    7.973E-09    7.976E-09    7.977E-09    7.978E-09    7.977E-09    7.975E-09    7.971E-09
     7.967E-09    7.961E-09    7.955E-09    7.947E-09    7.937E-09    7.927E-09    7.916E-09    7.903E-09    7.889E-09    7.874E-09
     7.858E-09    7.841E-09    7.823E-09    7.804E-09    7.783E-09    7.762E-09    7.739E-09    7.715E-09    7.690E-09    7.665E-09
     7.638E-09    7.610E-09    7.581E-09    7.551E-09    7.519E-09    7.487E-09    7.454E-09    7.420E-09    7.385E-09    7.349E-09
     7.312E-09    7.274E-09    7.235E-09    7.195E-09    7.154E-09    7.112E-09    7.070E-09    7.026E-09    6.981E-09    6.936E-09
     6.890E-09    6.842E-09    6.794E-09    6.745E-09    6.696E-09    6.645E-09    6.593E-09    6.541E-09    6.488E-09    6.434E-09
     6.379E-09    6.324E-09    6.268E-09    6.211E-09    6.153E-09    6.095E-09    6.035E-09    5.975E-09    5.915E-09    5.854E-09
     5.791E-09    5.729E-09    5.665E-09    5.601E-09    5.537E-09    5.472E-09    5.406E-09    5.339E-09    5.272E-09    5.205E-09
     5.136E-09    5.068E-09    4.998E-09    4.929E-09    4.858E-09    4.788E-09    4.717E-09    4.645E-09    4.573E-09    4.500E-09
     4.427E-09    4.354E-09    4.280E-09    4.206E-09    4.132E-09    4.057E-09    3.982E-09    3.907E-09    3.831E-09    3.755E-09
     3.679E-09    3.602E-09    3.526E-09    3.449E-09    3.371E-09    3.294E-09    3.217E-09    3.139E-09    3.061E-09    2.983E-09
     2.905E-09    2.827E-09    2.749E-09    2.670E-09    2.592E-09    2.514E-09    2.435E-09    2.357E-09    2.278E-09    2.200E-09
     2.121E-09    2.043E-09    1.965E-09    1.886E-09    1.808E-09    1.730E-09    1.652E-09    1.575E-09    1.497E-09    1.420E-09
     1.342E-09    1.265E-09    1.188E-09    1.112E-09    1.035E-09    9.589E-10    8.830E-10    8.074E-10    7.321E-10    6.571E-10
     5.825E-10    5.082E-10    4.343E-10    3.609E-10    2.878E-10    2.151E-10    1.429E-10    7.123E-11   -2.001E-14   -7.076E-11
    -1.410E-10   -2.107E-10   -2.799E-10   -3.484E-10   -4.165E-10   -4.839E-10   -5.507E-10   -6.169E-10   -6.825E-10   -7.474E-10
    -8.116E-10   -8.752E-10   -9.380E-10   -1.000E-09   -1.062E-09   -1.122E-09   -1.182E-09   -1.241E-09   -1.300E-09   -1.357E-09
    -1.414E-09   -1.470E-09   -1.526E-09   -1.580E-09   -1.633E-09   -1.686E-09   -1.738E-09   -1.789E-09   -1.839E-09   -1.888E-09
    -1.936E-09   -1.983E-09   -2.030E-09   -2.075E-09   -2.120E-09   -2.163E-09   -2.206E-09   -2.247E-09   -2.288E-09   -2.327E-09
    -2.366E-09   -2.404E-09   -2.440E-09   -2.476E-09   -2.510E-09   -2.544E-09   -2.577E-09   -2.608E-09   -2.639E-09   -2.669E-09
    -2.697E-09   -2.725E-09   -2.752E-09   -2.778E-09   -2.803E-09   -2.827E-09   -2.851E-09   -2.873E-09   -2.894E-09   -2.915E-09
    -2.935E-09   -2.954E-09   -2.972E-09   -2.989E-09   -3.005E-09   -3.021E-09   -3.035E-09   -3.049E-09   -3.062E-09   -3.075E-09
    -3.086E-09   -3.097E-09   -3.107E-09   -3.116E-09   -3.124E-09   -3.132E-09   -3.139E-09   -3.145E-09   -3.150E-09   -3.155E-09
    -3.159E-09   -3.162E-09   -3.164E-09   -3.166E-09   -3.167E-09   -3.167E-09   -3.167E-09   -3.166E-09   -3.164E-09   -3.161E-09
    -3.158E-09   -3.154E-09   -3.150E-09   -3.144E-09   -3.138E-09   -3.132E-09   -3.125E-09   -3.117E-09   -3.108E-09   -3.099E-09
    -3.089E-09   -3.078E-09   -3.067E-09   -3.055E-09   -3.043E-09   -3.030E-09   -3.016E-09   -3.001E-09   -2.986E-09   -2.970E-09
    -2.953E-09   -2.936E-09   -2.918E-09   -2.899E-09   -2.880E-09   -2.860E-09   -2.839E-09   -2.817E-09   -2.795E-09   -2.772E-09
    -2.748E-09   -2.723E-09   -2.698E-09   -2.672E-09   -2.645E-09   -2.617E-09   -2.589E-09   -2.560E-09   -2.530E-09   -2.499E-09
    -2.468E-09   -2.435E-09   -2.402E-09   -2.368E-09   -2.334E-09   -2.299E-09   -2.262E-09   -2.225E-09   -2.188E-09   -2.149E-09
    -2.110E-09   -2.070E-09   -2.029E-09   -1.987E-09   -1.945E-09   -1.901E-09   -1.857E-09   -1.813E-09   -1.767E-09   -1.720E-09
    -1.673E-09   -1.625E-09   -1.576E-09   -1.527E-09   -1.476E-09   -1.425E-09   -1.373E-09   -1.321E-09   -1.267E-09   -1.213E-09
    -1.158E-09   -1.102E-09   -1.045E-09
 GSH      Conc. = 1.58E-09
   1.22495E-08  1.13001E-08  1.07217E-08  1.02710E-08  9.83890E-09  9.37593E-09  8.73726E-09  7.65044E-09  5.85247E-09  3.70471E-09
   3.62997E-09  4.27316E-09  4.63249E-09  5.09070E-09  5.49015E-09  5.82990E-09  6.12501E-09  6.38740E-09  6.62543E-09  6.84548E-09
   7.05234E-09  7.24977E-09  7.44106E-09  7.62927E-09  7.81754E-09  8.00944E-09  8.20938E-09  8.42317E-09  8.66002E-09  8.91406E-09
   9.19873E-09  9.54354E-09  9.98011E-09  1.06538E-08  1.15119E-08  1.16111E-08  1.18602E-08  1.19608E-08  1.16997E-08  1.13594E-08
   1.11180E-08  1.09364E-08  1.07032E-08  1.02136E-08  9.38894E-09  8.62390E-09  8.46345E-09  7.96877E-09  7.99462E-09  8.40679E-09
   8.94891E-09  9.34239E-09  9.43927E-09  9.80274E-09  1.00936E-08  9.90670E-09  9.81407E-09  9.78716E-09  9.64282E-09  9.38119E-09
   9.00442E-09  8.57273E-09  8.35049E-09  8.13526E-09  7.63167E-09  7.52784E-09  7.77796E-09  7.81519E-09  7.87188E-09  8.23199E-09
   8.64107E-09  8.70792E-09  9.06752E-09  9.41373E-09  9.41377E-09  9.45064E-09  9.46151E-09  9.36486E-09  9.22568E-09  9.04983E-09
   8.64697E-09  8.35518E-09  8.20112E-09  7.65106E-09  7.34328E-09  7.24560E-09  6.98316E-09  6.84819E-09  6.79626E-09  6.76939E-09
   6.75301E-09  6.74071E-09  6.72882E-09  6.71662E-09  6.70327E-09  6.68841E-09  6.67155E-09  6.65280E-09  6.63227E-09  6.61018E-09
   6.58658E-09  6.56104E-09  6.53371E-09  6.50467E-09  6.47408E-09  6.44208E-09  6.40857E-09  6.37362E-09  6.33729E-09  6.29957E-09
   6.26055E-09  6.22022E-09  6.17867E-09  6.13589E-09  6.09195E-09  6.04686E-09  6.00066E-09  5.95337E-09  5.90501E-09  5.85569E-09
   5.80525E-09  5.75386E-09  5.70150E-09  5.64822E-09  5.59403E-09  5.53895E-09  5.48299E-09  5.42620E-09  5.36860E-09  5.31019E-09
   5.25101E-09  5.19108E-09  5.13041E-09  5.06904E-09  5.00697E-09  4.94424E-09  4.88085E-09  4.81683E-09  4.75221E-09  4.68700E-09
   4.62123E-09  4.55491E-09  4.48805E-09  4.42073E-09  4.35289E-09  4.28458E-09  4.21584E-09  4.14670E-09  4.07715E-09  4.00727E-09
   3.93707E-09  3.86656E-09  3.79581E-09  3.72491E-09  3.65385E-09  3.58275E-09  3.51177E-09  3.44103E-09  3.37077E-09  3.30141E-09
   3.23349E-09  3.16811E-09  3.10717E-09  3.05471E-09  3.02034E-09  3.03299E-09  3.21865E-09  4.22454E-09  4.90495E-09  4.95047E-09
   4.77004E-09  4.65571E-09  4.61459E-09  4.62398E-09  4.69790E-09  4.81788E-09  4.78142E-09  4.19181E-09  2.92540E-09  2.29919E-09
   2.04668E-09  1.88839E-09  1.76582E-09  1.66049E-09  1.56481E-09  1.47513E-09  1.38946E-09  1.30665E-09  1.22597E-09  1.14696E-09
   1.06929E-09  9.92755E-10  9.17194E-10  8.42510E-10  7.68610E-10  6.95432E-10  6.22951E-10  5.51131E-10  4.79946E-10  4.09392E-10
   3.39456E-10  2.70124E-10  2.01405E-10  1.33305E-10  6.58169E-11 -1.04955E-12 -6.72916E-11 -1.32881E-10 -1.97836E-10 -2.62140E-10
  -3.25781E-10 -3.88740E-10 -4.51016E-10 -5.12590E-10 -5.73471E-10 -6.33631E-10 -6.93054E-10 -7.51739E-10 -8.09683E-10 -8.66857E-10
  -9.23252E-10 -9.78861E-10 -1.03368E-09 -1.08769E-09 -1.14090E-09 -1.19325E-09 -1.24479E-09 -1.29548E-09 -1.34529E-09 -1.39424E-09
  -1.44232E-09 -1.48951E-09 -1.53580E-09 -1.58118E-09 -1.62565E-09 -1.66920E-09 -1.71181E-09 -1.75349E-09 -1.79423E-09 -1.83400E-09
  -1.87281E-09 -1.91066E-09 -1.94753E-09 -1.98343E-09 -2.01836E-09 -2.05234E-09 -2.08537E-09 -2.11746E-09 -2.14862E-09 -2.17886E-09
  -2.20818E-09 -2.23659E-09 -2.26411E-09 -2.29073E-09 -2.31647E-09 -2.34133E-09 -2.36532E-09 -2.38846E-09 -2.41074E-09 -2.43218E-09
  -2.45278E-09 -2.47255E-09 -2.49150E-09 -2.50963E-09 -2.52696E-09 -2.54349E-09 -2.55922E-09 -2.57416E-09 -2.58833E-09 -2.60172E-09
  -2.61435E-09 -2.62622E-09 -2.63733E-09 -2.64770E-09 -2.65733E-09 -2.66622E-09 -2.67439E-09 -2.68183E-09 -2.68855E-09 -2.69456E-09
  -2.69987E-09 -2.70447E-09 -2.70838E-09 -2.71160E-09 -2.71413E-09 -2.71597E-09 -2.71714E-09 -2.71764E-09 -2.71746E-09 -2.71662E-09
  -2.71512E-09 -2.71296E-09 -2.71014E-09 -2.70667E-09 -2.70256E-09 -2.69779E-09 -2.69238E-09 -2.68633E-09 -2.67964E-09 -2.67231E-09
  -2.66434E-09 -2.65574E-09 -2.64651E-09 -2.63664E-09 -2.62612E-09 -2.61496E-09 -2.60315E-09 -2.59067E-09 -2.57753E-09 -2.56372E-09
  -2.54923E-09 -2.53406E-09 -2.51820E-09 -2.50165E-09 -2.48440E-09 -2.46645E-09 -2.44779E-09 -2.42843E-09 -2.40834E-09 -2.38753E-09
  -2.36600E-09 -2.34374E-09 -2.32074E-09 -2.29701E-09 -2.27254E-09 -2.24732E-09 -2.22136E-09 -2.19465E-09 -2.16719E-09 -2.13896E-09
  -2.10998E-09 -2.08024E-09 -2.04974E-09 -2.01847E-09 -1.98643E-09 -1.95363E-09 -1.92005E-09 -1.88569E-09 -1.85057E-09 -1.81466E-09
  -1.77799E-09 -1.74053E-09 -1.70229E-09 -1.66328E-09 -1.62348E-09 -1.58290E-09 -1.54155E-09 -1.49941E-09 -1.45650E-09 -1.41280E-09
  -1.36832E-09 -1.32307E-09 -1.27704E-09 -1.23023E-09 -1.18264E-09 -1.13428E-09 -1.08515E-09 -1.03525E-09 -9.84582E-10 -9.33144E-10
  -8.80940E-10 -8.27974E-10 -7.74248E-10
 Ins      Conc. = 2.21E-09
   9.03696E-09  9.77254E-09  1.01300E-08  1.05923E-08  1.15720E-08  1.27034E-08  1.29478E-08  1.34263E-08  1.49210E-08  1.54298E-08
   1.43028E-08  1.29030E-08  1.21326E-08  1.18312E-08  1.08646E-08  9.43528E-09  8.35026E-09  7.79400E-09  6.14011E-09  3.96077E-09
   3.47173E-09  4.24123E-09  4.76118E-09  4.79333E-09  4.98339E-09  5.55268E-09  5.92782E-09  6.08111E-09  6.15337E-09  6.24623E-09
   6.34356E-09  6.22686E-09  5.94236E-09  5.91878E-09  6.03742E-09  5.93973E-09  5.78076E-09  5.83598E-09  5.94972E-09  6.06671E-09
   6.16705E-09  6.25962E-09  6.35011E-09  6.43638E-09  6.51746E-09  6.59347E-09  6.66453E-09  6.73092E-09  6.79298E-09  6.85090E-09
   6.90494E-09  6.95528E-09  7.00219E-09  7.04581E-09  7.08627E-09  7.12376E-09  7.15840E-09  7.19035E-09  7.21965E-09  7.24649E-09
   7.27089E-09  7.29295E-09  7.31275E-09  7.33038E-09  7.34588E-09  7.35934E-09  7.37079E-09  7.38031E-09  7.38793E-09  7.39370E-09
   7.39768E-09  7.39989E-09  7.40039E-09  7.39920E-09  7.39636E-09  7.39191E-09  7.38586E-09  7.37828E-09  7.36915E-09  7.35855E-09
   7.34646E-09  7.33292E-09  7.31794E-09  7.30159E-09  7.28387E-09  7.26477E-09  7.24436E-09  7.22262E-09  7.19959E-09  7.17529E-09
   7.14972E-09  7.12294E-09  7.09493E-09  7.06572E-09  7.03532E-09  7.00376E-09  6.97105E-09  6.93720E-09  6.90223E-09  6.86617E-09
   6.82901E-09  6.79078E-09  6.75151E-09  6.71118E-09  6.66983E-09  6.62746E-09  6.58408E-09  6.53974E-09  6.49444E-09  6.44816E-09
   6.40096E-09  6.35280E-09  6.30375E-09  6.25377E-09  6.20293E-09  6.15120E-09  6.09863E-09  6.04520E-09  5.99095E-09  5.93593E-09
   5.88000E-09  5.82332E-09  5.76585E-09  5.70763E-09  5.64865E-09  5.58895E-09  5.52852E-09  5.46738E-09  5.40557E-09  5.34309E-09
   5.27994E-09  5.21617E-09  5.15176E-09  5.08675E-09  5.02114E-09  4.95497E-09  4.88822E-09  4.82093E-09  4.75313E-09  4.68480E-09
   4.61599E-09  4.54669E-09  4.47693E-09  4.40677E-09  4.33615E-09  4.26512E-09  4.19372E-09  4.12197E-09  4.04987E-09  3.97748E-09
   3.90484E-09  3.83193E-09  3.75884E-09  3.68566E-09  3.61239E-09  3.53916E-09  3.46614E-09  3.39349E-09  3.32149E-09  3.25063E-09
   3.18155E-09  3.11555E-09  3.05485E-09  3.00407E-09  2.97381E-09  2.99417E-09  3.18309E-09  4.22622E-09  5.41003E-09  5.74233E-09
   5.58130E-09  5.41774E-09  5.36882E-09  5.39345E-09  5.49786E-09  5.67844E-09  5.74582E-09  5.23050E-09  3.79314E-09  2.59199E-09
   2.18526E-09  1.96339E-09  1.80638E-09  1.67934E-09  1.56860E-09  1.46778E-09  1.37347E-09  1.28372E-09  1.19732E-09  1.11347E-09
   1.03164E-09  9.51486E-10  8.72721E-10  7.95176E-10  7.18700E-10  6.43181E-10  5.68560E-10  4.94771E-10  4.21764E-10  3.49519E-10
   2.78008E-10  2.07202E-10  1.37099E-10  6.76979E-11 -1.01785E-12 -6.90444E-11 -1.36385E-10 -2.03016E-10 -2.68959E-10 -3.34202E-10
  -3.98737E-10 -4.62548E-10 -5.25636E-10 -5.87985E-10 -6.49605E-10 -7.10471E-10 -7.70567E-10 -8.29895E-10 -8.88453E-10 -9.46214E-10
  -1.00317E-09 -1.05931E-09 -1.11464E-09 -1.16914E-09 -1.22281E-09 -1.27561E-09 -1.32757E-09 -1.37866E-09 -1.42886E-09 -1.47817E-09
