 LCModel (Version 6.3-1R) Copyright: S.W. Provencher.          Ref.: Magn. Reson. Med. 30:672-679 (1993).                
 onepulse 28x11_ftSpec_smooth_lcm
 26 lines in following concentration table = NCONC+1
    Conc.  %SD /Cr+PCr  Metabolite                                         
    0.000 999%   0.000 Ala                                                 
 7.30E-10  61%   4.813 Asp                                                 
    0.000 999%   0.000 Cr                                                  
 1.60E-10 257%   1.059 GABA                                                
    0.000 999%   0.000 Glc                                                 
 1.91E-09  25%  12.604 Gln                                                 
    0.000 999%   0.000 Glu                                                 
    0.000 999%   0.000 Glyc                                                
    0.000 999%   0.000 GPC                                                 
 3.98E-10 110%   2.625 GSH                                                 
 1.38E-09  21%   9.072 Ins                                                 
    0.000 999%   0.000 Lac                                                 
 4.34E-10  35%   2.863 NAAG                                                
    0.000 999%   0.000 NAA                                                 
    0.000 999%   0.000 PCh                                                 
 1.52E-10 174%   1.000 PCr                                                 
 1.56E-09  38%  10.278 PE                                                  
 2.69E-10  73%   1.775 Scyllo                                              
 1.31E-10 457%   0.864 Ser                                                 
    0.000 999%   0.000 Tau                                                 
    0.000 999%   0.000 GPC+PCh                                             
 4.34E-10  35%   2.863 NAA+NAAG                                            
 1.38E-09  21%   9.072 Ins+Glyc                                            
 1.52E-10 174%   1.000 Cr+PCr                                              
 1.91E-09  25%  12.604 Glu+Gln                                             
   6 lines in following misc. output table
  FWHM = 0.123 ppm    S/N =   3                                            
  Data shift = 0.402 ppm                                                   
  Ph: -42 deg     -51.4 deg/ppm                                            
  alphaB,S = 3.6E-01,   2.7E+01                                            
   11 spline knots.   Ns = 5(1)                                            
  ( 8) 4 infls.   ( 7) 3 extrs.                                            
  363 points on ppm-axis = NY
      4.250000     4.238821     4.227641     4.216462     4.205282     4.194103     4.182923     4.171744     4.160564     4.149385
      4.138206     4.127026     4.115847     4.104667     4.093488     4.082308     4.071129     4.059949     4.048770     4.037591
      4.026411     4.015232     4.004052     3.992873     3.981693     3.970514     3.959334     3.948155     3.936975     3.925796
      3.914617     3.903437     3.892258     3.881078     3.869899     3.858719     3.847540     3.836360     3.825181     3.814002
      3.802822     3.791643     3.780463     3.769284     3.758104     3.746925     3.735745     3.724566     3.713387     3.702207
      3.691028     3.679848     3.668669     3.657489     3.646310     3.635130     3.623951     3.612772     3.601592     3.590413
      3.579233     3.568054     3.556874     3.545695     3.534515     3.523336     3.512156     3.500977     3.489798     3.478618
      3.467439     3.456259     3.445080     3.433900     3.422721     3.411541     3.400362     3.389183     3.378003     3.366824
      3.355644     3.344465     3.333285     3.322106     3.310926     3.299747     3.288568     3.277388     3.266209     3.255029
      3.243850     3.232670     3.221491     3.210311     3.199132     3.187953     3.176773     3.165594     3.154414     3.143235
      3.132055     3.120876     3.109696     3.098517     3.087337     3.076158     3.064979     3.053799     3.042620     3.031440
      3.020261     3.009081     2.997902     2.986722     2.975543     2.964364     2.953184     2.942005     2.930825     2.919646
      2.908466     2.897287     2.886107     2.874928     2.863749     2.852569     2.841390     2.830210     2.819031     2.807851
      2.796672     2.785492     2.774313     2.763134     2.751954     2.740775     2.729595     2.718416     2.707236     2.696057
      2.684877     2.673698     2.662519     2.651339     2.640160     2.628980     2.617801     2.606621     2.595442     2.584262
      2.573083     2.561903     2.550724     2.539545     2.528365     2.517186     2.506006     2.494827     2.483647     2.472468
      2.461288     2.450109     2.438930     2.427750     2.416571     2.405391     2.394212     2.383032     2.371853     2.360673
      2.349494     2.338315     2.327135     2.315956     2.304776     2.293597     2.282417     2.271238     2.260058     2.248879
      2.237700     2.226520     2.215341     2.204161     2.192982     2.181802     2.170623     2.159443     2.148264     2.137084
      2.125905     2.114726     2.103546     2.092367     2.081187     2.070008     2.058828     2.047649     2.036469     2.025290
      2.014111     2.002931     1.991752     1.980572     1.969393     1.958213     1.947034     1.935854     1.924675     1.913496
      1.902316     1.891137     1.879957     1.868778     1.857598     1.846419     1.835239     1.824060     1.812881     1.801701
      1.790522     1.779342     1.768163     1.756983     1.745804     1.734624     1.723445     1.712265     1.701086     1.689907
      1.678727     1.667548     1.656368     1.645189     1.634009     1.622830     1.611650     1.600471     1.589292     1.578112
      1.566933     1.555753     1.544574     1.533394     1.522215     1.511035     1.499856     1.488677     1.477497     1.466318
      1.455138     1.443959     1.432779     1.421600     1.410420     1.399241     1.388062     1.376882     1.365703     1.354523
      1.343344     1.332164     1.320985     1.309805     1.298626     1.287446     1.276267     1.265088     1.253908     1.242729
      1.231549     1.220370     1.209190     1.198011     1.186831     1.175652     1.164473     1.153293     1.142114     1.130934
      1.119755     1.108575     1.097396     1.086216     1.075037     1.063858     1.052678     1.041499     1.030319     1.019140
      1.007960     0.996781     0.985601     0.974422     0.963243     0.952063     0.940884     0.929704     0.918525     0.907345
      0.896166     0.884986     0.873807     0.862628     0.851448     0.840269     0.829089     0.817910     0.806730     0.795551
      0.784371     0.773192     0.762012     0.750833     0.739654     0.728474     0.717295     0.706115     0.694936     0.683756
      0.672577     0.661397     0.650218     0.639039     0.627859     0.616680     0.605500     0.594321     0.583141     0.571962
      0.560782     0.549603     0.538424     0.527244     0.516065     0.504885     0.493706     0.482526     0.471347     0.460167
      0.448988     0.437809     0.426629     0.415450     0.404270     0.393091     0.381911     0.370732     0.359552     0.348373
      0.337193     0.326014     0.314835     0.303655     0.292476     0.281296     0.270117     0.258937     0.247758     0.236578
      0.225399     0.214220     0.203040
 NY phased data points follow
   4.40548E-09  4.02824E-09  4.21927E-09  4.47158E-09  4.89126E-09  4.83997E-09  4.89339E-09  5.59857E-09  5.62202E-09  5.74306E-09
   6.15442E-09  5.37617E-09  5.43089E-09  5.08053E-09  5.11813E-09  4.87949E-09  4.47189E-09  4.49864E-09  4.60726E-09  5.50994E-09
   5.52744E-09  5.54860E-09  4.79410E-09  4.37039E-09  4.69978E-09  5.35297E-09  6.38456E-09  7.63119E-09  6.96891E-09  6.79738E-09
   5.64023E-09  4.57933E-09  3.98297E-09  3.92043E-09  4.14505E-09  3.89807E-09  3.96665E-09  3.67681E-09  3.55466E-09  3.64957E-09
   3.58086E-09  3.39209E-09  2.55988E-09  2.65241E-09  2.84560E-09  3.43539E-09  3.31628E-09  3.52879E-09  3.43803E-09  3.39210E-09
   2.66428E-09  3.11270E-09  3.13408E-09  3.89367E-09  4.37189E-09  4.07667E-09  4.23062E-09  6.26205E-09  7.92655E-09  8.84368E-09
   8.14614E-09  7.22661E-09  5.91096E-09  5.85926E-09  4.99350E-09  4.96668E-09  4.47303E-09  4.12357E-09  4.09601E-09  4.06905E-09
   3.89488E-09  3.86891E-09  3.92741E-09  5.25221E-09  7.71458E-09  1.11905E-08  1.22548E-08  1.09558E-08  9.46378E-09  9.27369E-09
   8.85553E-09  8.48617E-09  7.76356E-09  7.79986E-09  7.52499E-09  7.96744E-09  7.32170E-09  7.23914E-09  6.35403E-09  6.32903E-09
   5.71815E-09  5.72103E-09  5.02823E-09  5.48588E-09  4.92081E-09  4.84282E-09  4.32708E-09  4.86619E-09  4.31315E-09  4.83316E-09
   3.78264E-09  5.28452E-09  4.53183E-09  4.64888E-09  3.45504E-09  3.53645E-09  2.43646E-09  3.10443E-09  3.19375E-09  3.60328E-09
   3.68681E-09  3.70825E-09  3.72249E-09  4.62145E-09  3.64471E-09  4.29856E-09  3.83452E-09  4.55425E-09  3.78850E-09  3.74274E-09
   3.10732E-09  3.03295E-09  2.51351E-09  2.90493E-09  3.14530E-09  3.72439E-09  3.20402E-09  3.70481E-09  3.72574E-09  4.29557E-09
   4.18188E-09  3.89725E-09  3.93019E-09  3.51600E-09  3.48910E-09  4.82100E-09  5.84264E-09  5.87377E-09  5.61728E-09  5.21640E-09
   5.46271E-09  5.87380E-09  6.60786E-09  6.92083E-09  6.48632E-09  6.79149E-09  6.65290E-09  6.50381E-09  6.12228E-09  6.54334E-09
   5.98978E-09  6.18985E-09  5.66132E-09  6.04871E-09  6.02276E-09  5.20714E-09  5.23738E-09  5.47996E-09  5.04949E-09  5.47440E-09
   4.76859E-09  5.45982E-09  4.82148E-09  4.10011E-09  2.72678E-09  3.24727E-09  6.51957E-09  1.19623E-08  1.44080E-08  1.46370E-08
   1.36232E-08  1.34321E-08  1.29438E-08  1.30947E-08  1.25968E-08  1.21053E-08  1.20115E-08  1.18821E-08  1.09996E-08  1.01506E-08
   9.46923E-09  8.52579E-09  6.83721E-09  5.93365E-09  4.55800E-09  3.43755E-09  2.45176E-09  5.82509E-10 -7.76001E-10 -2.22045E-09
  -3.95858E-09 -4.31901E-09 -5.68642E-09 -6.44024E-09 -7.25608E-09 -7.56865E-09 -7.44554E-09 -7.46935E-09 -7.23320E-09 -6.80403E-09
  -6.13270E-09 -5.66865E-09 -5.10134E-09 -4.11729E-09 -3.51196E-09 -2.90986E-09 -2.78053E-09 -2.38106E-09 -2.16090E-09 -2.29025E-09
  -1.95204E-09 -1.38671E-09 -2.00211E-09 -1.47870E-09 -1.84819E-09 -1.43623E-09 -1.78244E-09 -1.61823E-09 -1.31047E-09 -1.36435E-09
  -1.07789E-09 -8.91619E-10 -1.14387E-09 -1.40796E-09 -1.46413E-09 -1.02300E-09 -1.37195E-09 -1.43521E-09 -8.50044E-10 -7.67197E-10
  -1.41269E-09 -1.40656E-09 -9.04003E-10 -6.02129E-10 -9.83685E-10 -1.18346E-09 -1.02348E-09 -1.18282E-09 -1.03854E-09 -1.38686E-09
  -1.33767E-09 -1.25037E-09 -1.60700E-09 -1.31761E-09 -1.54812E-09 -1.20864E-09 -1.08643E-09 -1.06621E-09 -6.92201E-10 -6.20437E-10
  -6.92527E-10 -5.66660E-10 -5.32131E-10 -8.51247E-10 -8.21818E-10 -1.01287E-09 -5.77507E-10 -1.01931E-09 -4.82484E-10 -1.13896E-09
  -1.43909E-09 -1.31205E-09 -1.76527E-09 -1.86807E-09 -1.75455E-09 -2.06914E-09 -2.02527E-09 -2.16414E-09 -1.73204E-09 -1.79099E-09
  -1.38357E-09 -1.42273E-09 -1.23162E-09 -9.11764E-10 -6.16477E-10 -5.74591E-10 -4.81013E-10 -4.89575E-10 -2.89541E-10 -5.44968E-10
  -4.70688E-10 -2.59717E-10 -4.59511E-10 -6.98344E-10 -3.56957E-10 -1.59685E-10 -7.36141E-10 -4.61310E-10 -4.90720E-10 -5.91600E-10
  -3.96161E-10 -2.99057E-10 -5.43097E-10 -9.37969E-10 -2.31420E-10 -8.10064E-10 -7.92730E-10 -7.09808E-10 -6.51482E-10 -1.05355E-09
  -5.38468E-10 -8.83635E-10 -3.35100E-10 -8.20690E-10 -8.13077E-10 -7.17985E-10 -9.60844E-10 -1.29084E-09 -7.10063E-10 -8.52828E-10
  -6.81207E-10 -7.80821E-10 -6.58301E-10 -8.85980E-10 -7.55487E-10 -7.58409E-10 -9.74873E-10 -1.01050E-09 -1.06086E-09 -1.17927E-09
  -8.58120E-10 -1.15174E-09 -8.68932E-10 -6.82939E-10 -1.09347E-09 -9.84189E-10 -8.49176E-10 -1.17175E-09 -1.13473E-09 -1.01156E-09
  -6.58552E-10 -1.12734E-09 -6.95761E-10 -1.17256E-09 -8.21910E-10 -9.87023E-10 -9.30281E-10 -8.71787E-10 -9.16984E-10 -8.34711E-10
  -1.01325E-09 -1.38244E-09 -1.02870E-09 -1.32675E-09 -1.13584E-09 -1.32000E-09 -1.05706E-09 -9.77539E-10 -8.69825E-10 -9.26456E-10
  -1.02584E-09 -1.54324E-09 -6.15852E-10 -1.30071E-09 -1.09092E-09 -1.39568E-09 -9.74626E-10 -1.50124E-09 -1.08508E-09 -1.23979E-09
  -1.00271E-09 -3.30097E-10 -1.45272E-09
 NY points of the fit to the data follow
   5.25287E-09  4.97095E-09  4.58947E-09  4.28050E-09  4.25763E-09  4.70425E-09  4.93979E-09  5.00068E-09  5.63172E-09  6.23461E-09
   6.15830E-09  5.90065E-09  5.47918E-09  5.31313E-09  5.14364E-09  4.68504E-09  4.36600E-09  4.82457E-09  5.31698E-09  4.77290E-09
   4.25882E-09  4.53103E-09  5.01430E-09  5.42782E-09  5.87318E-09  6.51627E-09  7.08370E-09  7.10566E-09  6.35000E-09  5.45332E-09
   5.25971E-09  5.07519E-09  4.72139E-09  4.51666E-09  4.28790E-09  3.87571E-09  3.50313E-09  3.32974E-09  3.32945E-09  3.31352E-09
   3.28359E-09  3.20192E-09  3.01791E-09  2.90232E-09  2.94046E-09  3.02075E-09  3.06181E-09  2.89616E-09  2.95389E-09  3.15110E-09
   3.44604E-09  3.75168E-09  3.98708E-09  4.23911E-09  4.77950E-09  5.32685E-09  5.62264E-09  6.25401E-09  6.86987E-09  6.96245E-09
   6.91742E-09  6.89311E-09  6.89742E-09  6.80416E-09  6.41897E-09  5.93316E-09  5.69764E-09  5.44150E-09  4.89711E-09  4.77896E-09
   5.05438E-09  5.46900E-09  5.94649E-09  6.34723E-09  6.96618E-09  7.91974E-09  9.02388E-09  9.81069E-09  1.00973E-08  1.00285E-08
   9.79346E-09  9.37444E-09  8.82905E-09  8.56684E-09  8.31871E-09  7.52307E-09  6.46468E-09  5.55369E-09  5.08209E-09  4.81819E-09
   4.63776E-09  4.52856E-09  4.46391E-09  4.39782E-09  4.32613E-09  4.29994E-09  4.26950E-09  4.23180E-09  4.21697E-09  4.19518E-09
   4.18872E-09  4.19862E-09  4.20619E-09  4.21389E-09  4.22688E-09  4.24336E-09  4.26175E-09  4.28132E-09  4.30114E-09  4.32106E-09
   4.34079E-09  4.36006E-09  4.37867E-09  4.39642E-09  4.41316E-09  4.42877E-09  4.44312E-09  4.45607E-09  4.46753E-09  4.47739E-09
   4.48558E-09  4.49200E-09  4.49659E-09  4.49926E-09  4.49994E-09  4.49856E-09  4.49505E-09  4.48937E-09  4.48143E-09  4.47119E-09
   4.45858E-09  4.44355E-09  4.42604E-09  4.40601E-09  4.38341E-09  4.35818E-09  4.33028E-09  4.29970E-09  4.26652E-09  4.23082E-09
   4.19269E-09  4.15222E-09  4.10951E-09  4.06464E-09  4.01773E-09  3.96890E-09  3.91826E-09  3.86596E-09  3.81213E-09  3.75695E-09
   3.70062E-09  3.64336E-09  3.58544E-09  3.52721E-09  3.46908E-09  3.41161E-09  3.35554E-09  3.30188E-09  3.25212E-09  3.20846E-09
   3.17440E-09  3.15583E-09  3.16349E-09  3.21924E-09  3.37482E-09  3.78617E-09  5.15373E-09  9.95956E-09  1.39178E-08  1.52360E-08
   1.47793E-08  1.39021E-08  1.32235E-08  1.28944E-08  1.29134E-08  1.31312E-08  1.25200E-08  9.38287E-09  4.22465E-09  2.58398E-09
   1.99479E-09  1.67497E-09  1.45795E-09  1.29027E-09  1.14994E-09  1.02634E-09  9.13781E-10  8.08929E-10  7.09766E-10  6.14962E-10
   5.23658E-10  4.35235E-10  3.49300E-10  2.65534E-10  1.83734E-10  1.03744E-10  2.54657E-11 -5.11848E-11 -1.26254E-10 -1.99782E-10
  -2.71781E-10 -3.42259E-10 -4.11220E-10 -4.78649E-10 -5.44537E-10 -6.08872E-10 -6.71628E-10 -7.32780E-10 -7.92303E-10 -8.50164E-10
  -9.06332E-10 -9.60777E-10 -1.01347E-09 -1.06439E-09 -1.11346E-09 -1.16068E-09 -1.20599E-09 -1.24938E-09 -1.29079E-09 -1.33018E-09
  -1.36754E-09 -1.40279E-09 -1.43592E-09 -1.46689E-09 -1.49565E-09 -1.52215E-09 -1.54638E-09 -1.56829E-09 -1.58790E-09 -1.60530E-09
  -1.62053E-09 -1.63368E-09 -1.64480E-09 -1.65395E-09 -1.66121E-09 -1.66664E-09 -1.67031E-09 -1.67227E-09 -1.67260E-09 -1.67135E-09
  -1.66860E-09 -1.66440E-09 -1.65883E-09 -1.65195E-09 -1.64381E-09 -1.63450E-09 -1.62406E-09 -1.61257E-09 -1.60009E-09 -1.58669E-09
  -1.57242E-09 -1.55736E-09 -1.54157E-09 -1.52511E-09 -1.50804E-09 -1.49044E-09 -1.47237E-09 -1.45388E-09 -1.43505E-09 -1.41594E-09
  -1.39661E-09 -1.37713E-09 -1.35756E-09 -1.33798E-09 -1.31843E-09 -1.29898E-09 -1.27971E-09 -1.26067E-09 -1.24192E-09 -1.22355E-09
  -1.20560E-09 -1.18813E-09 -1.17123E-09 -1.15490E-09 -1.13915E-09 -1.12397E-09 -1.10935E-09 -1.09528E-09 -1.08174E-09 -1.06874E-09
  -1.05627E-09 -1.04430E-09 -1.03285E-09 -1.02190E-09 -1.01144E-09 -1.00145E-09 -9.91945E-10 -9.82900E-10 -9.74312E-10 -9.66174E-10
  -9.58474E-10 -9.51202E-10 -9.44354E-10 -9.37924E-10 -9.31895E-10 -9.26262E-10 -9.21018E-10 -9.16158E-10 -9.11665E-10 -9.07537E-10
  -9.03761E-10 -9.00332E-10 -8.97237E-10 -8.94473E-10 -8.92029E-10 -8.89899E-10 -8.88065E-10 -8.86533E-10 -8.85279E-10 -8.84313E-10
  -8.83611E-10 -8.83165E-10 -8.82969E-10 -8.83031E-10 -8.83318E-10 -8.83827E-10 -8.84564E-10 -8.85492E-10 -8.86635E-10 -8.87973E-10
  -8.89503E-10 -8.91217E-10 -8.93111E-10 -8.95178E-10 -8.97416E-10 -8.99816E-10 -9.02375E-10 -9.05086E-10 -9.07944E-10 -9.10944E-10
  -9.14080E-10 -9.17346E-10 -9.20739E-10 -9.24250E-10 -9.27877E-10 -9.31612E-10 -9.35452E-10 -9.39389E-10 -9.43419E-10 -9.47538E-10
  -9.51736E-10 -9.56011E-10 -9.60358E-10 -9.64767E-10 -9.69239E-10 -9.73768E-10 -9.78344E-10 -9.82963E-10 -9.87624E-10 -9.92313E-10
  -9.97030E-10 -1.00177E-09 -1.00653E-09 -1.01130E-09 -1.01607E-09 -1.02085E-09 -1.02561E-09 -1.03038E-09 -1.03511E-09 -1.03984E-09
  -1.04453E-09 -1.04919E-09 -1.05381E-09
 NY background values follow
    -3.676E-09   -3.598E-09   -3.520E-09   -3.443E-09   -3.365E-09   -3.287E-09   -3.210E-09   -3.132E-09   -3.054E-09   -2.977E-09
    -2.899E-09   -2.821E-09   -2.744E-09   -2.667E-09   -2.589E-09   -2.512E-09   -2.434E-09   -2.357E-09   -2.280E-09   -2.203E-09
    -2.126E-09   -2.049E-09   -1.972E-09   -1.896E-09   -1.819E-09   -1.743E-09   -1.666E-09   -1.590E-09   -1.514E-09   -1.438E-09
    -1.362E-09   -1.287E-09   -1.211E-09   -1.136E-09   -1.061E-09   -9.856E-10   -9.107E-10   -8.361E-10   -7.616E-10   -6.873E-10
    -6.132E-10   -5.394E-10   -4.657E-10   -3.922E-10   -3.190E-10   -2.460E-10   -1.732E-10   -1.007E-10   -2.841E-11    4.363E-11
     1.154E-10    1.869E-10    2.581E-10    3.290E-10    3.996E-10    4.699E-10    5.399E-10    6.095E-10    6.788E-10    7.478E-10
     8.164E-10    8.846E-10    9.524E-10    1.020E-09    1.087E-09    1.154E-09    1.220E-09    1.286E-09    1.351E-09    1.416E-09
     1.480E-09    1.544E-09    1.608E-09    1.671E-09    1.733E-09    1.795E-09    1.857E-09    1.918E-09    1.978E-09    2.038E-09
     2.098E-09    2.157E-09    2.215E-09    2.272E-09    2.330E-09    2.386E-09    2.442E-09    2.497E-09    2.552E-09    2.606E-09
     2.659E-09    2.712E-09    2.764E-09    2.815E-09    2.866E-09    2.916E-09    2.964E-09    3.012E-09    3.059E-09    3.105E-09
     3.150E-09    3.193E-09    3.236E-09    3.277E-09    3.317E-09    3.356E-09    3.393E-09    3.429E-09    3.463E-09    3.496E-09
     3.527E-09    3.557E-09    3.585E-09    3.611E-09    3.636E-09    3.658E-09    3.679E-09    3.698E-09    3.715E-09    3.730E-09
     3.742E-09    3.753E-09    3.762E-09    3.768E-09    3.772E-09    3.774E-09    3.773E-09    3.770E-09    3.764E-09    3.756E-09
     3.745E-09    3.732E-09    3.716E-09    3.697E-09    3.676E-09    3.652E-09    3.625E-09    3.595E-09    3.562E-09    3.526E-09
     3.488E-09    3.447E-09    3.404E-09    3.358E-09    3.310E-09    3.259E-09    3.207E-09    3.152E-09    3.095E-09    3.036E-09
     2.975E-09    2.913E-09    2.848E-09    2.782E-09    2.714E-09    2.645E-09    2.574E-09    2.502E-09    2.428E-09    2.353E-09
     2.277E-09    2.200E-09    2.122E-09    2.043E-09    1.962E-09    1.882E-09    1.800E-09    1.718E-09    1.635E-09    1.551E-09
     1.467E-09    1.383E-09    1.298E-09    1.213E-09    1.128E-09    1.043E-09    9.579E-10    8.728E-10    7.878E-10    7.030E-10
     6.186E-10    5.344E-10    4.507E-10    3.675E-10    2.847E-10    2.025E-10    1.209E-10    3.998E-11   -4.030E-11   -1.199E-10
    -1.987E-10   -2.767E-10   -3.538E-10   -4.301E-10   -5.055E-10   -5.798E-10   -6.532E-10   -7.255E-10   -7.968E-10   -8.669E-10
    -9.358E-10   -1.003E-09   -1.070E-09   -1.135E-09   -1.199E-09   -1.261E-09   -1.322E-09   -1.382E-09   -1.440E-09   -1.496E-09
    -1.551E-09   -1.604E-09   -1.656E-09   -1.705E-09   -1.753E-09   -1.800E-09   -1.844E-09   -1.887E-09   -1.927E-09   -1.966E-09
    -2.002E-09   -2.037E-09   -2.069E-09   -2.100E-09   -2.128E-09   -2.154E-09   -2.177E-09   -2.199E-09   -2.218E-09   -2.234E-09
    -2.249E-09   -2.262E-09   -2.272E-09   -2.281E-09   -2.288E-09   -2.293E-09   -2.296E-09   -2.298E-09   -2.298E-09   -2.296E-09
    -2.293E-09   -2.288E-09   -2.282E-09   -2.275E-09   -2.266E-09   -2.257E-09   -2.246E-09   -2.234E-09   -2.221E-09   -2.208E-09
    -2.193E-09   -2.178E-09   -2.161E-09   -2.145E-09   -2.127E-09   -2.109E-09   -2.091E-09   -2.072E-09   -2.053E-09   -2.034E-09
    -2.014E-09   -1.994E-09   -1.974E-09   -1.955E-09   -1.935E-09   -1.915E-09   -1.895E-09   -1.876E-09   -1.857E-09   -1.838E-09
    -1.820E-09   -1.802E-09   -1.785E-09   -1.769E-09   -1.753E-09   -1.737E-09   -1.722E-09   -1.708E-09   -1.694E-09   -1.681E-09
    -1.668E-09   -1.656E-09   -1.644E-09   -1.633E-09   -1.622E-09   -1.612E-09   -1.602E-09   -1.593E-09   -1.584E-09   -1.576E-09
    -1.568E-09   -1.560E-09   -1.553E-09   -1.547E-09   -1.540E-09   -1.535E-09   -1.529E-09   -1.524E-09   -1.519E-09   -1.515E-09
    -1.511E-09   -1.507E-09   -1.504E-09   -1.501E-09   -1.498E-09   -1.496E-09   -1.494E-09   -1.492E-09   -1.490E-09   -1.489E-09
    -1.488E-09   -1.487E-09   -1.487E-09   -1.487E-09   -1.487E-09   -1.487E-09   -1.488E-09   -1.488E-09   -1.489E-09   -1.490E-09
    -1.492E-09   -1.493E-09   -1.495E-09   -1.496E-09   -1.498E-09   -1.501E-09   -1.503E-09   -1.505E-09   -1.508E-09   -1.511E-09
    -1.514E-09   -1.517E-09   -1.520E-09   -1.523E-09   -1.526E-09   -1.530E-09   -1.533E-09   -1.537E-09   -1.541E-09   -1.545E-09
    -1.549E-09   -1.553E-09   -1.557E-09   -1.561E-09   -1.565E-09   -1.569E-09   -1.574E-09   -1.578E-09   -1.582E-09   -1.587E-09
    -1.591E-09   -1.596E-09   -1.600E-09   -1.605E-09   -1.609E-09   -1.614E-09   -1.618E-09   -1.622E-09   -1.627E-09   -1.631E-09
    -1.636E-09   -1.640E-09   -1.644E-09
 Asp      Conc. = 7.30E-10
  -2.90706E-09 -2.94881E-09 -2.95427E-09 -2.96956E-09 -2.94733E-09 -2.96082E-09 -2.97299E-09 -2.97899E-09 -2.93878E-09 -2.88180E-09
  -2.81718E-09 -2.74830E-09 -2.67630E-09 -2.60175E-09 -2.52649E-09 -2.45082E-09 -2.37468E-09 -2.29812E-09 -2.22122E-09 -2.14400E-09
  -2.06653E-09 -1.98879E-09 -1.91079E-09 -1.83252E-09 -1.75394E-09 -1.67500E-09 -1.59562E-09 -1.51570E-09 -1.43509E-09 -1.35355E-09
  -1.27074E-09 -1.18617E-09 -1.09897E-09 -1.00766E-09 -9.09190E-10 -7.96132E-10 -6.49589E-10 -5.16563E-10 -3.81055E-10 -2.89460E-10
  -2.29802E-10 -1.64210E-10 -3.70827E-11  1.83339E-10  4.64702E-10  7.86777E-10  9.34171E-10  9.21548E-10  9.96948E-10  1.10815E-09
   1.24956E-09  1.38545E-09  1.47246E-09  1.44367E-09  1.31073E-09  1.18021E-09  1.10862E-09  1.21167E-09  1.25510E-09  1.18308E-09
   1.17974E-09  1.19886E-09  1.20677E-09  1.26216E-09  1.34702E-09  1.40197E-09  1.41024E-09  1.44258E-09  1.48645E-09  1.53610E-09
   1.58905E-09  1.64401E-09  1.70025E-09  1.75727E-09  1.81478E-09  1.87254E-09  1.93038E-09  1.98819E-09  2.04587E-09  2.10334E-09
   2.16054E-09  2.21742E-09  2.27393E-09  2.33003E-09  2.38571E-09  2.44092E-09  2.49563E-09  2.54983E-09  2.60349E-09  2.65661E-09
   2.70914E-09  2.76109E-09  2.81242E-09  2.86306E-09  2.91297E-09  2.96209E-09  3.01036E-09  3.05775E-09  3.10418E-09  3.14961E-09
   3.19399E-09  3.23727E-09  3.27939E-09  3.32030E-09  3.35996E-09  3.39830E-09  3.43529E-09  3.47086E-09  3.50497E-09  3.53758E-09
   3.56862E-09  3.59804E-09  3.62580E-09  3.65185E-09  3.67614E-09  3.69861E-09  3.71922E-09  3.73791E-09  3.75464E-09  3.76935E-09
   3.78200E-09  3.79254E-09  3.80091E-09  3.80707E-09  3.81097E-09  3.81255E-09  3.81177E-09  3.80858E-09  3.80293E-09  3.79477E-09
   3.78404E-09  3.77071E-09  3.75471E-09  3.73601E-09  3.71456E-09  3.69029E-09  3.66317E-09  3.63318E-09  3.60040E-09  3.56489E-09
   3.52674E-09  3.48601E-09  3.44279E-09  3.39714E-09  3.34915E-09  3.29889E-09  3.24645E-09  3.19189E-09  3.13531E-09  3.07678E-09
   3.01640E-09  2.95425E-09  2.89041E-09  2.82500E-09  2.75812E-09  2.68989E-09  2.62045E-09  2.54998E-09  2.47868E-09  2.40683E-09
   2.33489E-09  2.26352E-09  2.19390E-09  2.12844E-09  2.07284E-09  2.04465E-09  2.12626E-09  2.55767E-09  2.87839E-09  2.92485E-09
   2.79662E-09  2.63157E-09  2.48895E-09  2.38244E-09  2.31143E-09  2.25760E-09  2.10912E-09  1.69417E-09  1.09204E-09  8.64992E-10
   7.31771E-10  6.24127E-10  5.26824E-10  4.34834E-10  3.46054E-10  2.59472E-10  1.74566E-10  9.10221E-11  8.68714E-12 -7.25512E-11
  -1.52731E-10 -2.31897E-10 -3.10029E-10 -3.87145E-10 -4.63219E-10 -5.38235E-10 -6.12160E-10 -6.84971E-10 -7.56631E-10 -8.27115E-10
  -8.96379E-10 -9.64389E-10 -1.03111E-09 -1.09650E-09 -1.16052E-09 -1.22314E-09 -1.28432E-09 -1.34400E-09 -1.40217E-09 -1.45876E-09
  -1.51375E-09 -1.56709E-09 -1.61874E-09 -1.66868E-09 -1.71683E-09 -1.76317E-09 -1.80766E-09 -1.85026E-09 -1.89092E-09 -1.92960E-09
  -1.96628E-09 -2.00088E-09 -2.03338E-09 -2.06375E-09 -2.09194E-09 -2.11788E-09 -2.14158E-09 -2.16297E-09 -2.18209E-09 -2.19900E-09
  -2.21377E-09 -2.22646E-09 -2.23713E-09 -2.24586E-09 -2.25271E-09 -2.25773E-09 -2.26100E-09 -2.26257E-09 -2.26252E-09 -2.26091E-09
  -2.25779E-09 -2.25325E-09 -2.24733E-09 -2.24010E-09 -2.23164E-09 -2.22199E-09 -2.21124E-09 -2.19943E-09 -2.18664E-09 -2.17293E-09
  -2.15836E-09 -2.14300E-09 -2.12692E-09 -2.11017E-09 -2.09282E-09 -2.07493E-09 -2.05658E-09 -2.03782E-09 -2.01871E-09 -1.99933E-09
  -1.97974E-09 -1.95999E-09 -1.94016E-09 -1.92031E-09 -1.90051E-09 -1.88081E-09 -1.86128E-09 -1.84199E-09 -1.82300E-09 -1.80437E-09
  -1.78617E-09 -1.76847E-09 -1.75132E-09 -1.73475E-09 -1.71876E-09 -1.70334E-09 -1.68848E-09 -1.67417E-09 -1.66039E-09 -1.64716E-09
  -1.63445E-09 -1.62225E-09 -1.61057E-09 -1.59938E-09 -1.58869E-09 -1.57848E-09 -1.56874E-09 -1.55946E-09 -1.55065E-09 -1.54228E-09
  -1.53435E-09 -1.52685E-09 -1.51978E-09 -1.51312E-09 -1.50686E-09 -1.50100E-09 -1.49553E-09 -1.49044E-09 -1.48572E-09 -1.48137E-09
  -1.47736E-09 -1.47371E-09 -1.47039E-09 -1.46739E-09 -1.46472E-09 -1.46236E-09 -1.46030E-09 -1.45854E-09 -1.45706E-09 -1.45586E-09
  -1.45493E-09 -1.45426E-09 -1.45383E-09 -1.45367E-09 -1.45372E-09 -1.45400E-09 -1.45450E-09 -1.45520E-09 -1.45611E-09 -1.45721E-09
  -1.45851E-09 -1.45999E-09 -1.46165E-09 -1.46348E-09 -1.46548E-09 -1.46764E-09 -1.46996E-09 -1.47244E-09 -1.47506E-09 -1.47781E-09
  -1.48071E-09 -1.48373E-09 -1.48688E-09 -1.49015E-09 -1.49353E-09 -1.49702E-09 -1.50061E-09 -1.50430E-09 -1.50808E-09 -1.51195E-09
  -1.51590E-09 -1.51992E-09 -1.52402E-09 -1.52817E-09 -1.53239E-09 -1.53666E-09 -1.54098E-09 -1.54533E-09 -1.54973E-09 -1.55416E-09
  -1.55861E-09 -1.56309E-09 -1.56758E-09 -1.57208E-09 -1.57659E-09 -1.58109E-09 -1.58559E-09 -1.59008E-09 -1.59454E-09 -1.59899E-09
  -1.60340E-09 -1.60778E-09 -1.61212E-09
 GABA     Conc. = 1.60E-10
  -3.65885E-09 -3.58094E-09 -3.50302E-09 -3.42507E-09 -3.34709E-09 -3.26910E-09 -3.19109E-09 -3.11307E-09 -3.03504E-09 -2.95699E-09
  -2.87892E-09 -2.80085E-09 -2.72276E-09 -2.64464E-09 -2.56649E-09 -2.48830E-09 -2.41008E-09 -2.33177E-09 -2.25335E-09 -2.17479E-09
  -2.09603E-09 -2.01698E-09 -1.93749E-09 -1.85739E-09 -1.77635E-09 -1.69385E-09 -1.60882E-09 -1.51901E-09 -1.41837E-09 -1.29065E-09
  -1.18459E-09 -1.09551E-09 -9.54944E-10 -8.21180E-10 -7.32817E-10 -6.39004E-10 -5.41833E-10 -4.57184E-10 -3.95244E-10 -3.57184E-10
  -3.22134E-10 -2.53285E-10 -2.21862E-10 -2.29336E-10 -1.75335E-10 -1.14852E-10 -8.66653E-11 -3.72982E-11  2.39210E-11  8.98988E-11
   1.58301E-10  2.28053E-10  2.98673E-10  3.69997E-10  4.41964E-10  5.14579E-10  5.88054E-10  6.62787E-10  7.39564E-10  8.20047E-10
   9.08027E-10  1.01502E-09  1.13507E-09  1.22549E-09  1.32443E-09  1.44952E-09  1.54148E-09  1.60627E-09  1.67400E-09  1.74166E-09
   1.79850E-09  1.83466E-09  1.85310E-09  1.88364E-09  1.92900E-09  1.93055E-09  1.94292E-09  2.00338E-09  2.04966E-09  2.09732E-09
   2.16862E-09  2.22861E-09  2.29313E-09  2.38964E-09  2.47106E-09  2.53665E-09  2.61915E-09  2.69967E-09  2.76932E-09  2.83103E-09
   2.87911E-09  2.93029E-09  2.99000E-09  3.01641E-09  3.03264E-09  3.08256E-09  3.11245E-09  3.12452E-09  3.15839E-09  3.19254E-09
   3.22163E-09  3.25458E-09  3.28950E-09  3.32512E-09  3.36070E-09  3.39579E-09  3.43013E-09  3.46353E-09  3.49583E-09  3.52693E-09
   3.55670E-09  3.58502E-09  3.61180E-09  3.63699E-09  3.66052E-09  3.68234E-09  3.70237E-09  3.72055E-09  3.73681E-09  3.75110E-09
   3.76337E-09  3.77356E-09  3.78162E-09  3.78749E-09  3.79112E-09  3.79245E-09  3.79144E-09  3.78803E-09  3.78218E-09  3.77382E-09
   3.76291E-09  3.74940E-09  3.73323E-09  3.71436E-09  3.69274E-09  3.66832E-09  3.64103E-09  3.61088E-09  3.57793E-09  3.54226E-09
   3.50392E-09  3.46301E-09  3.41960E-09  3.37374E-09  3.32553E-09  3.27503E-09  3.22232E-09  3.16747E-09  3.11056E-09  3.05166E-09
   2.99086E-09  2.92821E-09  2.86381E-09  2.79774E-09  2.73006E-09  2.66088E-09  2.59027E-09  2.51832E-09  2.44516E-09  2.37088E-09
   2.29565E-09  2.21967E-09  2.14327E-09  2.06703E-09  1.99230E-09  1.92314E-09  1.87889E-09  1.90996E-09  1.91451E-09  1.85838E-09
   1.76426E-09  1.66225E-09  1.56510E-09  1.47573E-09  1.39403E-09  1.31566E-09  1.21557E-09  1.05650E-09  8.58822E-10  7.43996E-10
   6.49004E-10  5.59735E-10  4.73018E-10  3.87822E-10  3.03724E-10  2.20536E-10  1.38186E-10  5.66227E-11 -2.41392E-11 -1.04104E-10
  -1.83235E-10 -2.61527E-10 -3.38921E-10 -4.15406E-10 -4.90938E-10 -5.65483E-10 -6.38995E-10 -7.11443E-10 -7.82781E-10 -8.52978E-10
  -9.21986E-10 -9.89764E-10 -1.05628E-09 -1.12148E-09 -1.18533E-09 -1.24779E-09 -1.30882E-09 -1.36837E-09 -1.42641E-09 -1.48290E-09
  -1.53778E-09 -1.59102E-09 -1.64258E-09 -1.69243E-09 -1.74050E-09 -1.78677E-09 -1.83119E-09 -1.87372E-09 -1.91432E-09 -1.95294E-09
  -1.98956E-09 -2.02411E-09 -2.05656E-09 -2.08688E-09 -2.11502E-09 -2.14092E-09 -2.16457E-09 -2.18593E-09 -2.20501E-09 -2.22188E-09
