 LCModel (Version 6.3-1R) Copyright: S.W. Provencher.          Ref.: Magn. Reson. Med. 30:672-679 (1993).                
 onepulse 28x10_ftSpec_smooth_lcm
 26 lines in following concentration table = NCONC+1
    Conc.  %SD /Cr+PCr  Metabolite                                         
    0.000 999%   0.000 Ala                                                 
    0.000 999%   0.000 Asp                                                 
    0.000 999%   0.000 Cr                                                  
    0.000 999%   0.000 GABA                                                
 3.72E-10 138%   1.700 Glc                                                 
 1.17E-09  29%   5.329 Gln                                                 
    0.000 999%   0.000 Glu                                                 
    0.000 999%   0.000 Glyc                                                
    0.000 999%   0.000 GPC                                                 
    0.000 999%   0.000 GSH                                                 
 8.92E-10  34%   4.074 Ins                                                 
    0.000 999%   0.000 Lac                                                 
 2.35E-10  89%   1.073 NAAG                                                
 2.13E-10 136%   0.972 NAA                                                 
    0.000 999%   0.000 PCh                                                 
 2.19E-10  72%   1.000 PCr                                                 
 1.12E-09  31%   5.127 PE                                                  
 3.25E-11 405%   0.148 Scyllo                                              
 1.56E-09  38%   7.140 Ser                                                 
    0.000 999%   0.000 Tau                                                 
    0.000 999%   0.000 GPC+PCh                                             
 4.48E-10  40%   2.045 NAA+NAAG                                            
 8.92E-10  34%   4.074 Ins+Glyc                                            
 2.19E-10  72%   1.000 Cr+PCr                                              
 1.17E-09  29%   5.329 Glu+Gln                                             
   6 lines in following misc. output table
  FWHM = 0.101 ppm    S/N =   3                                            
  Data shift = 0.391 ppm                                                   
  Ph:  -6 deg     -34.1 deg/ppm                                            
  alphaB,S = 3.4E-01,   5.1E+01                                            
   11 spline knots.   Ns = 5(1)                                            
  ( 8) 4 infls.   ( 7) 3 extrs.                                            
  363 points on ppm-axis = NY
      4.250000     4.238821     4.227641     4.216462     4.205282     4.194103     4.182923     4.171744     4.160564     4.149385
      4.138206     4.127026     4.115847     4.104667     4.093488     4.082308     4.071129     4.059949     4.048770     4.037591
      4.026411     4.015232     4.004052     3.992873     3.981693     3.970514     3.959334     3.948155     3.936975     3.925796
      3.914617     3.903437     3.892258     3.881078     3.869899     3.858719     3.847540     3.836360     3.825181     3.814002
      3.802822     3.791643     3.780463     3.769284     3.758104     3.746925     3.735745     3.724566     3.713387     3.702207
      3.691028     3.679848     3.668669     3.657489     3.646310     3.635130     3.623951     3.612772     3.601592     3.590413
      3.579233     3.568054     3.556874     3.545695     3.534515     3.523336     3.512156     3.500977     3.489798     3.478618
      3.467439     3.456259     3.445080     3.433900     3.422721     3.411541     3.400362     3.389183     3.378003     3.366824
      3.355644     3.344465     3.333285     3.322106     3.310926     3.299747     3.288568     3.277388     3.266209     3.255029
      3.243850     3.232670     3.221491     3.210311     3.199132     3.187953     3.176773     3.165594     3.154414     3.143235
      3.132055     3.120876     3.109696     3.098517     3.087337     3.076158     3.064979     3.053799     3.042620     3.031440
      3.020261     3.009081     2.997902     2.986722     2.975543     2.964364     2.953184     2.942005     2.930825     2.919646
      2.908466     2.897287     2.886107     2.874928     2.863749     2.852569     2.841390     2.830210     2.819031     2.807851
      2.796672     2.785492     2.774313     2.763134     2.751954     2.740775     2.729595     2.718416     2.707236     2.696057
      2.684877     2.673698     2.662519     2.651339     2.640160     2.628980     2.617801     2.606621     2.595442     2.584262
      2.573083     2.561903     2.550724     2.539545     2.528365     2.517186     2.506006     2.494827     2.483647     2.472468
      2.461288     2.450109     2.438930     2.427750     2.416571     2.405391     2.394212     2.383032     2.371853     2.360673
      2.349494     2.338315     2.327135     2.315956     2.304776     2.293597     2.282417     2.271238     2.260058     2.248879
      2.237700     2.226520     2.215341     2.204161     2.192982     2.181802     2.170623     2.159443     2.148264     2.137084
      2.125905     2.114726     2.103546     2.092367     2.081187     2.070008     2.058828     2.047649     2.036469     2.025290
      2.014111     2.002931     1.991752     1.980572     1.969393     1.958213     1.947034     1.935854     1.924675     1.913496
      1.902316     1.891137     1.879957     1.868778     1.857598     1.846419     1.835239     1.824060     1.812881     1.801701
      1.790522     1.779342     1.768163     1.756983     1.745804     1.734624     1.723445     1.712265     1.701086     1.689907
      1.678727     1.667548     1.656368     1.645189     1.634009     1.622830     1.611650     1.600471     1.589292     1.578112
      1.566933     1.555753     1.544574     1.533394     1.522215     1.511035     1.499856     1.488677     1.477497     1.466318
      1.455138     1.443959     1.432779     1.421600     1.410420     1.399241     1.388062     1.376882     1.365703     1.354523
      1.343344     1.332164     1.320985     1.309805     1.298626     1.287446     1.276267     1.265088     1.253908     1.242729
      1.231549     1.220370     1.209190     1.198011     1.186831     1.175652     1.164473     1.153293     1.142114     1.130934
      1.119755     1.108575     1.097396     1.086216     1.075037     1.063858     1.052678     1.041499     1.030319     1.019140
      1.007960     0.996781     0.985601     0.974422     0.963243     0.952063     0.940884     0.929704     0.918525     0.907345
      0.896166     0.884986     0.873807     0.862628     0.851448     0.840269     0.829089     0.817910     0.806730     0.795551
      0.784371     0.773192     0.762012     0.750833     0.739654     0.728474     0.717295     0.706115     0.694936     0.683756
      0.672577     0.661397     0.650218     0.639039     0.627859     0.616680     0.605500     0.594321     0.583141     0.571962
      0.560782     0.549603     0.538424     0.527244     0.516065     0.504885     0.493706     0.482526     0.471347     0.460167
      0.448988     0.437809     0.426629     0.415450     0.404270     0.393091     0.381911     0.370732     0.359552     0.348373
      0.337193     0.326014     0.314835     0.303655     0.292476     0.281296     0.270117     0.258937     0.247758     0.236578
      0.225399     0.214220     0.203040
 NY phased data points follow
   5.11174E-09  3.51898E-09  4.65754E-09  2.87278E-09  3.86016E-09  2.65829E-09  3.79616E-09  2.42232E-09  3.56356E-09  2.99203E-09
   3.80526E-09  3.44766E-09  5.03926E-09  3.78566E-09  5.05442E-09  3.92824E-09  5.26329E-09  3.91238E-09  4.83350E-09  3.37735E-09
   4.39874E-09  3.76730E-09  5.05645E-09  4.42266E-09  4.83381E-09  3.38960E-09  4.03865E-09  2.69685E-09  4.74324E-09  5.20381E-09
   6.68701E-09  6.48160E-09  7.01923E-09  6.07573E-09  6.13526E-09  5.40594E-09  6.01731E-09  5.10649E-09  5.89867E-09  4.91848E-09
   5.55127E-09  4.97091E-09  5.87284E-09  4.77127E-09  4.84140E-09  3.61629E-09  4.40039E-09  3.64284E-09  4.19952E-09  3.49000E-09
   4.41538E-09  3.02102E-09  3.29918E-09  2.39426E-09  2.52997E-09  2.22961E-09  2.87877E-09  1.35171E-09  1.98554E-09  2.49329E-09
   4.86740E-09  5.22458E-09  6.40325E-09  5.39092E-09  5.78009E-09  4.97497E-09  5.07737E-09  4.66038E-09  4.37374E-09  3.64612E-09
   3.63015E-09  2.62353E-09  2.68260E-09  1.08072E-09  1.15274E-09  6.47950E-10  3.79740E-09  6.36483E-09  8.10547E-09  7.13099E-09
   7.81977E-09  7.48626E-09  8.06349E-09  7.19514E-09  7.71619E-09  7.20469E-09  8.16634E-09  7.50955E-09  8.42756E-09  7.37949E-09
   7.83096E-09  7.11262E-09  7.45964E-09  6.34957E-09  6.91349E-09  6.37345E-09  6.47031E-09  5.67408E-09  6.30885E-09  5.50781E-09
   6.24189E-09  4.72211E-09  6.01267E-09  5.66126E-09  6.03764E-09  5.06932E-09  5.21835E-09  4.04517E-09  4.12483E-09  3.90820E-09
   4.20919E-09  3.94367E-09  4.28805E-09  3.77517E-09  4.88498E-09  3.96264E-09  4.59721E-09  4.00374E-09  4.74775E-09  4.20283E-09
   4.31726E-09  3.83252E-09  3.66917E-09  2.94890E-09  3.11712E-09  2.86152E-09  3.50355E-09  2.94315E-09  3.44247E-09  3.24918E-09
   3.90088E-09  4.01018E-09  3.51211E-09  3.41085E-09  3.36206E-09  2.80414E-09  4.03282E-09  4.74132E-09  5.12314E-09  4.89214E-09
   4.79037E-09  4.67792E-09  5.22515E-09  5.72808E-09  6.27332E-09  5.84840E-09  6.36530E-09  6.08408E-09  6.18411E-09  5.96136E-09
   6.30128E-09  5.79756E-09  6.22301E-09  5.53090E-09  5.83858E-09  5.74339E-09  5.26198E-09  5.03457E-09  5.29250E-09  4.66928E-09
   5.35304E-09  4.27605E-09  4.94535E-09  4.45522E-09  4.08483E-09  2.79079E-09  3.05855E-09  5.23284E-09  1.00186E-08  1.20626E-08
   1.25683E-08  1.17208E-08  1.18467E-08  1.12028E-08  1.13864E-08  1.08010E-08  1.02430E-08  9.90393E-09  9.61292E-09  8.45468E-09
   7.55442E-09  6.54706E-09  5.49122E-09  3.46136E-09  2.54743E-09  7.20242E-10 -1.94225E-10 -1.59840E-09 -3.22916E-09 -4.45587E-09
  -5.72596E-09 -7.02694E-09 -7.15310E-09 -8.25802E-09 -8.23397E-09 -8.49072E-09 -8.16480E-09 -7.58870E-09 -6.91211E-09 -6.54345E-09
  -5.52791E-09 -4.81548E-09 -4.30039E-09 -3.74921E-09 -2.76285E-09 -2.87638E-09 -2.17494E-09 -2.28613E-09 -1.88695E-09 -2.25009E-09
  -2.06239E-09 -1.83920E-09 -1.69299E-09 -2.19984E-09 -1.48522E-09 -1.94808E-09 -1.51971E-09 -2.00280E-09 -1.47291E-09 -1.60116E-09
  -1.45417E-09 -1.37932E-09 -1.21559E-09 -1.66216E-09 -1.75149E-09 -1.66563E-09 -1.33252E-09 -1.69321E-09 -1.31269E-09 -1.09091E-09
  -1.29061E-09 -2.03428E-09 -1.41660E-09 -1.20991E-09 -8.93914E-10 -1.79203E-09 -1.47396E-09 -1.61015E-09 -1.47174E-09 -1.61713E-09
  -1.73783E-09 -1.54838E-09 -1.54581E-09 -1.85570E-09 -1.43837E-09 -1.67388E-09 -1.02185E-09 -1.40033E-09 -9.71567E-10 -1.03568E-09
  -7.96770E-10 -1.30329E-09 -9.99081E-10 -1.41377E-09 -1.29216E-09 -1.52981E-09 -1.28177E-09 -1.56073E-09 -1.54805E-09 -1.54762E-09
  -2.02608E-09 -1.92919E-09 -1.94998E-09 -2.14104E-09 -1.89556E-09 -2.00966E-09 -1.83519E-09 -1.70409E-09 -1.55388E-09 -1.45919E-09
  -8.21480E-10 -8.61158E-10 -8.66137E-10 -6.65754E-10 -5.87582E-10 -5.92799E-10 -5.66031E-10 -6.38600E-10 -5.33864E-10 -7.77628E-10
  -9.07038E-10 -8.00531E-10 -9.06479E-10 -1.27301E-09 -1.14166E-09 -8.29408E-10 -1.18909E-09 -1.57987E-09 -1.21206E-09 -1.41345E-09
  -1.31326E-09 -1.49508E-09 -1.35306E-09 -2.00211E-09 -1.34471E-09 -1.53460E-09 -1.95954E-09 -1.71010E-09 -1.64151E-09 -1.91594E-09
  -1.48915E-09 -1.68336E-09 -1.72749E-09 -1.75594E-09 -2.07308E-09 -1.87191E-09 -1.87672E-09 -2.15639E-09 -1.84593E-09 -1.71726E-09
  -1.89964E-09 -2.03486E-09 -2.05073E-09 -1.92876E-09 -2.12461E-09 -2.04902E-09 -2.21399E-09 -2.36316E-09 -1.97188E-09 -2.18472E-09
  -1.84720E-09 -1.98905E-09 -2.13357E-09 -1.85364E-09 -2.37675E-09 -2.17295E-09 -1.92824E-09 -2.39225E-09 -1.99775E-09 -2.10321E-09
  -1.73363E-09 -2.33079E-09 -2.15182E-09 -2.46175E-09 -2.31335E-09 -2.11416E-09 -2.45505E-09 -2.06712E-09 -2.31743E-09 -2.31699E-09
  -2.34333E-09 -2.70172E-09 -2.17677E-09 -2.36307E-09 -2.23199E-09 -2.19176E-09 -2.19468E-09 -1.98704E-09 -2.23676E-09 -2.23687E-09
  -2.35324E-09 -2.57671E-09 -1.90248E-09 -2.21721E-09 -2.36064E-09 -2.28847E-09 -2.17000E-09 -2.02188E-09 -2.01783E-09 -1.72302E-09
  -2.13463E-09 -1.60057E-09 -2.76681E-09
 NY points of the fit to the data follow
   3.90911E-09  4.35170E-09  4.23578E-09  3.96848E-09  3.84598E-09  3.84338E-09  3.70583E-09  3.35004E-09  2.98019E-09  2.90576E-09
   3.13720E-09  3.39028E-09  3.67353E-09  3.94120E-09  4.26618E-09  4.56197E-09  4.77221E-09  5.06501E-09  5.17319E-09  4.80252E-09
   4.22459E-09  3.76272E-09  3.58871E-09  3.57211E-09  3.67552E-09  3.86201E-09  4.21353E-09  4.68173E-09  5.14174E-09  5.51679E-09
   5.83351E-09  5.99447E-09  6.10644E-09  6.19142E-09  6.28931E-09  6.20091E-09  5.97039E-09  5.63222E-09  5.41042E-09  5.29882E-09
   5.23635E-09  5.11659E-09  4.81897E-09  4.38349E-09  4.10404E-09  3.89820E-09  3.72381E-09  3.56813E-09  3.42728E-09  3.31504E-09
   3.21990E-09  3.13776E-09  3.05655E-09  2.96189E-09  2.89441E-09  2.98492E-09  3.15381E-09  3.35708E-09  3.69845E-09  4.12640E-09
   4.49451E-09  4.81675E-09  5.09614E-09  5.32663E-09  5.44933E-09  5.41496E-09  5.27755E-09  5.11462E-09  4.79583E-09  4.41850E-09
   4.17381E-09  4.04068E-09  3.98989E-09  4.00708E-09  4.04684E-09  4.19678E-09  4.61765E-09  5.36577E-09  6.31781E-09  7.21400E-09
   7.90493E-09  8.35791E-09  8.58625E-09  8.79090E-09  8.98967E-09  8.92060E-09  8.50386E-09  7.84880E-09  7.17636E-09  6.66885E-09
   6.34499E-09  6.11069E-09  5.92920E-09  5.78254E-09  5.65891E-09  5.55354E-09  5.46546E-09  5.38957E-09  5.31983E-09  5.25421E-09
   5.19815E-09  5.15183E-09  5.10937E-09  5.06838E-09  5.03154E-09  4.99850E-09  4.96847E-09  4.94086E-09  4.91508E-09  4.89082E-09
   4.86777E-09  4.84565E-09  4.82422E-09  4.80322E-09  4.78247E-09  4.76176E-09  4.74092E-09  4.71979E-09  4.69821E-09  4.67603E-09
   4.65313E-09  4.62936E-09  4.60461E-09  4.57876E-09  4.55170E-09  4.52330E-09  4.49348E-09  4.46212E-09  4.42912E-09  4.39438E-09
   4.35781E-09  4.31932E-09  4.27882E-09  4.23621E-09  4.19140E-09  4.14433E-09  4.09488E-09  4.04302E-09  3.98878E-09  3.93220E-09
   3.87333E-09  3.81220E-09  3.74888E-09  3.68340E-09  3.61583E-09  3.54622E-09  3.47463E-09  3.40113E-09  3.32579E-09  3.24868E-09
   3.16988E-09  3.08949E-09  3.00761E-09  2.92437E-09  2.83993E-09  2.75448E-09  2.66828E-09  2.58171E-09  2.49530E-09  2.40986E-09
   2.32679E-09  2.24839E-09  2.17911E-09  2.12817E-09  2.11778E-09  2.21533E-09  2.72382E-09  5.07970E-09  8.27456E-09  1.08657E-08
   1.22212E-08  1.25759E-08  1.25091E-08  1.24228E-08  1.22958E-08  1.16803E-08  9.95347E-09  6.86923E-09  3.43316E-09  2.11414E-09
   1.57552E-09  1.25445E-09  1.02359E-09  8.39511E-10  6.83213E-10  5.45041E-10  4.19553E-10  3.03415E-10  1.94515E-10  9.14042E-11
  -6.89421E-12 -1.01112E-10 -1.91741E-10 -2.79190E-10 -3.63740E-10 -4.45618E-10 -5.24986E-10 -6.01986E-10 -6.76715E-10 -7.49262E-10
  -8.19683E-10 -8.88027E-10 -9.54337E-10 -1.01863E-09 -1.08094E-09 -1.14129E-09 -1.19968E-09 -1.25612E-09 -1.31061E-09 -1.36315E-09
  -1.41375E-09 -1.46241E-09 -1.50912E-09 -1.55388E-09 -1.59668E-09 -1.63751E-09 -1.67638E-09 -1.71328E-09 -1.74819E-09 -1.78111E-09
  -1.81205E-09 -1.84099E-09 -1.86791E-09 -1.89284E-09 -1.91576E-09 -1.93664E-09 -1.95552E-09 -1.97237E-09 -1.98726E-09 -2.00025E-09
  -2.01144E-09 -2.02089E-09 -2.02868E-09 -2.03490E-09 -2.03961E-09 -2.04289E-09 -2.04482E-09 -2.04547E-09 -2.04493E-09 -2.04325E-09
  -2.04051E-09 -2.03680E-09 -2.03217E-09 -2.02670E-09 -2.02046E-09 -2.01352E-09 -2.00594E-09 -1.99781E-09 -1.98917E-09 -1.98011E-09
  -1.97068E-09 -1.96095E-09 -1.95098E-09 -1.94083E-09 -1.93057E-09 -1.92025E-09 -1.90994E-09 -1.89969E-09 -1.88955E-09 -1.87959E-09
  -1.86985E-09 -1.86040E-09 -1.85127E-09 -1.84252E-09 -1.83421E-09 -1.82636E-09 -1.81904E-09 -1.81229E-09 -1.80614E-09 -1.80063E-09
  -1.79582E-09 -1.79173E-09 -1.78840E-09 -1.78583E-09 -1.78400E-09 -1.78285E-09 -1.78238E-09 -1.78253E-09 -1.78328E-09 -1.78460E-09
  -1.78645E-09 -1.78880E-09 -1.79163E-09 -1.79489E-09 -1.79855E-09 -1.80259E-09 -1.80698E-09 -1.81167E-09 -1.81665E-09 -1.82187E-09
  -1.82732E-09 -1.83295E-09 -1.83874E-09 -1.84467E-09 -1.85069E-09 -1.85679E-09 -1.86293E-09 -1.86908E-09 -1.87522E-09 -1.88131E-09
  -1.88734E-09 -1.89327E-09 -1.89908E-09 -1.90474E-09 -1.91023E-09 -1.91551E-09 -1.92057E-09 -1.92538E-09 -1.92992E-09 -1.93416E-09
  -1.93808E-09 -1.94165E-09 -1.94485E-09 -1.94768E-09 -1.95009E-09 -1.95207E-09 -1.95360E-09 -1.95466E-09 -1.95523E-09 -1.95531E-09
  -1.95487E-09 -1.95390E-09 -1.95238E-09 -1.95032E-09 -1.94769E-09 -1.94448E-09 -1.94069E-09 -1.93629E-09 -1.93128E-09 -1.92565E-09
  -1.91938E-09 -1.91247E-09 -1.90491E-09 -1.89668E-09 -1.88778E-09 -1.87820E-09 -1.86793E-09 -1.85696E-09 -1.84528E-09 -1.83289E-09
  -1.81978E-09 -1.80594E-09 -1.79136E-09 -1.77604E-09 -1.75997E-09 -1.74315E-09 -1.72557E-09 -1.70722E-09 -1.68811E-09 -1.66822E-09
  -1.64755E-09 -1.62611E-09 -1.60387E-09 -1.58086E-09 -1.55705E-09 -1.53245E-09 -1.50705E-09 -1.48087E-09 -1.45388E-09 -1.42610E-09
  -1.39752E-09 -1.36815E-09 -1.33797E-09
 NY background values follow
     3.586E-10    3.823E-10    4.063E-10    4.303E-10    4.546E-10    4.791E-10    5.037E-10    5.285E-10    5.535E-10    5.786E-10
     6.040E-10    6.295E-10    6.551E-10    6.810E-10    7.070E-10    7.331E-10    7.595E-10    7.859E-10    8.126E-10    8.394E-10
     8.663E-10    8.934E-10    9.207E-10    9.480E-10    9.756E-10    1.003E-09    1.031E-09    1.059E-09    1.087E-09    1.115E-09
     1.144E-09    1.172E-09    1.201E-09    1.230E-09    1.259E-09    1.288E-09    1.317E-09    1.346E-09    1.375E-09    1.405E-09
     1.434E-09    1.464E-09    1.494E-09    1.524E-09    1.554E-09    1.584E-09    1.614E-09    1.645E-09    1.675E-09    1.706E-09
     1.737E-09    1.767E-09    1.798E-09    1.829E-09    1.860E-09    1.891E-09    1.922E-09    1.953E-09    1.984E-09    2.016E-09
     2.047E-09    2.079E-09    2.110E-09    2.141E-09    2.173E-09    2.204E-09    2.236E-09    2.267E-09    2.299E-09    2.331E-09
     2.362E-09    2.394E-09    2.425E-09    2.457E-09    2.488E-09    2.520E-09    2.551E-09    2.583E-09    2.614E-09    2.646E-09
     2.677E-09    2.708E-09    2.739E-09    2.770E-09    2.802E-09    2.832E-09    2.863E-09    2.894E-09    2.925E-09    2.955E-09
     2.986E-09    3.016E-09    3.046E-09    3.076E-09    3.106E-09    3.136E-09    3.165E-09    3.194E-09    3.222E-09    3.250E-09
     3.277E-09    3.304E-09    3.330E-09    3.356E-09    3.380E-09    3.404E-09    3.427E-09    3.450E-09    3.471E-09    3.491E-09
     3.510E-09    3.528E-09    3.545E-09    3.560E-09    3.575E-09    3.587E-09    3.599E-09    3.609E-09    3.617E-09    3.624E-09
     3.628E-09    3.632E-09    3.633E-09    3.632E-09    3.630E-09    3.626E-09    3.619E-09    3.610E-09    3.599E-09    3.586E-09
     3.571E-09    3.553E-09    3.532E-09    3.509E-09    3.484E-09    3.456E-09    3.425E-09    3.391E-09    3.355E-09    3.316E-09
     3.274E-09    3.230E-09    3.184E-09    3.135E-09    3.084E-09    3.030E-09    2.974E-09    2.917E-09    2.857E-09    2.795E-09
     2.731E-09    2.666E-09    2.599E-09    2.530E-09    2.459E-09    2.387E-09    2.314E-09    2.239E-09    2.164E-09    2.086E-09
     2.008E-09    1.929E-09    1.849E-09    1.768E-09    1.686E-09    1.604E-09    1.521E-09    1.438E-09    1.354E-09    1.270E-09
     1.186E-09    1.102E-09    1.018E-09    9.337E-10    8.496E-10    7.659E-10    6.825E-10    5.996E-10    5.172E-10    4.354E-10
     3.543E-10    2.741E-10    1.947E-10    1.163E-10    3.886E-11   -3.758E-11   -1.130E-10   -1.873E-10   -2.606E-10   -3.327E-10
    -4.036E-10   -4.733E-10   -5.418E-10   -6.091E-10   -6.750E-10   -7.397E-10   -8.030E-10   -8.649E-10   -9.254E-10   -9.845E-10
    -1.042E-09   -1.098E-09   -1.153E-09   -1.206E-09   -1.258E-09   -1.308E-09   -1.356E-09   -1.403E-09   -1.448E-09   -1.491E-09
    -1.533E-09   -1.573E-09   -1.612E-09   -1.648E-09   -1.683E-09   -1.716E-09   -1.747E-09   -1.777E-09   -1.804E-09   -1.830E-09
    -1.854E-09   -1.876E-09   -1.896E-09   -1.914E-09   -1.931E-09   -1.945E-09   -1.958E-09   -1.968E-09   -1.977E-09   -1.984E-09
    -1.989E-09   -1.993E-09   -1.995E-09   -1.996E-09   -1.995E-09   -1.993E-09   -1.989E-09   -1.984E-09   -1.978E-09   -1.972E-09
    -1.964E-09   -1.955E-09   -1.945E-09   -1.935E-09   -1.924E-09   -1.912E-09   -1.899E-09   -1.886E-09   -1.873E-09   -1.859E-09
    -1.845E-09   -1.831E-09   -1.817E-09   -1.802E-09   -1.788E-09   -1.773E-09   -1.758E-09   -1.744E-09   -1.729E-09   -1.715E-09
    -1.702E-09   -1.688E-09   -1.675E-09   -1.662E-09   -1.650E-09   -1.638E-09   -1.627E-09   -1.616E-09   -1.607E-09   -1.597E-09
    -1.589E-09   -1.581E-09   -1.574E-09   -1.568E-09   -1.563E-09   -1.558E-09   -1.554E-09   -1.551E-09   -1.548E-09   -1.546E-09
    -1.544E-09   -1.544E-09   -1.543E-09   -1.543E-09   -1.544E-09   -1.544E-09   -1.546E-09   -1.547E-09   -1.549E-09   -1.551E-09
    -1.554E-09   -1.556E-09   -1.559E-09   -1.562E-09   -1.565E-09   -1.569E-09   -1.572E-09   -1.575E-09   -1.579E-09   -1.582E-09
    -1.585E-09   -1.588E-09   -1.592E-09   -1.595E-09   -1.597E-09   -1.600E-09   -1.603E-09   -1.605E-09   -1.607E-09   -1.609E-09
    -1.610E-09   -1.611E-09   -1.612E-09   -1.612E-09   -1.612E-09   -1.612E-09   -1.611E-09   -1.610E-09   -1.608E-09   -1.606E-09
    -1.603E-09   -1.600E-09   -1.597E-09   -1.592E-09   -1.588E-09   -1.582E-09   -1.576E-09   -1.570E-09   -1.563E-09   -1.555E-09
    -1.547E-09   -1.538E-09   -1.529E-09   -1.519E-09   -1.508E-09   -1.496E-09   -1.484E-09   -1.471E-09   -1.458E-09   -1.444E-09
    -1.429E-09   -1.413E-09   -1.397E-09   -1.380E-09   -1.362E-09   -1.344E-09   -1.324E-09   -1.304E-09   -1.284E-09   -1.262E-09
    -1.240E-09   -1.217E-09   -1.193E-09   -1.169E-09   -1.143E-09   -1.117E-09   -1.090E-09   -1.063E-09   -1.034E-09   -1.005E-09
    -9.753E-10   -9.445E-10   -9.130E-10
 Glc      Conc. = 3.72E-10
  -1.15372E-10  4.24001E-11  1.85722E-10  3.31743E-10  4.65076E-10  5.90303E-10  6.85711E-10  7.52752E-10  7.74930E-10  7.30070E-10
   6.77805E-10  6.30510E-10  5.87719E-10  5.73065E-10  6.31335E-10  7.74914E-10  9.79075E-10  1.20943E-09  1.41405E-09  1.57644E-09
   1.73338E-09  1.88983E-09  2.02725E-09  2.13000E-09  2.15883E-09  2.09965E-09  2.02070E-09  1.97353E-09  1.96011E-09  1.96857E-09
   1.97378E-09  1.97093E-09  1.97493E-09  1.97529E-09  1.96113E-09  1.94962E-09  1.94649E-09  1.93887E-09  1.92758E-09  1.92245E-09
   1.92272E-09  1.92686E-09  1.93407E-09  1.94375E-09  1.95549E-09  1.96898E-09  1.98398E-09  2.00029E-09  2.01775E-09  2.03623E-09
   2.05561E-09  2.07580E-09  2.09673E-09  2.11833E-09  2.14052E-09  2.16328E-09  2.18653E-09  2.21025E-09  2.23440E-09  2.25894E-09
   2.28385E-09  2.30909E-09  2.33464E-09  2.36047E-09  2.38657E-09  2.41292E-09  2.43949E-09  2.46626E-09  2.49323E-09  2.52038E-09
   2.54768E-09  2.57513E-09  2.60271E-09  2.63041E-09  2.65821E-09  2.68611E-09  2.71409E-09  2.74215E-09  2.77027E-09  2.79843E-09
   2.82664E-09  2.85487E-09  2.88313E-09  2.91140E-09  2.93966E-09  2.96792E-09  2.99616E-09  3.02437E-09  3.05255E-09  3.08068E-09
   3.10877E-09  3.13679E-09  3.16471E-09  3.19251E-09  3.22012E-09  3.24750E-09  3.27460E-09  3.30137E-09  3.32776E-09  3.35371E-09
   3.37918E-09  3.40411E-09  3.42844E-09  3.45212E-09  3.47510E-09  3.49731E-09  3.51870E-09  3.53922E-09  3.55880E-09  3.57739E-09
   3.59492E-09  3.61133E-09  3.62658E-09  3.64058E-09  3.65328E-09  3.66462E-09  3.67455E-09  3.68299E-09  3.68987E-09  3.69515E-09
   3.69874E-09  3.70060E-09  3.70065E-09  3.69883E-09  3.69508E-09  3.68933E-09  3.68151E-09  3.67157E-09  3.65944E-09  3.64504E-09
   3.62832E-09  3.60921E-09  3.58765E-09  3.56357E-09  3.53691E-09  3.50761E-09  3.47559E-09  3.44083E-09  3.40339E-09  3.36332E-09
   3.32067E-09  3.27552E-09  3.22793E-09  3.17795E-09  3.12566E-09  3.07112E-09  3.01441E-09  2.95558E-09  2.89473E-09  2.83191E-09
   2.76721E-09  2.70070E-09  2.63246E-09  2.56257E-09  2.49111E-09  2.41818E-09  2.34386E-09  2.26826E-09  2.19147E-09  2.11363E-09
   2.03492E-09  1.95555E-09  1.87588E-09  1.79662E-09  1.71936E-09  1.64900E-09  1.60865E-09  1.69362E-09  1.82409E-09  1.90812E-09
   1.91034E-09  1.85028E-09  1.76637E-09  1.68298E-09  1.59619E-09  1.47491E-09  1.27877E-09  9.95668E-10  6.99581E-10  5.49044E-10
   4.40654E-10  3.45447E-10  2.56448E-10  1.71187E-10  8.85614E-11  8.01522E-12 -7.07464E-11 -1.47917E-10 -2.23582E-10 -2.97817E-10
  -3.70641E-10 -4.42090E-10 -5.12143E-10 -5.80821E-10 -6.48102E-10 -7.13981E-10 -7.78432E-10 -8.41446E-10 -9.02999E-10 -9.63077E-10
  -1.02165E-09 -1.07871E-09 -1.13422E-09 -1.18817E-09 -1.24053E-09 -1.29129E-09 -1.34043E-09 -1.38792E-09 -1.43374E-09 -1.47787E-09
  -1.52030E-09 -1.56100E-09 -1.59996E-09 -1.63717E-09 -1.67259E-09 -1.70623E-09 -1.73805E-09 -1.76806E-09 -1.79623E-09 -1.82253E-09
  -1.84699E-09 -1.86957E-09 -1.89025E-09 -1.90905E-09 -1.92594E-09 -1.94090E-09 -1.95395E-09 -1.96508E-09 -1.97432E-09 -1.98177E-09
  -1.98748E-09 -1.99155E-09 -1.99403E-09 -1.99502E-09 -1.99457E-09 -1.99277E-09 -1.98969E-09 -1.98539E-09 -1.97996E-09 -1.97347E-09
  -1.96598E-09 -1.95756E-09 -1.94830E-09 -1.93825E-09 -1.92749E-09 -1.91608E-09 -1.90409E-09 -1.89159E-09 -1.87865E-09 -1.86533E-09
  -1.85169E-09 -1.83779E-09 -1.82371E-09 -1.80949E-09 -1.79521E-09 -1.78091E-09 -1.76667E-09 -1.75252E-09 -1.73854E-09 -1.72477E-09
  -1.71127E-09 -1.69808E-09 -1.68527E-09 -1.67288E-09 -1.66095E-09 -1.64954E-09 -1.63868E-09 -1.62843E-09 -1.61882E-09 -1.60989E-09
  -1.60169E-09 -1.59425E-09 -1.58760E-09 -1.58174E-09 -1.57665E-09 -1.57229E-09 -1.56862E-09 -1.56562E-09 -1.56325E-09 -1.56147E-09
  -1.56027E-09 -1.55959E-09 -1.55941E-09 -1.55970E-09 -1.56043E-09 -1.56156E-09 -1.56306E-09 -1.56490E-09 -1.56705E-09 -1.56948E-09
  -1.57216E-09 -1.57505E-09 -1.57813E-09 -1.58137E-09 -1.58473E-09 -1.58819E-09 -1.59173E-09 -1.59530E-09 -1.59888E-09 -1.60245E-09
  -1.60598E-09 -1.60943E-09 -1.61278E-09 -1.61602E-09 -1.61910E-09 -1.62201E-09 -1.62471E-09 -1.62719E-09 -1.62942E-09 -1.63138E-09
  -1.63303E-09 -1.63437E-09 -1.63536E-09 -1.63600E-09 -1.63624E-09 -1.63608E-09 -1.63549E-09 -1.63445E-09 -1.63294E-09 -1.63096E-09
  -1.62848E-09 -1.62550E-09 -1.62200E-09 -1.61797E-09 -1.61339E-09 -1.60826E-09 -1.60256E-09 -1.59628E-09 -1.58941E-09 -1.58193E-09
  -1.57384E-09 -1.56513E-09 -1.55579E-09 -1.54580E-09 -1.53516E-09 -1.52386E-09 -1.51189E-09 -1.49924E-09 -1.48591E-09 -1.47188E-09
  -1.45714E-09 -1.44170E-09 -1.42554E-09 -1.40865E-09 -1.39104E-09 -1.37270E-09 -1.35361E-09 -1.33377E-09 -1.31319E-09 -1.29185E-09
  -1.26976E-09 -1.24690E-09 -1.22327E-09 -1.19888E-09 -1.17372E-09 -1.14778E-09 -1.12107E-09 -1.09358E-09 -1.06531E-09 -1.03626E-09
  -1.00643E-09 -9.75828E-10 -9.44443E-10
 Gln      Conc. = 1.17E-09
  -7.38852E-10 -5.77428E-10 -3.46268E-10 -5.73144E-11  2.58209E-10  5.69310E-10  8.51044E-10  1.08337E-09  1.25928E-09  1.42032E-09
   1.48263E-09  1.40101E-09  1.36364E-09  1.25695E-09  1.15699E-09  1.08728E-09  1.03810E-09  1.00277E-09  9.77250E-10  9.58968E-10
   9.46183E-10  9.37654E-10  9.32466E-10  9.29958E-10  9.29721E-10  9.31477E-10  9.34705E-10  9.39163E-10  9.44747E-10  9.51112E-10
   9.58057E-10  9.65421E-10  9.73055E-10  9.80827E-10  9.88603E-10  9.96252E-10  1.00364E-09  1.01063E-09  1.01705E-09  1.02272E-09
   1.02751E-09  1.03120E-09  1.03366E-09  1.03471E-09  1.03402E-09  1.03126E-09  1.02610E-09  1.01759E-09  1.00534E-09  9.89594E-10
   9.68931E-10  9.42324E-10  9.10615E-10  8.80185E-10  8.95137E-10  1.06003E-09  1.28684E-09  1.51970E-09  1.88121E-09  2.35522E-09
   2.81111E-09  3.23860E-09  3.61832E-09  3.91221E-09  4.07455E-09  4.08161E-09  3.99554E-09  3.90545E-09  3.65220E-09  3.31462E-09
   3.08259E-09  2.93769E-09  2.86468E-09  2.89334E-09  3.00080E-09  3.24803E-09  3.55506E-09  3.87948E-09  4.21124E-09  4.52621E-09
   4.80410E-09  5.01004E-09  5.07293E-09  5.08068E-09  5.07107E-09  4.92764E-09  4.74015E-09  4.62035E-09  4.46086E-09  4.31233E-09
   4.20622E-09  4.12857E-09  4.07107E-09  4.02797E-09  3.99472E-09  3.96927E-09  3.95020E-09  3.93609E-09  3.92610E-09  3.91955E-09
   3.91566E-09  3.91379E-09  3.91356E-09  3.91466E-09  3.91686E-09  3.91990E-09  3.92349E-09  3.92742E-09  3.93151E-09  3.93559E-09
   3.93950E-09  3.94310E-09  3.94626E-09  3.94885E-09  3.95076E-09  3.95187E-09  3.95207E-09  3.95127E-09  3.94935E-09  3.94623E-09
   3.94182E-09  3.93601E-09  3.92873E-09  3.91987E-09  3.90938E-09  3.89715E-09  3.88311E-09  3.86718E-09  3.84927E-09  3.82931E-09
   3.80722E-09  3.78293E-09  3.75636E-09  3.72743E-09  3.69607E-09  3.66223E-09  3.62580E-09  3.58677E-09  3.54517E-09  3.50107E-09
   3.45450E-09  3.40554E-09  3.35424E-09  3.30065E-09  3.24485E-09  3.18689E-09  3.12684E-09  3.06477E-09  3.00075E-09  2.93486E-09
   2.86718E-09  2.79776E-09  2.72672E-09  2.65412E-09  2.58007E-09  2.50469E-09  2.42807E-09  2.35038E-09  2.27179E-09  2.19252E-09
   2.11294E-09  2.03357E-09  1.95535E-09  1.88009E-09  1.81198E-09  1.76294E-09  1.78251E-09  2.14755E-09  2.70716E-09  3.17048E-09
   3.39404E-09  3.41038E-09  3.33178E-09  3.24387E-09  3.15116E-09  2.97195E-09  2.58324E-09  1.92388E-09  1.16499E-09  7.99088E-10
   6.18984E-10  4.88133E-10  3.77402E-10  2.77252E-10  1.83625E-10  9.45081E-11  8.80049E-12 -7.41734E-11 -1.54806E-10 -2.33377E-10
  -3.10047E-10 -3.84954E-10 -4.58152E-10 -5.29716E-10 -5.99671E-10 -6.68041E-10 -7.34830E-10 -8.00047E-10 -8.63687E-10 -9.25750E-10
  -9.86222E-10 -1.04509E-09 -1.10235E-09 -1.15797E-09 -1.21195E-09 -1.26427E-09 -1.31492E-09 -1.36388E-09 -1.41113E-09 -1.45665E-09
  -1.50043E-09 -1.54244E-09 -1.58269E-09 -1.62116E-09 -1.65781E-09 -1.69264E-09 -1.72564E-09 -1.75680E-09 -1.78610E-09 -1.81351E-09
  -1.83906E-09 -1.86269E-09 -1.88442E-09 -1.90425E-09 -1.92215E-09 -1.93810E-09 -1.95214E-09 -1.96423E-09 -1.97442E-09 -1.98279E-09
