 LCModel (Version 6.3-1R) Copyright: S.W. Provencher.          Ref.: Magn. Reson. Med. 30:672-679 (1993).                
 onepulse 28x12_ftSpec_smooth_lcm
 26 lines in following concentration table = NCONC+1
    Conc.  %SD /Cr+PCr  Metabolite                                         
 5.58E-10  43%   7.245 Ala                                                 
 1.09E-09  51%  14.097 Asp                                                 
    0.000 999%   0.000 Cr                                                  
 1.23E-09  36%  15.914 GABA                                                
 6.25E-10 133%   8.120 Glc                                                 
    0.000 999%   0.000 Gln                                                 
    0.000 999%   0.000 Glu                                                 
    0.000 999%   0.000 Glyc                                                
    0.000 999%   0.000 GPC                                                 
 8.16E-10  54%  10.594 GSH                                                 
 1.26E-09  28%  16.297 Ins                                                 
    0.000 999%   0.000 Lac                                                 
 3.28E-10  85%   4.265 NAAG                                                
 5.26E-10  72%   6.824 NAA                                                 
    0.000 999%   0.000 PCh                                                 
 7.70E-11 374%   1.000 PCr                                                 
 2.73E-09  26%  35.432 PE                                                  
    0.000 999%   0.000 Scyllo                                              
    0.000 999%   0.000 Ser                                                 
 3.40E-10 202%   4.411 Tau                                                 
    0.000 999%   0.000 GPC+PCh                                             
 8.54E-10  23%  11.089 NAA+NAAG                                            
 1.26E-09  28%  16.297 Ins+Glyc                                            
 7.70E-11 374%   1.000 Cr+PCr                                              
    0.000 999%   0.000 Glu+Gln                                             
   6 lines in following misc. output table
  FWHM = 0.123 ppm    S/N =   3                                            
  Data shift = 0.492 ppm                                                   
  Ph: 113 deg      -4.3 deg/ppm                                            
  alphaB,S = 7.2E-01,   6.9E+00                                            
   10 spline knots.   Ns = 5(1)                                            
  (10) 8 infls.   (11) 5 extrs.                                            
  363 points on ppm-axis = NY
      4.250000     4.238821     4.227641     4.216462     4.205282     4.194103     4.182923     4.171744     4.160564     4.149385
      4.138206     4.127026     4.115847     4.104667     4.093488     4.082308     4.071129     4.059949     4.048770     4.037591
      4.026411     4.015232     4.004052     3.992873     3.981693     3.970514     3.959334     3.948155     3.936975     3.925796
      3.914617     3.903437     3.892258     3.881078     3.869899     3.858719     3.847540     3.836360     3.825181     3.814002
      3.802822     3.791643     3.780463     3.769284     3.758104     3.746925     3.735745     3.724566     3.713387     3.702207
      3.691028     3.679848     3.668669     3.657489     3.646310     3.635130     3.623951     3.612772     3.601592     3.590413
      3.579233     3.568054     3.556874     3.545695     3.534515     3.523336     3.512156     3.500977     3.489798     3.478618
      3.467439     3.456259     3.445080     3.433900     3.422721     3.411541     3.400362     3.389183     3.378003     3.366824
      3.355644     3.344465     3.333285     3.322106     3.310926     3.299747     3.288568     3.277388     3.266209     3.255029
      3.243850     3.232670     3.221491     3.210311     3.199132     3.187953     3.176773     3.165594     3.154414     3.143235
      3.132055     3.120876     3.109696     3.098517     3.087337     3.076158     3.064979     3.053799     3.042620     3.031440
      3.020261     3.009081     2.997902     2.986722     2.975543     2.964364     2.953184     2.942005     2.930825     2.919646
      2.908466     2.897287     2.886107     2.874928     2.863749     2.852569     2.841390     2.830210     2.819031     2.807851
      2.796672     2.785492     2.774313     2.763134     2.751954     2.740775     2.729595     2.718416     2.707236     2.696057
      2.684877     2.673698     2.662519     2.651339     2.640160     2.628980     2.617801     2.606621     2.595442     2.584262
      2.573083     2.561903     2.550724     2.539545     2.528365     2.517186     2.506006     2.494827     2.483647     2.472468
      2.461288     2.450109     2.438930     2.427750     2.416571     2.405391     2.394212     2.383032     2.371853     2.360673
      2.349494     2.338315     2.327135     2.315956     2.304776     2.293597     2.282417     2.271238     2.260058     2.248879
      2.237700     2.226520     2.215341     2.204161     2.192982     2.181802     2.170623     2.159443     2.148264     2.137084
      2.125905     2.114726     2.103546     2.092367     2.081187     2.070008     2.058828     2.047649     2.036469     2.025290
      2.014111     2.002931     1.991752     1.980572     1.969393     1.958213     1.947034     1.935854     1.924675     1.913496
      1.902316     1.891137     1.879957     1.868778     1.857598     1.846419     1.835239     1.824060     1.812881     1.801701
      1.790522     1.779342     1.768163     1.756983     1.745804     1.734624     1.723445     1.712265     1.701086     1.689907
      1.678727     1.667548     1.656368     1.645189     1.634009     1.622830     1.611650     1.600471     1.589292     1.578112
      1.566933     1.555753     1.544574     1.533394     1.522215     1.511035     1.499856     1.488677     1.477497     1.466318
      1.455138     1.443959     1.432779     1.421600     1.410420     1.399241     1.388062     1.376882     1.365703     1.354523
      1.343344     1.332164     1.320985     1.309805     1.298626     1.287446     1.276267     1.265088     1.253908     1.242729
      1.231549     1.220370     1.209190     1.198011     1.186831     1.175652     1.164473     1.153293     1.142114     1.130934
      1.119755     1.108575     1.097396     1.086216     1.075037     1.063858     1.052678     1.041499     1.030319     1.019140
      1.007960     0.996781     0.985601     0.974422     0.963243     0.952063     0.940884     0.929704     0.918525     0.907345
      0.896166     0.884986     0.873807     0.862628     0.851448     0.840269     0.829089     0.817910     0.806730     0.795551
      0.784371     0.773192     0.762012     0.750833     0.739654     0.728474     0.717295     0.706115     0.694936     0.683756
      0.672577     0.661397     0.650218     0.639039     0.627859     0.616680     0.605500     0.594321     0.583141     0.571962
      0.560782     0.549603     0.538424     0.527244     0.516065     0.504885     0.493706     0.482526     0.471347     0.460167
      0.448988     0.437809     0.426629     0.415450     0.404270     0.393091     0.381911     0.370732     0.359552     0.348373
      0.337193     0.326014     0.314835     0.303655     0.292476     0.281296     0.270117     0.258937     0.247758     0.236578
      0.225399     0.214220     0.203040
 NY phased data points follow
   1.23544E-09  1.57481E-09  1.48720E-09  2.75376E-09  2.34305E-09  3.21213E-09  2.57080E-09  3.52399E-09  3.23258E-09  3.27211E-09
   2.16994E-09  2.15372E-09  2.07483E-09  3.08706E-09  3.37746E-09  3.51389E-09  2.30121E-09  2.00462E-09  9.54596E-10  1.90950E-09
   2.99284E-09  4.08681E-09  5.24941E-09  6.18881E-09  5.45763E-09  5.24438E-09  4.64955E-09  5.24546E-09  4.68696E-09  5.42383E-09
   4.52916E-09  5.09870E-09  4.39092E-09  5.22049E-09  4.72685E-09  4.30963E-09  3.37284E-09  3.52474E-09  3.03310E-09  3.45924E-09
   3.03927E-09  3.62591E-09  2.87468E-09  2.43628E-09  1.36777E-09  1.09856E-09  8.24107E-10  1.28629E-09 -8.50694E-10 -1.53572E-09
  -1.58387E-09  4.71148E-10  2.18091E-09  4.06154E-09  3.90391E-09  4.26410E-09  3.96766E-09  4.00619E-09  3.52747E-09  3.53999E-09
   2.41746E-09  2.46596E-09  1.58761E-09  1.26658E-09 -6.86553E-10 -2.30672E-09 -4.10769E-09 -2.65594E-09  2.53714E-10  3.71724E-09
   3.94832E-09  4.74642E-09  4.59440E-09  5.91424E-09  5.24628E-09  5.86013E-09  5.17690E-09  6.07949E-09  6.12149E-09  7.04287E-09
   6.61603E-09  7.15143E-09  6.39842E-09  6.97057E-09  6.17168E-09  6.66061E-09  6.10044E-09  6.74184E-09  5.52474E-09  6.01405E-09
   5.21253E-09  5.95505E-09  5.20156E-09  5.36446E-09  6.03202E-09  6.40743E-09  6.20381E-09  5.83925E-09  5.08865E-09  4.02233E-09
   3.95017E-09  3.97990E-09  3.84394E-09  4.12583E-09  3.22316E-09  4.24820E-09  3.91055E-09  4.02773E-09  3.95695E-09  4.36264E-09
   4.61555E-09  4.67233E-09  4.19547E-09  3.71191E-09  3.13908E-09  2.52818E-09  2.27698E-09  2.86496E-09  2.62386E-09  2.43088E-09
   2.21153E-09  2.40568E-09  2.57241E-09  2.49005E-09  2.47425E-09  2.15891E-09  8.87220E-10  8.43298E-10  1.78223E-09  2.87984E-09
   2.94494E-09  2.86525E-09  2.33768E-09  2.71947E-09  2.80424E-09  4.36589E-09  3.99739E-09  4.54169E-09  4.54373E-09  5.35982E-09
   4.45577E-09  5.19035E-09  4.88695E-09  5.11977E-09  4.53580E-09  4.91927E-09  5.30062E-09  5.00131E-09  4.12764E-09  4.79052E-09
   4.24073E-09  4.51881E-09  3.86634E-09  4.32892E-09  4.07049E-09  3.29186E-09  6.67392E-10 -1.56055E-09 -1.36560E-09  3.36817E-09
   8.33730E-09  1.14382E-08  1.20444E-08  1.28026E-08  1.29848E-08  1.40667E-08  1.44613E-08  1.49181E-08  1.51910E-08  1.62098E-08
   1.63792E-08  1.66271E-08  1.65283E-08  1.68909E-08  1.60033E-08  1.56774E-08  1.52121E-08  1.44335E-08  1.39085E-08  1.29411E-08
   1.11639E-08  1.01370E-08  7.60210E-09  6.71792E-09  5.04634E-09  3.43227E-09  1.42730E-09  3.26754E-11 -1.14991E-09 -2.45096E-09
  -3.43479E-09 -3.86115E-09 -4.49426E-09 -4.48791E-09 -4.83067E-09 -4.24214E-09 -3.66454E-09 -2.86173E-09 -3.00534E-09 -2.53956E-09
  -2.10210E-09 -1.89673E-09 -1.96564E-09 -8.08223E-10 -1.48418E-09 -7.31751E-10 -1.48850E-09 -9.41279E-10 -1.40615E-09 -1.36603E-09
  -1.08291E-09 -9.31804E-10 -8.45046E-10 -4.58879E-10 -7.23605E-10 -7.83746E-10 -1.23679E-09 -4.82930E-10 -1.02852E-09 -1.11996E-09
  -7.76383E-10 -4.28864E-10 -1.06123E-09 -1.17947E-09 -8.48490E-10 -3.73225E-10 -7.34980E-10 -7.09725E-10 -7.98310E-10 -7.26204E-10
  -8.93326E-10 -1.01359E-09 -1.28687E-09 -1.02179E-09 -1.57016E-09 -1.15430E-09 -1.45618E-09 -1.15526E-09 -1.11640E-09 -8.92771E-10
  -7.56260E-10 -4.79576E-10 -7.01685E-10 -3.18601E-10 -4.41102E-10 -5.32801E-10 -8.34742E-10 -8.68624E-10 -5.16749E-10 -7.72382E-10
  -4.57099E-10 -9.47755E-10 -1.66698E-09 -1.21694E-09 -2.04142E-09 -1.84467E-09 -2.00322E-09 -2.02227E-09 -2.22904E-09 -2.27055E-09
  -1.54742E-09 -1.74083E-09 -1.59409E-09 -1.16709E-09 -1.34040E-09 -5.81904E-10 -6.08602E-10 -2.59350E-10 -4.17752E-10 -3.37846E-10
  -4.66411E-10 -5.57543E-10 -7.61367E-10 -2.44342E-10 -8.27241E-10 -6.89243E-10 -6.92801E-10 -3.81312E-10 -1.30862E-09 -4.61518E-10
  -8.97355E-10 -7.96630E-10 -8.31120E-10 -4.39678E-10 -1.20896E-09 -1.02026E-09 -9.08381E-10 -1.26411E-09 -1.29807E-09 -1.06209E-09
  -1.19976E-09 -1.46237E-09 -1.34856E-09 -1.32705E-09 -1.06666E-09 -1.52179E-09 -1.50804E-09 -1.44887E-09 -1.94521E-09 -1.81680E-09
  -1.58831E-09 -1.63958E-09 -1.58529E-09 -1.29842E-09 -1.72004E-09 -1.78258E-09 -1.70325E-09 -1.79031E-09 -2.11337E-09 -1.86540E-09
  -2.41148E-09 -2.01772E-09 -2.27008E-09 -2.13207E-09 -2.04501E-09 -1.80049E-09 -2.33617E-09 -2.15425E-09 -2.21854E-09 -2.25951E-09
  -2.55785E-09 -2.08106E-09 -2.39116E-09 -2.42804E-09 -2.34318E-09 -2.41363E-09 -2.44468E-09 -2.32923E-09 -2.52371E-09 -2.41801E-09
  -2.55478E-09 -2.63175E-09 -3.12807E-09 -2.75781E-09 -2.90689E-09 -2.73267E-09 -3.00899E-09 -2.62639E-09 -2.75163E-09 -2.57511E-09
  -2.89292E-09 -2.75290E-09 -3.45932E-09 -2.95554E-09 -2.72363E-09 -3.44232E-09 -3.16399E-09 -3.01229E-09 -3.06325E-09 -3.41226E-09
  -3.14025E-09 -3.28122E-09 -2.85650E-09 -3.01442E-09 -3.82643E-09 -2.95139E-09 -3.11438E-09 -3.49777E-09 -3.54950E-09 -3.42846E-09
  -3.58594E-09 -3.44572E-09 -3.67851E-09
 NY points of the fit to the data follow
   3.36029E-09  2.82705E-09  2.20257E-09  1.73514E-09  2.54774E-09  2.28552E-09  2.14310E-09  3.16267E-09  4.42776E-09  3.47588E-09
   2.06567E-09  2.10596E-09  2.04886E-09  2.61499E-09  3.49936E-09  2.57720E-09  2.44763E-09  3.02891E-09  2.62673E-09  1.85396E-09
   2.55485E-09  3.49193E-09  4.13678E-09  4.88886E-09  5.35059E-09  5.59865E-09  5.51746E-09  5.43628E-09  5.57200E-09  6.01742E-09
   6.54059E-09  5.61072E-09  5.27862E-09  5.13322E-09  4.34879E-09  3.51312E-09  3.45336E-09  3.24874E-09  3.02985E-09  3.10384E-09
   2.91146E-09  2.46822E-09  2.86191E-09  2.96547E-09  2.11577E-09  1.96358E-09  2.03372E-09  1.19271E-09  1.04577E-09  1.24816E-09
   1.49492E-09  1.68782E-09  1.89955E-09  2.17858E-09  2.14343E-09  2.24634E-09  2.04625E-09  2.03246E-09  2.27039E-09  2.25997E-09
   2.21693E-09  2.15203E-09  2.49694E-09  2.33796E-09  2.29998E-09  3.21298E-09  3.19638E-09  2.83018E-09  3.22875E-09  3.50966E-09
   3.79310E-09  3.94928E-09  4.41073E-09  3.93269E-09  4.02786E-09  5.35295E-09  5.61881E-09  6.77120E-09  6.70652E-09  6.64384E-09
   6.77848E-09  6.45161E-09  6.45838E-09  6.76333E-09  6.52352E-09  6.42939E-09  6.66377E-09  6.20090E-09  4.18728E-09  3.76607E-09
   3.72080E-09  3.40848E-09  3.39413E-09  3.73302E-09  3.34070E-09  3.08701E-09  3.40235E-09  3.24755E-09  3.15421E-09  3.61279E-09
   3.99909E-09  3.57108E-09  3.94315E-09  4.57406E-09  4.44981E-09  4.47355E-09  4.57205E-09  4.56292E-09  4.57248E-09  4.70386E-09
   4.46813E-09  3.73002E-09  3.94718E-09  3.93108E-09  3.32376E-09  3.14400E-09  3.08054E-09  3.05890E-09  3.05640E-09  3.06393E-09
   3.07709E-09  3.09349E-09  3.11179E-09  3.13108E-09  3.15075E-09  3.17040E-09  3.18975E-09  3.20854E-09  3.22660E-09  3.24385E-09
   3.26013E-09  3.27536E-09  3.28950E-09  3.30249E-09  3.31427E-09  3.32482E-09  3.33409E-09  3.34206E-09  3.34872E-09  3.35406E-09
   3.35807E-09  3.36076E-09  3.36214E-09  3.36223E-09  3.36106E-09  3.35866E-09  3.35510E-09  3.35043E-09  3.34479E-09  3.33828E-09
   3.33108E-09  3.32342E-09  3.31559E-09  3.30799E-09  3.30119E-09  3.29596E-09  3.29338E-09  3.29514E-09  3.30376E-09  3.32321E-09
   3.36013E-09  3.42649E-09  3.54607E-09  3.77337E-09  4.26258E-09  5.62773E-09  1.10833E-08  1.68162E-08  1.57988E-08  1.55166E-08
   1.61929E-08  1.63989E-08  1.65630E-08  1.66925E-08  1.62353E-08  1.58868E-08  1.69899E-08  1.44265E-08  6.99745E-09  4.04734E-09
   3.14099E-09  2.71169E-09  2.45173E-09  2.26906E-09  2.12747E-09  2.01003E-09  1.90786E-09  1.81588E-09  1.73103E-09  1.65135E-09
   1.57553E-09  1.50271E-09  1.43225E-09  1.36376E-09  1.29689E-09  1.23145E-09  1.16727E-09  1.10425E-09  1.04231E-09  9.81399E-10
   9.21492E-10  8.62571E-10  8.04639E-10  7.47704E-10  6.91779E-10  6.36887E-10  5.83068E-10  5.30334E-10  4.78719E-10  4.28190E-10
   3.78722E-10  3.30285E-10  2.82855E-10  2.36406E-10  1.90915E-10  1.46357E-10  1.02718E-10  5.99727E-11  1.80994E-11 -2.29203E-11
  -6.30968E-11 -1.02457E-10 -1.41018E-10 -1.78795E-10 -2.15807E-10 -2.52070E-10 -2.87594E-10 -3.22409E-10 -3.56529E-10 -3.89957E-10
  -4.22717E-10 -4.54828E-10 -4.86298E-10 -5.17152E-10 -5.47397E-10 -5.77057E-10 -6.06144E-10 -6.34667E-10 -6.62647E-10 -6.90098E-10
  -7.17034E-10 -7.43469E-10 -7.69421E-10 -7.94905E-10 -8.19932E-10 -8.44519E-10 -8.68685E-10 -8.92447E-10 -9.15802E-10 -9.38773E-10
  -9.61383E-10 -9.83646E-10 -1.00557E-09 -1.02716E-09 -1.04846E-09 -1.06946E-09 -1.09018E-09 -1.11063E-09 -1.13084E-09 -1.15081E-09
  -1.17056E-09 -1.19009E-09 -1.20942E-09 -1.22856E-09 -1.24751E-09 -1.26629E-09 -1.28491E-09 -1.30336E-09 -1.32168E-09 -1.33985E-09
  -1.35791E-09 -1.37584E-09 -1.39367E-09 -1.41140E-09 -1.42904E-09 -1.44660E-09 -1.46410E-09 -1.48153E-09 -1.49892E-09 -1.51627E-09
  -1.53358E-09 -1.55088E-09 -1.56816E-09 -1.58544E-09 -1.60273E-09 -1.62004E-09 -1.63737E-09 -1.65474E-09 -1.67216E-09 -1.68963E-09
  -1.70717E-09 -1.72479E-09 -1.74248E-09 -1.76027E-09 -1.77817E-09 -1.79618E-09 -1.81431E-09 -1.83257E-09 -1.85097E-09 -1.86952E-09
  -1.88824E-09 -1.90712E-09 -1.92619E-09 -1.94544E-09 -1.96489E-09 -1.98456E-09 -2.00443E-09 -2.02454E-09 -2.04488E-09 -2.06547E-09
  -2.08632E-09 -2.10743E-09 -2.12880E-09 -2.15043E-09 -2.17231E-09 -2.19443E-09 -2.21679E-09 -2.23938E-09 -2.26219E-09 -2.28522E-09
  -2.30846E-09 -2.33190E-09 -2.35553E-09 -2.37936E-09 -2.40337E-09 -2.42756E-09 -2.45191E-09 -2.47643E-09 -2.50110E-09 -2.52592E-09
  -2.55089E-09 -2.57599E-09 -2.60121E-09 -2.62657E-09 -2.65204E-09 -2.67761E-09 -2.70329E-09 -2.72907E-09 -2.75493E-09 -2.78087E-09
  -2.80690E-09 -2.83299E-09 -2.85914E-09 -2.88535E-09 -2.91160E-09 -2.93790E-09 -2.96423E-09 -2.99059E-09 -3.01697E-09 -3.04337E-09
  -3.06977E-09 -3.09618E-09 -3.12258E-09 -3.14897E-09 -3.17534E-09 -3.20169E-09 -3.22800E-09 -3.25428E-09 -3.28051E-09 -3.30668E-09
  -3.33280E-09 -3.35886E-09 -3.38484E-09
 NY background values follow
    -8.096E-09   -7.995E-09   -7.893E-09   -7.792E-09   -7.690E-09   -7.589E-09   -7.487E-09   -7.386E-09   -7.284E-09   -7.183E-09
    -7.081E-09   -6.980E-09   -6.878E-09   -6.777E-09   -6.675E-09   -6.574E-09   -6.473E-09   -6.371E-09   -6.270E-09   -6.169E-09
    -6.068E-09   -5.967E-09   -5.866E-09   -5.765E-09   -5.664E-09   -5.564E-09   -5.463E-09   -5.363E-09   -5.262E-09   -5.162E-09
    -5.062E-09   -4.962E-09   -4.862E-09   -4.763E-09   -4.663E-09   -4.564E-09   -4.464E-09   -4.365E-09   -4.266E-09   -4.168E-09
    -4.069E-09   -3.971E-09   -3.872E-09   -3.774E-09   -3.676E-09   -3.579E-09   -3.481E-09   -3.384E-09   -3.287E-09   -3.190E-09
    -3.094E-09   -2.997E-09   -2.901E-09   -2.805E-09   -2.710E-09   -2.614E-09   -2.519E-09   -2.425E-09   -2.330E-09   -2.236E-09
    -2.143E-09   -2.049E-09   -1.957E-09   -1.864E-09   -1.772E-09   -1.681E-09   -1.590E-09   -1.499E-09   -1.410E-09   -1.320E-09
    -1.231E-09   -1.143E-09   -1.056E-09   -9.687E-10   -8.824E-10   -7.968E-10   -7.118E-10   -6.276E-10   -5.441E-10   -4.613E-10
    -3.793E-10   -2.981E-10   -2.177E-10   -1.381E-10   -5.940E-11    1.849E-11    9.549E-11    1.716E-10    2.468E-10    3.210E-10
     3.943E-10    4.666E-10    5.379E-10    6.082E-10    6.775E-10    7.457E-10    8.129E-10    8.789E-10    9.438E-10    1.008E-09
     1.070E-09    1.132E-09    1.192E-09    1.251E-09    1.309E-09    1.366E-09    1.421E-09    1.475E-09    1.528E-09    1.579E-09
     1.630E-09    1.678E-09    1.726E-09    1.772E-09    1.817E-09    1.860E-09    1.902E-09    1.943E-09    1.982E-09    2.020E-09
     2.056E-09    2.091E-09    2.124E-09    2.156E-09    2.186E-09    2.215E-09    2.243E-09    2.268E-09    2.292E-09    2.315E-09
     2.336E-09    2.356E-09    2.373E-09    2.389E-09    2.404E-09    2.417E-09    2.428E-09    2.437E-09    2.445E-09    2.451E-09
     2.456E-09    2.458E-09    2.459E-09    2.458E-09    2.456E-09    2.451E-09    2.445E-09    2.437E-09    2.427E-09    2.415E-09
     2.401E-09    2.385E-09    2.368E-09    2.349E-09    2.327E-09    2.304E-09    2.279E-09    2.252E-09    2.223E-09    2.192E-09
     2.160E-09    2.125E-09    2.090E-09    2.052E-09    2.013E-09    1.973E-09    1.931E-09    1.888E-09    1.844E-09    1.799E-09
     1.752E-09    1.704E-09    1.655E-09    1.605E-09    1.554E-09    1.503E-09    1.450E-09    1.397E-09    1.343E-09    1.288E-09
     1.232E-09    1.177E-09    1.120E-09    1.063E-09    1.006E-09    9.486E-10    8.908E-10    8.327E-10    7.746E-10    7.163E-10
     6.579E-10    5.996E-10    5.413E-10    4.832E-10    4.253E-10    3.675E-10    3.101E-10    2.530E-10    1.964E-10    1.402E-10
     8.446E-11    2.934E-11   -2.514E-11   -7.894E-11   -1.320E-10   -1.843E-10   -2.357E-10   -2.862E-10   -3.357E-10   -3.843E-10
    -4.319E-10   -4.787E-10   -5.245E-10   -5.695E-10   -6.136E-10   -6.568E-10   -6.992E-10   -7.408E-10   -7.815E-10   -8.214E-10
    -8.606E-10   -8.990E-10   -9.366E-10   -9.735E-10   -1.010E-09   -1.045E-09   -1.080E-09   -1.114E-09   -1.147E-09   -1.180E-09
    -1.212E-09   -1.243E-09   -1.274E-09   -1.304E-09   -1.334E-09   -1.363E-09   -1.392E-09   -1.420E-09   -1.447E-09   -1.474E-09
    -1.500E-09   -1.526E-09   -1.552E-09   -1.577E-09   -1.601E-09   -1.625E-09   -1.649E-09   -1.672E-09   -1.695E-09   -1.718E-09
    -1.740E-09   -1.762E-09   -1.783E-09   -1.804E-09   -1.825E-09   -1.846E-09   -1.866E-09   -1.886E-09   -1.906E-09   -1.926E-09
    -1.945E-09   -1.964E-09   -1.983E-09   -2.002E-09   -2.020E-09   -2.039E-09   -2.057E-09   -2.075E-09   -2.093E-09   -2.111E-09
    -2.129E-09   -2.146E-09   -2.164E-09   -2.181E-09   -2.198E-09   -2.216E-09   -2.233E-09   -2.250E-09   -2.267E-09   -2.284E-09
    -2.301E-09   -2.318E-09   -2.335E-09   -2.352E-09   -2.369E-09   -2.386E-09   -2.403E-09   -2.420E-09   -2.437E-09   -2.454E-09
    -2.471E-09   -2.488E-09   -2.506E-09   -2.523E-09   -2.541E-09   -2.559E-09   -2.576E-09   -2.594E-09   -2.612E-09   -2.631E-09
    -2.649E-09   -2.668E-09   -2.686E-09   -2.705E-09   -2.724E-09   -2.744E-09   -2.763E-09   -2.783E-09   -2.803E-09   -2.823E-09
    -2.844E-09   -2.865E-09   -2.886E-09   -2.907E-09   -2.929E-09   -2.950E-09   -2.972E-09   -2.995E-09   -3.017E-09   -3.040E-09
    -3.063E-09   -3.086E-09   -3.109E-09   -3.133E-09   -3.156E-09   -3.180E-09   -3.204E-09   -3.229E-09   -3.253E-09   -3.277E-09
    -3.302E-09   -3.327E-09   -3.352E-09   -3.377E-09   -3.402E-09   -3.427E-09   -3.452E-09   -3.478E-09   -3.503E-09   -3.529E-09
    -3.555E-09   -3.580E-09   -3.606E-09   -3.632E-09   -3.658E-09   -3.684E-09   -3.710E-09   -3.736E-09   -3.762E-09   -3.788E-09
    -3.814E-09   -3.840E-09   -3.866E-09   -3.892E-09   -3.918E-09   -3.944E-09   -3.970E-09   -3.996E-09   -4.022E-09   -4.048E-09
    -4.073E-09   -4.099E-09   -4.125E-09
 Ala      Conc. = 5.58E-10
  -7.65303E-09 -7.61544E-09 -7.44899E-09 -7.31735E-09 -7.26788E-09 -7.17092E-09 -7.00830E-09 -7.02621E-09 -7.00554E-09 -6.80472E-09
  -6.79662E-09 -6.79904E-09 -6.67697E-09 -6.60827E-09 -6.54644E-09 -6.46766E-09 -6.38077E-09 -6.28946E-09 -6.19557E-09 -6.09998E-09
  -6.00326E-09 -5.90575E-09 -5.80766E-09 -5.70917E-09 -5.61042E-09 -5.51144E-09 -5.41233E-09 -5.31312E-09 -5.21387E-09 -5.11459E-09
  -5.01529E-09 -4.91607E-09 -4.81687E-09 -4.71774E-09 -4.61867E-09 -4.51972E-09 -4.42087E-09 -4.32210E-09 -4.22348E-09 -4.12503E-09
  -4.02667E-09 -3.92844E-09 -3.83040E-09 -3.73254E-09 -3.63482E-09 -3.53730E-09 -3.43994E-09 -3.34278E-09 -3.24583E-09 -3.14911E-09
  -3.05254E-09 -2.95619E-09 -2.86005E-09 -2.76416E-09 -2.66853E-09 -2.57316E-09 -2.47807E-09 -2.38328E-09 -2.28882E-09 -2.19469E-09
  -2.10093E-09 -2.00755E-09 -1.91456E-09 -1.82198E-09 -1.72985E-09 -1.63815E-09 -1.54692E-09 -1.45617E-09 -1.36592E-09 -1.27619E-09
  -1.18699E-09 -1.09833E-09 -1.01023E-09 -9.22702E-10 -8.35756E-10 -7.49400E-10 -6.63653E-10 -5.78521E-10 -4.93972E-10 -4.10061E-10
  -3.26755E-10 -2.44059E-10 -1.61930E-10 -8.03837E-11  6.23258E-13  8.11676E-11  1.61291E-10  2.41119E-10  3.20774E-10  4.00458E-10
   4.80487E-10  5.61272E-10  6.43548E-10  7.28358E-10  8.17593E-10  9.14715E-10  1.02671E-09  1.17027E-09  1.39604E-09  1.91714E-09
   2.45219E-09  2.15313E-09  2.61677E-09  3.32311E-09  3.25657E-09  3.32546E-09  3.46093E-09  3.48210E-09  3.51767E-09  3.67154E-09
   3.45487E-09  2.73358E-09  2.96567E-09  2.96283E-09  2.36743E-09  2.19852E-09  2.14455E-09  2.13152E-09  2.13684E-09  2.15148E-09
   2.17113E-09  2.19349E-09  2.21721E-09  2.24143E-09  2.26563E-09  2.28941E-09  2.31250E-09  2.33471E-09  2.35589E-09  2.37592E-09
   2.39470E-09  2.41217E-09  2.42827E-09  2.44294E-09  2.45614E-09  2.46783E-09  2.47798E-09  2.48655E-09  2.49352E-09  2.49887E-09
   2.50257E-09  2.50460E-09  2.50495E-09  2.50359E-09  2.50051E-09  2.49569E-09  2.48912E-09  2.48078E-09  2.47067E-09  2.45877E-09
   2.44509E-09  2.42961E-09  2.41233E-09  2.39327E-09  2.37244E-09  2.34987E-09  2.32558E-09  2.29973E-09  2.27251E-09  2.24417E-09
   2.21514E-09  2.18613E-09  2.15850E-09  2.13527E-09  2.12475E-09  2.15786E-09  2.41600E-09  2.81242E-09  2.62180E-09  2.57342E-09
   2.58353E-09  2.54631E-09  2.50957E-09  2.47639E-09  2.40165E-09  2.32399E-09  2.34774E-09  2.20958E-09  1.61683E-09  1.43730E-09
   1.33846E-09  1.26165E-09  1.19324E-09  1.12871E-09  1.06617E-09  1.00476E-09  9.44023E-10  8.83705E-10  8.23691E-10  7.63910E-10
   7.04332E-10  6.44966E-10  5.85812E-10  5.26914E-10  4.68287E-10  4.09980E-10  3.52031E-10  2.94493E-10  2.37401E-10  1.80815E-10
   1.24782E-10  6.93531E-11  1.45830E-11 -3.94780E-11 -9.27768E-11 -1.45260E-10 -1.96862E-10 -2.47550E-10 -2.97267E-10 -3.46031E-10
  -3.93853E-10 -4.40752E-10 -4.86738E-10 -5.31832E-10 -5.76045E-10 -6.19396E-10 -6.61893E-10 -7.03554E-10 -7.44398E-10 -7.84437E-10
  -8.23679E-10 -8.62146E-10 -8.99852E-10 -9.36809E-10 -9.73033E-10 -1.00854E-09 -1.04333E-09 -1.07744E-09 -1.11089E-09 -1.14366E-09
  -1.17578E-09 -1.20728E-09 -1.23815E-09 -1.26842E-09 -1.29810E-09 -1.32722E-09 -1.35577E-09 -1.38377E-09 -1.41124E-09 -1.43819E-09
  -1.46464E-09 -1.49060E-09 -1.51609E-09 -1.54112E-09 -1.56570E-09 -1.58985E-09 -1.61358E-09 -1.63692E-09 -1.65986E-09 -1.68242E-09
  -1.70463E-09 -1.72649E-09 -1.74802E-09 -1.76923E-09 -1.79015E-09 -1.81076E-09 -1.83111E-09 -1.85120E-09 -1.87104E-09 -1.89066E-09
  -1.91005E-09 -1.92923E-09 -1.94822E-09 -1.96701E-09 -1.98562E-09 -2.00406E-09 -2.02234E-09 -2.04047E-09 -2.05845E-09 -2.07630E-09
  -2.09402E-09 -2.11163E-09 -2.12914E-09 -2.14655E-09 -2.16387E-09 -2.18112E-09 -2.19830E-09 -2.21542E-09 -2.23250E-09 -2.24954E-09
  -2.26654E-09 -2.28353E-09 -2.30051E-09 -2.31748E-09 -2.33447E-09 -2.35147E-09 -2.36850E-09 -2.38557E-09 -2.40269E-09 -2.41986E-09
  -2.43710E-09 -2.45441E-09 -2.47181E-09 -2.48930E-09 -2.50690E-09 -2.52461E-09 -2.54244E-09 -2.56041E-09 -2.57851E-09 -2.59677E-09
  -2.61519E-09 -2.63377E-09 -2.65254E-09 -2.67150E-09 -2.69065E-09 -2.71002E-09 -2.72960E-09 -2.74941E-09 -2.76945E-09 -2.78974E-09
  -2.81029E-09 -2.83110E-09 -2.85218E-09 -2.87351E-09 -2.89509E-09 -2.91691E-09 -2.93896E-09 -2.96125E-09 -2.98376E-09 -3.00648E-09
  -3.02942E-09 -3.05255E-09 -3.07588E-09 -3.09940E-09 -3.12311E-09 -3.14698E-09 -3.17103E-09 -3.19524E-09 -3.21960E-09 -3.24411E-09
  -3.26876E-09 -3.29355E-09 -3.31846E-09 -3.34350E-09 -3.36865E-09 -3.39391E-09 -3.41927E-09 -3.44472E-09 -3.47026E-09 -3.49588E-09
  -3.52158E-09 -3.54735E-09 -3.57317E-09 -3.59905E-09 -3.62497E-09 -3.65094E-09 -3.67694E-09 -3.70296E-09 -3.72901E-09 -3.75507E-09
  -3.78113E-09 -3.80720E-09 -3.83326E-09 -3.85930E-09 -3.88532E-09 -3.91132E-09 -3.93729E-09 -3.96321E-09 -3.98909E-09 -4.01491E-09
  -4.04067E-09 -4.06636E-09 -4.09198E-09
 Asp      Conc. = 1.09E-09
  -6.88149E-09 -6.84689E-09 -6.99183E-09 -6.97543E-09 -6.95546E-09 -7.04993E-09 -6.92308E-09 -7.05918E-09 -7.06186E-09 -7.01039E-09
  -6.93743E-09 -6.85399E-09 -6.76536E-09 -6.67262E-09 -6.57463E-09 -6.47657E-09 -6.37775E-09 -6.27813E-09 -6.17787E-09 -6.07701E-09
  -5.97563E-09 -5.87378E-09 -5.77142E-09 -5.66858E-09 -5.56523E-09 -5.46127E-09 -5.35662E-09 -5.25112E-09 -5.14456E-09 -5.03662E-09
  -4.92680E-09 -4.81449E-09 -4.69842E-09 -4.57655E-09 -4.44467E-09 -4.29272E-09 -4.09075E-09 -3.90740E-09 -3.74527E-09 -3.65355E-09
  -3.57761E-09 -3.44419E-09 -3.24001E-09 -2.80642E-09 -2.64549E-09 -1.96342E-09 -2.01774E-09 -2.08992E-09 -1.84937E-09 -1.58545E-09
  -1.60018E-09 -1.43931E-09 -1.18313E-09 -1.14578E-09 -1.35134E-09 -1.02524E-09 -1.55616E-09 -1.66769E-09 -1.46375E-09 -1.37441E-09
  -1.55863E-09 -1.51532E-09 -1.44248E-09 -1.50676E-09 -1.43679E-09 -1.23868E-09 -1.23704E-09 -1.22449E-09 -1.17967E-09 -1.12015E-09
  -1.05288E-09 -9.81056E-10 -9.06393E-10 -8.29914E-10 -7.52276E-10 -6.73923E-10 -5.95184E-10 -5.16298E-10 -4.37411E-10 -3.58717E-10
  -2.80305E-10 -2.02281E-10 -1.24698E-10 -4.76623E-11  2.87742E-11  1.04586E-10  1.79697E-10  2.54090E-10  3.27707E-10  4.00508E-10
   4.72481E-10  5.43560E-10  6.13768E-10  6.83020E-10  7.51309E-10  8.18636E-10  8.84953E-10  9.50229E-10  1.01443E-09  1.07756E-09
   1.13956E-09  1.20047E-09  1.26021E-09  1.31877E-09  1.37616E-09  1.43233E-09  1.48725E-09  1.54094E-09  1.59336E-09  1.64451E-09
   1.69437E-09  1.74292E-09  1.79015E-09  1.83605E-09  1.88059E-09  1.92377E-09  1.96557E-09  2.00597E-09  2.04497E-09  2.08254E-09
   2.11868E-09  2.15337E-09  2.18659E-09  2.21833E-09  2.24859E-09  2.27732E-09  2.30455E-09  2.33024E-09  2.35438E-09  2.37696E-09
   2.39797E-09  2.41739E-09  2.43520E-09  2.45141E-09  2.46599E-09  2.47893E-09  2.49022E-09  2.49985E-09  2.50780E-09  2.51407E-09
   2.51864E-09  2.52150E-09  2.52264E-09  2.52206E-09  2.51975E-09  2.51570E-09  2.50990E-09  2.50235E-09  2.49305E-09  2.48200E-09
   2.46922E-09  2.45470E-09  2.43847E-09  2.42056E-09  2.40101E-09  2.37990E-09  2.35730E-09  2.33342E-09  2.30855E-09  2.28308E-09
   2.25762E-09  2.23316E-09  2.21151E-09  2.19627E-09  2.19593E-09  2.23556E-09  2.42144E-09  3.36908E-09  3.49266E-09  3.27479E-09
   3.30301E-09  3.31374E-09  3.27544E-09  3.26121E-09  3.20619E-09  3.07286E-09  3.03984E-09  3.20443E-09  2.33172E-09  1.64613E-09
   1.43707E-09  1.32198E-09  1.23597E-09  1.16192E-09  1.09367E-09  1.02859E-09  9.65370E-10  9.03310E-10  8.42041E-10  7.81334E-10
   7.21063E-10  6.61168E-10  6.01610E-10  5.42400E-10  4.83530E-10  4.25035E-10  3.66940E-10  3.09288E-10  2.52109E-10  1.95456E-10
   1.39374E-10  8.39079E-11  2.91126E-11 -2.49662E-11 -7.82740E-11 -1.30760E-10 -1.82363E-10 -2.33045E-10 -2.82753E-10 -3.31506E-10
  -3.79315E-10 -4.26199E-10 -4.72169E-10 -5.17245E-10 -5.61439E-10 -6.04770E-10 -6.47248E-10 -6.88888E-10 -7.29711E-10 -7.69729E-10
  -8.08951E-10 -8.47398E-10 -8.85084E-10 -9.22020E-10 -9.58225E-10 -9.93712E-10 -1.02849E-09 -1.06258E-09 -1.09600E-09 -1.12876E-09
