 LCModel (Version 6.3-1R) Copyright: S.W. Provencher.          Ref.: Magn. Reson. Med. 30:672-679 (1993).                
 onepulse 28x18_ftSpec_smooth_lcm
 26 lines in following concentration table = NCONC+1
    Conc.  %SD /Cr+PCr  Metabolite                                         
    0.000 999%   0.000 Ala                                                 
    0.000 999%   0.000 Asp                                                 
 2.22E-10 261%   1.000 Cr                                                  
 9.12E-11 999%   0.411 GABA                                                
 1.27E-09  59%   5.742 Glc                                                 
    0.000 999%   0.000 Gln                                                 
 1.23E-09  88%   5.534 Glu                                                 
    0.000 999%   0.000 Glyc                                                
 1.60E-10  77%   0.722 GPC                                                 
    0.000 999%   0.000 GSH                                                 
 7.09E-10  77%   3.195 Ins                                                 
    0.000 999%   0.000 Lac                                                 
    0.000 999%   0.000 NAAG                                                
 6.97E-10  65%   3.140 NAA                                                 
    0.000 999%   0.000 PCh                                                 
    0.000 999%   0.000 PCr                                                 
    0.000 999%   0.000 PE                                                  
    0.000 999%   0.000 Scyllo                                              
 3.94E-09  31%  17.730 Ser                                                 
    0.000 999%   0.000 Tau                                                 
 1.60E-10  77%   0.722 GPC+PCh                                             
 6.97E-10  65%   3.140 NAA+NAAG                                            
 7.09E-10  77%   3.195 Ins+Glyc                                            
 2.22E-10 261%   1.000 Cr+PCr                                              
 1.23E-09  88%   5.534 Glu+Gln                                             
   6 lines in following misc. output table
  FWHM = 0.089 ppm    S/N =   2                                            
  Data shift = 0.335 ppm                                                   
  Ph: -47 deg     -26.3 deg/ppm                                            
  alphaB,S = 7.8E-01,   4.8E+01                                            
    8 spline knots.   Ns = 5(1)                                            
  (12) 2 infls.   ( 7) 1 extrs.                                            
  363 points on ppm-axis = NY
      4.250000     4.238821     4.227641     4.216462     4.205282     4.194103     4.182923     4.171744     4.160564     4.149385
      4.138206     4.127026     4.115847     4.104667     4.093488     4.082308     4.071129     4.059949     4.048770     4.037591
      4.026411     4.015232     4.004052     3.992873     3.981693     3.970514     3.959334     3.948155     3.936975     3.925796
      3.914617     3.903437     3.892258     3.881078     3.869899     3.858719     3.847540     3.836360     3.825181     3.814002
      3.802822     3.791643     3.780463     3.769284     3.758104     3.746925     3.735745     3.724566     3.713387     3.702207
      3.691028     3.679848     3.668669     3.657489     3.646310     3.635130     3.623951     3.612772     3.601592     3.590413
      3.579233     3.568054     3.556874     3.545695     3.534515     3.523336     3.512156     3.500977     3.489798     3.478618
      3.467439     3.456259     3.445080     3.433900     3.422721     3.411541     3.400362     3.389183     3.378003     3.366824
      3.355644     3.344465     3.333285     3.322106     3.310926     3.299747     3.288568     3.277388     3.266209     3.255029
      3.243850     3.232670     3.221491     3.210311     3.199132     3.187953     3.176773     3.165594     3.154414     3.143235
      3.132055     3.120876     3.109696     3.098517     3.087337     3.076158     3.064979     3.053799     3.042620     3.031440
      3.020261     3.009081     2.997902     2.986722     2.975543     2.964364     2.953184     2.942005     2.930825     2.919646
      2.908466     2.897287     2.886107     2.874928     2.863749     2.852569     2.841390     2.830210     2.819031     2.807851
      2.796672     2.785492     2.774313     2.763134     2.751954     2.740775     2.729595     2.718416     2.707236     2.696057
      2.684877     2.673698     2.662519     2.651339     2.640160     2.628980     2.617801     2.606621     2.595442     2.584262
      2.573083     2.561903     2.550724     2.539545     2.528365     2.517186     2.506006     2.494827     2.483647     2.472468
      2.461288     2.450109     2.438930     2.427750     2.416571     2.405391     2.394212     2.383032     2.371853     2.360673
      2.349494     2.338315     2.327135     2.315956     2.304776     2.293597     2.282417     2.271238     2.260058     2.248879
      2.237700     2.226520     2.215341     2.204161     2.192982     2.181802     2.170623     2.159443     2.148264     2.137084
      2.125905     2.114726     2.103546     2.092367     2.081187     2.070008     2.058828     2.047649     2.036469     2.025290
      2.014111     2.002931     1.991752     1.980572     1.969393     1.958213     1.947034     1.935854     1.924675     1.913496
      1.902316     1.891137     1.879957     1.868778     1.857598     1.846419     1.835239     1.824060     1.812881     1.801701
      1.790522     1.779342     1.768163     1.756983     1.745804     1.734624     1.723445     1.712265     1.701086     1.689907
      1.678727     1.667548     1.656368     1.645189     1.634009     1.622830     1.611650     1.600471     1.589292     1.578112
      1.566933     1.555753     1.544574     1.533394     1.522215     1.511035     1.499856     1.488677     1.477497     1.466318
      1.455138     1.443959     1.432779     1.421600     1.410420     1.399241     1.388062     1.376882     1.365703     1.354523
      1.343344     1.332164     1.320985     1.309805     1.298626     1.287446     1.276267     1.265088     1.253908     1.242729
      1.231549     1.220370     1.209190     1.198011     1.186831     1.175652     1.164473     1.153293     1.142114     1.130934
      1.119755     1.108575     1.097396     1.086216     1.075037     1.063858     1.052678     1.041499     1.030319     1.019140
      1.007960     0.996781     0.985601     0.974422     0.963243     0.952063     0.940884     0.929704     0.918525     0.907345
      0.896166     0.884986     0.873807     0.862628     0.851448     0.840269     0.829089     0.817910     0.806730     0.795551
      0.784371     0.773192     0.762012     0.750833     0.739654     0.728474     0.717295     0.706115     0.694936     0.683756
      0.672577     0.661397     0.650218     0.639039     0.627859     0.616680     0.605500     0.594321     0.583141     0.571962
      0.560782     0.549603     0.538424     0.527244     0.516065     0.504885     0.493706     0.482526     0.471347     0.460167
      0.448988     0.437809     0.426629     0.415450     0.404270     0.393091     0.381911     0.370732     0.359552     0.348373
      0.337193     0.326014     0.314835     0.303655     0.292476     0.281296     0.270117     0.258937     0.247758     0.236578
      0.225399     0.214220     0.203040
 NY phased data points follow
   1.25873E-08  1.69674E-08  1.53313E-08  1.93216E-08  1.64173E-08  1.80310E-08  1.57136E-08  1.72365E-08  1.47762E-08  1.66508E-08
   1.34036E-08  1.52689E-08  1.32614E-08  1.49377E-08  1.29017E-08  1.58112E-08  1.32193E-08  1.55319E-08  1.35985E-08  1.51904E-08
   1.28948E-08  1.51460E-08  1.29883E-08  1.41766E-08  1.25759E-08  1.36004E-08  1.21132E-08  1.47417E-08  1.25873E-08  1.39856E-08
   1.19437E-08  1.46478E-08  1.23708E-08  1.49866E-08  1.39104E-08  1.59350E-08  1.41313E-08  1.48519E-08  1.29611E-08  1.38778E-08
   1.11393E-08  1.30531E-08  1.06157E-08  1.15086E-08  1.01293E-08  1.13915E-08  9.25647E-09  1.06081E-08  8.69740E-09  1.01517E-08
   8.67898E-09  9.54469E-09  7.94261E-09  9.28484E-09  7.44915E-09  9.46638E-09  7.30060E-09  8.86283E-09  7.28639E-09  8.60782E-09
   7.46165E-09  8.53312E-09  8.16397E-09  9.81013E-09  9.73442E-09  1.21562E-08  1.22202E-08  1.29357E-08  1.22132E-08  1.18552E-08
   1.02259E-08  1.03547E-08  9.27218E-09  9.28143E-09  7.97439E-09  8.34381E-09  7.48269E-09  8.66119E-09  6.94498E-09  9.24618E-09
   1.04655E-08  1.30991E-08  1.32894E-08  1.48281E-08  1.45921E-08  1.51300E-08  1.42783E-08  1.38664E-08  1.25847E-08  1.29266E-08
   1.17687E-08  1.22421E-08  1.11308E-08  1.09650E-08  1.01635E-08  1.02845E-08  8.79715E-09  9.57468E-09  7.72015E-09  8.72803E-09
   7.91437E-09  7.89659E-09  7.68195E-09  7.76316E-09  7.24310E-09  7.77999E-09  6.72435E-09  7.39014E-09  6.75317E-09  6.30354E-09
   5.54940E-09  6.04239E-09  4.59286E-09  5.19609E-09  4.81381E-09  5.03872E-09  4.97431E-09  5.08057E-09  4.68899E-09  5.14351E-09
   5.56811E-09  5.71240E-09  5.00083E-09  5.02793E-09  4.56011E-09  4.70638E-09  4.08214E-09  3.47328E-09  3.46117E-09  3.84320E-09
   3.95992E-09  4.29677E-09  3.47744E-09  3.78133E-09  3.91887E-09  4.54600E-09  3.13895E-09  4.02175E-09  3.75109E-09  4.22450E-09
   4.11334E-09  5.19131E-09  4.98718E-09  5.86941E-09  5.46245E-09  6.67737E-09  6.04568E-09  7.12851E-09  7.00216E-09  7.46569E-09
   6.55647E-09  7.31365E-09  7.37999E-09  7.75442E-09  6.71845E-09  7.38445E-09  7.08110E-09  7.25586E-09  7.36321E-09  8.04399E-09
   6.72219E-09  8.05316E-09  6.54403E-09  8.01322E-09  7.06712E-09  7.90513E-09  7.29771E-09  8.66000E-09  8.46818E-09  1.03489E-08
   1.09607E-08  1.31260E-08  1.43056E-08  1.55993E-08  1.61008E-08  1.55372E-08  1.45377E-08  1.35907E-08  1.15525E-08  1.08568E-08
   9.05945E-09  8.70824E-09  6.97560E-09  6.29196E-09  4.82603E-09  4.60562E-09  2.32366E-09  1.98330E-09  5.83622E-10 -3.76716E-10
  -3.13599E-09 -3.51116E-09 -5.90597E-09 -7.79063E-09 -9.46287E-09 -1.10776E-08 -1.44292E-08 -1.51717E-08 -1.80332E-08 -2.00413E-08
  -2.20994E-08 -2.28440E-08 -2.49019E-08 -2.53727E-08 -2.61976E-08 -2.54468E-08 -2.51897E-08 -2.26960E-08 -2.20580E-08 -1.94605E-08
  -1.76260E-08 -1.44758E-08 -1.22495E-08 -9.53613E-09 -7.56731E-09 -4.67137E-09 -3.73767E-09 -1.61255E-09 -9.37418E-10  5.71709E-10
  -3.55477E-10  8.45923E-10 -8.91853E-10 -8.33773E-11 -8.07709E-10  2.55858E-11 -1.01715E-09 -2.13831E-10 -1.19650E-09 -8.56400E-10
  -9.62949E-10  3.10203E-11 -7.50554E-10 -1.64360E-10 -6.46958E-10 -9.97483E-11 -1.00918E-09 -5.87930E-10 -9.53712E-10  7.11634E-11
  -2.87419E-10  1.77299E-11 -7.95540E-10  2.26770E-11 -3.83220E-10  5.53196E-12 -1.14125E-10 -3.40831E-10 -7.88092E-10  2.98184E-10
  -7.05015E-10  4.46266E-10 -5.73951E-10  9.00884E-10  5.35214E-10  7.96097E-10 -1.52589E-10  5.39687E-11  4.86472E-10  7.44156E-10
  -3.92244E-10  1.52689E-10 -3.28175E-10  2.08510E-10 -6.49001E-10 -1.57611E-10 -5.56547E-10 -4.27886E-10 -2.60261E-10  5.16569E-10
   2.73267E-10  9.77500E-10  6.82759E-10  8.33727E-10  5.64118E-10  1.70034E-09  6.69220E-10  1.13923E-09  1.09795E-09  1.98152E-09
   7.97205E-10  9.29530E-10  6.63565E-10  1.13268E-09 -2.35077E-10  6.78132E-10 -3.76009E-10  4.40591E-10  4.63035E-10  2.28798E-10
   1.37810E-10  6.31121E-10  1.73558E-11 -7.32728E-11  3.33445E-10  1.39149E-10  5.29746E-10  6.18124E-10  2.44454E-10  3.86756E-10
   3.51115E-10  6.67989E-10 -2.52674E-10  6.42091E-10 -2.41637E-10  8.73390E-10  1.77199E-10  4.69103E-10  4.22913E-10  7.33144E-10
   3.64682E-10  7.40313E-10  2.49876E-10  8.57601E-10  1.08737E-10  6.86385E-10  1.56647E-10  1.04787E-09  3.87405E-10  1.15381E-09
   5.18720E-10  4.29529E-10  2.55644E-10  1.05377E-09  5.80974E-10  6.26432E-10  7.50463E-10  1.03524E-09  7.54876E-10  1.29205E-09
   9.48199E-10  1.28150E-09  3.48794E-10  1.57319E-09  7.61482E-10  1.45440E-09  7.17444E-10  1.15355E-09  1.16067E-09  1.57922E-09
   9.39181E-10  1.35814E-09  1.56379E-09  1.09414E-09  1.01922E-09  1.56262E-09  1.27480E-09  1.55517E-09  1.25996E-09  1.77946E-09
   1.69380E-09  1.69289E-09  1.46198E-09  1.48102E-09  1.00249E-09  2.10351E-09  1.75273E-09  2.33072E-09  1.33552E-09  2.00722E-09
   1.50830E-09  1.53191E-09  1.90966E-09
 NY points of the fit to the data follow
   1.55666E-08  1.64451E-08  1.66242E-08  1.68177E-08  1.73342E-08  1.75363E-08  1.70066E-08  1.60688E-08  1.50500E-08  1.41907E-08
   1.36990E-08  1.34002E-08  1.32900E-08  1.33262E-08  1.35147E-08  1.37511E-08  1.40418E-08  1.44393E-08  1.46310E-08  1.45024E-08
   1.43611E-08  1.42500E-08  1.39841E-08  1.35499E-08  1.31109E-08  1.27512E-08  1.26498E-08  1.28282E-08  1.32062E-08  1.36875E-08
   1.41277E-08  1.43956E-08  1.45011E-08  1.42954E-08  1.37185E-08  1.31069E-08  1.28023E-08  1.26406E-08  1.25535E-08  1.24847E-08
   1.23427E-08  1.20484E-08  1.15655E-08  1.10172E-08  1.06734E-08  1.04403E-08  1.02482E-08  1.00774E-08  9.92423E-09  9.79766E-09
   9.68842E-09  9.59012E-09  9.50030E-09  9.40010E-09  9.28590E-09  9.17991E-09  9.10217E-09  9.05324E-09  9.01495E-09  9.01042E-09
   9.01313E-09  9.03051E-09  9.23078E-09  9.60550E-09  1.01003E-08  1.06621E-08  1.11575E-08  1.15027E-08  1.16968E-08  1.16904E-08
   1.15378E-08  1.12577E-08  1.07379E-08  1.00988E-08  9.65072E-09  9.27602E-09  9.00185E-09  9.27439E-09  1.00199E-08  1.10052E-08
   1.20630E-08  1.30808E-08  1.39984E-08  1.47423E-08  1.51930E-08  1.52392E-08  1.47005E-08  1.35635E-08  1.20985E-08  1.11191E-08
   1.05282E-08  1.00974E-08  9.76419E-09  9.47269E-09  9.22081E-09  9.00497E-09  8.79934E-09  8.60580E-09  8.43279E-09  8.27182E-09
   8.11872E-09  7.97500E-09  7.83903E-09  7.70928E-09  7.58442E-09  7.46356E-09  7.34598E-09  7.23119E-09  7.11868E-09  7.00803E-09
   6.89900E-09  6.79122E-09  6.68447E-09  6.57855E-09  6.47330E-09  6.36855E-09  6.26417E-09  6.16001E-09  6.05595E-09  5.95195E-09
   5.84783E-09  5.74358E-09  5.63909E-09  5.53431E-09  5.42918E-09  5.32362E-09  5.21757E-09  5.11106E-09  5.00398E-09  4.89630E-09
   4.78801E-09  4.67903E-09  4.56939E-09  4.45904E-09  4.34796E-09  4.23608E-09  4.12351E-09  4.01011E-09  3.89594E-09  3.78094E-09
   3.66518E-09  3.54861E-09  3.43128E-09  3.31313E-09  3.19426E-09  3.07466E-09  2.95441E-09  2.83362E-09  2.71245E-09  2.59107E-09
   2.46965E-09  2.34845E-09  2.22770E-09  2.10775E-09  1.98898E-09  1.87190E-09  1.75717E-09  1.64567E-09  1.53862E-09  1.43778E-09
   1.34581E-09  1.26698E-09  1.20859E-09  1.18446E-09  1.22463E-09  1.41104E-09  2.07500E-09  4.45254E-09  7.65632E-09  1.08337E-08
   1.36190E-08  1.59040E-08  1.75825E-08  1.83900E-08  1.78882E-08  1.56328E-08  1.15021E-08  6.14382E-09  1.46539E-09 -1.17112E-10
  -7.28803E-10 -1.08108E-09 -1.33001E-09 -1.52736E-09 -1.69509E-09 -1.84401E-09 -1.97998E-09 -2.10639E-09 -2.22543E-09 -2.33844E-09
  -2.44626E-09 -2.54958E-09 -2.64877E-09 -2.74413E-09 -2.83582E-09 -2.92401E-09 -3.00881E-09 -3.09020E-09 -3.16825E-09 -3.24299E-09
  -3.31441E-09 -3.38249E-09 -3.44719E-09 -3.50852E-09 -3.56645E-09 -3.62091E-09 -3.67189E-09 -3.71936E-09 -3.76328E-09 -3.80356E-09
  -3.84024E-09 -3.87322E-09 -3.90248E-09 -3.92799E-09 -3.94973E-09 -3.96761E-09 -3.98163E-09 -3.99177E-09 -3.99795E-09 -4.00028E-09
  -3.99882E-09 -3.99369E-09 -3.98495E-09 -3.97270E-09 -3.95704E-09 -3.93806E-09 -3.91584E-09 -3.89048E-09 -3.86208E-09 -3.83071E-09
  -3.79648E-09 -3.75948E-09 -3.71979E-09 -3.67752E-09 -3.63275E-09 -3.58556E-09 -3.53607E-09 -3.48434E-09 -3.43049E-09 -3.37459E-09
  -3.31674E-09 -3.25703E-09 -3.19554E-09 -3.13237E-09 -3.06761E-09 -3.00134E-09 -2.93366E-09 -2.86465E-09 -2.79440E-09 -2.72299E-09
  -2.65052E-09 -2.57706E-09 -2.50272E-09 -2.42755E-09 -2.35165E-09 -2.27512E-09 -2.19802E-09 -2.12043E-09 -2.04245E-09 -1.96414E-09
  -1.88559E-09 -1.80687E-09 -1.72808E-09 -1.64926E-09 -1.57051E-09 -1.49190E-09 -1.41351E-09 -1.33539E-09 -1.25762E-09 -1.18029E-09
  -1.10344E-09 -1.02715E-09 -9.51493E-10 -8.76515E-10 -8.02303E-10 -7.28899E-10 -6.56374E-10 -5.84794E-10 -5.14199E-10 -4.44659E-10
  -3.76230E-10 -3.08962E-10 -2.42913E-10 -1.78120E-10 -1.14647E-10 -5.25383E-11  8.15698E-12  6.74136E-11  1.25160E-10  1.81371E-10
   2.36010E-10  2.89048E-10  3.40508E-10  3.90403E-10  4.38753E-10  4.85561E-10  5.30862E-10  5.74653E-10  6.16959E-10  6.57792E-10
   6.97163E-10  7.35095E-10  7.71591E-10  8.06674E-10  8.40357E-10  8.72652E-10  9.03569E-10  9.33121E-10  9.61328E-10  9.88200E-10
   1.01375E-09  1.03798E-09  1.06091E-09  1.08256E-09  1.10293E-09  1.12204E-09  1.13989E-09  1.15650E-09  1.17187E-09  1.18602E-09
   1.19895E-09  1.21069E-09  1.22122E-09  1.23057E-09  1.23874E-09  1.24575E-09  1.25158E-09  1.25627E-09  1.25980E-09  1.26220E-09
   1.26346E-09  1.26359E-09  1.26260E-09  1.26049E-09  1.25727E-09  1.25294E-09  1.24751E-09  1.24097E-09  1.23334E-09  1.22463E-09
   1.21481E-09  1.20391E-09  1.19193E-09  1.17885E-09  1.16471E-09  1.14947E-09  1.13315E-09  1.11575E-09  1.09727E-09  1.07770E-09
   1.05705E-09  1.03531E-09  1.01248E-09  9.88569E-10  9.63557E-10  9.37451E-10  9.10239E-10  8.81927E-10  8.52505E-10  8.21965E-10
   7.90309E-10  7.57526E-10  7.23607E-10
 NY background values follow
     5.084E-09    5.159E-09    5.233E-09    5.306E-09    5.377E-09    5.446E-09    5.514E-09    5.581E-09    5.646E-09    5.709E-09
     5.771E-09    5.831E-09    5.890E-09    5.947E-09    6.003E-09    6.058E-09    6.110E-09    6.162E-09    6.211E-09    6.260E-09
     6.307E-09    6.352E-09    6.396E-09    6.438E-09    6.479E-09    6.518E-09    6.556E-09    6.593E-09    6.628E-09    6.661E-09
     6.694E-09    6.724E-09    6.754E-09    6.781E-09    6.808E-09    6.833E-09    6.857E-09    6.879E-09    6.900E-09    6.919E-09
     6.937E-09    6.954E-09    6.969E-09    6.984E-09    6.996E-09    7.008E-09    7.018E-09    7.027E-09    7.034E-09    7.040E-09
     7.045E-09    7.049E-09    7.051E-09    7.052E-09    7.052E-09    7.051E-09    7.049E-09    7.045E-09    7.040E-09    7.034E-09
     7.027E-09    7.018E-09    7.009E-09    6.998E-09    6.986E-09    6.974E-09    6.960E-09    6.945E-09    6.929E-09    6.911E-09
     6.893E-09    6.874E-09    6.854E-09    6.833E-09    6.811E-09    6.788E-09    6.763E-09    6.738E-09    6.712E-09    6.685E-09
     6.657E-09    6.628E-09    6.598E-09    6.566E-09    6.534E-09    6.501E-09    6.467E-09    6.432E-09    6.395E-09    6.358E-09
     6.320E-09    6.280E-09    6.240E-09    6.198E-09    6.155E-09    6.112E-09    6.067E-09    6.021E-09    5.974E-09    5.926E-09
     5.876E-09    5.826E-09    5.775E-09    5.722E-09    5.668E-09    5.613E-09    5.557E-09    5.500E-09    5.442E-09    5.382E-09
     5.322E-09    5.260E-09    5.196E-09    5.132E-09    5.067E-09    5.000E-09    4.932E-09    4.862E-09    4.792E-09    4.720E-09
     4.647E-09    4.573E-09    4.497E-09    4.421E-09    4.342E-09    4.263E-09    4.182E-09    4.100E-09    4.017E-09    3.932E-09
     3.846E-09    3.759E-09    3.670E-09    3.580E-09    3.489E-09    3.396E-09    3.302E-09    3.206E-09    3.109E-09    3.011E-09
     2.911E-09    2.810E-09    2.708E-09    2.604E-09    2.499E-09    2.392E-09    2.284E-09    2.174E-09    2.064E-09    1.952E-09
     1.839E-09    1.725E-09    1.610E-09    1.495E-09    1.378E-09    1.261E-09    1.144E-09    1.026E-09    9.069E-10    7.880E-10
     6.689E-10    5.496E-10    4.301E-10    3.107E-10    1.914E-10    7.228E-11   -4.660E-11   -1.651E-10   -2.833E-10   -4.008E-10
    -5.178E-10   -6.341E-10   -7.497E-10   -8.644E-10   -9.781E-10   -1.091E-09   -1.202E-09   -1.313E-09   -1.422E-09   -1.530E-09
    -1.636E-09   -1.741E-09   -1.844E-09   -1.946E-09   -2.046E-09   -2.144E-09   -2.240E-09   -2.334E-09   -2.426E-09   -2.516E-09
    -2.604E-09   -2.689E-09   -2.772E-09   -2.853E-09   -2.931E-09   -3.006E-09   -3.079E-09   -3.149E-09   -3.217E-09   -3.281E-09
    -3.343E-09   -3.401E-09   -3.457E-09   -3.509E-09   -3.559E-09   -3.605E-09   -3.648E-09   -3.687E-09   -3.723E-09   -3.756E-09
    -3.785E-09   -3.811E-09   -3.833E-09   -3.851E-09   -3.866E-09   -3.877E-09   -3.884E-09   -3.888E-09   -3.888E-09   -3.883E-09
    -3.876E-09   -3.864E-09   -3.849E-09   -3.831E-09   -3.809E-09   -3.784E-09   -3.756E-09   -3.725E-09   -3.691E-09   -3.654E-09
    -3.614E-09   -3.571E-09   -3.526E-09   -3.478E-09   -3.428E-09   -3.376E-09   -3.321E-09   -3.264E-09   -3.205E-09   -3.144E-09
    -3.081E-09   -3.017E-09   -2.950E-09   -2.882E-09   -2.813E-09   -2.741E-09   -2.669E-09   -2.595E-09   -2.520E-09   -2.444E-09
    -2.367E-09   -2.289E-09   -2.211E-09   -2.131E-09   -2.051E-09   -1.970E-09   -1.889E-09   -1.807E-09   -1.725E-09   -1.642E-09
    -1.559E-09   -1.477E-09   -1.394E-09   -1.311E-09   -1.228E-09   -1.146E-09   -1.063E-09   -9.813E-10   -8.997E-10   -8.186E-10
    -7.380E-10   -6.580E-10   -5.787E-10   -5.000E-10   -4.222E-10   -3.452E-10   -2.692E-10   -1.941E-10   -1.200E-10   -4.701E-11
     2.483E-11    9.548E-11    1.649E-10    2.330E-10    2.997E-10    3.651E-10    4.290E-10    4.915E-10    5.524E-10    6.117E-10
     6.694E-10    7.256E-10    7.801E-10    8.330E-10    8.843E-10    9.341E-10    9.823E-10    1.029E-09    1.074E-09    1.118E-09
     1.160E-09    1.201E-09    1.240E-09    1.278E-09    1.314E-09    1.349E-09    1.383E-09    1.415E-09    1.446E-09    1.475E-09
     1.503E-09    1.530E-09    1.555E-09    1.579E-09    1.602E-09    1.624E-09    1.644E-09    1.663E-09    1.681E-09    1.697E-09
     1.712E-09    1.726E-09    1.739E-09    1.751E-09    1.761E-09    1.770E-09    1.778E-09    1.785E-09    1.791E-09    1.795E-09
     1.798E-09    1.801E-09    1.802E-09    1.801E-09    1.800E-09    1.798E-09    1.794E-09    1.790E-09    1.784E-09    1.777E-09
     1.769E-09    1.760E-09    1.750E-09    1.738E-09    1.726E-09    1.712E-09    1.698E-09    1.682E-09    1.665E-09    1.647E-09
     1.628E-09    1.608E-09    1.587E-09    1.564E-09    1.541E-09    1.516E-09    1.491E-09    1.464E-09    1.436E-09    1.407E-09
     1.376E-09    1.345E-09    1.312E-09
 Cr       Conc. = 2.22E-10
   5.74467E-09  5.90603E-09  5.92835E-09  5.82094E-09  5.74177E-09  5.72154E-09  5.72824E-09  5.74904E-09  5.77794E-09  5.81165E-09
   5.84823E-09  5.88643E-09  5.92534E-09  5.96438E-09  6.00305E-09  6.04098E-09  6.07784E-09  6.11337E-09  6.14731E-09  6.17937E-09
   6.20930E-09  6.23676E-09  6.26139E-09  6.28273E-09  6.30015E-09  6.31290E-09  6.31980E-09  6.31920E-09  6.30847E-09  6.28336E-09
   6.23761E-09  6.18748E-09  6.26862E-09  6.45955E-09  6.71431E-09  7.00387E-09  7.31644E-09  7.64453E-09  7.96855E-09  8.24473E-09
   8.40633E-09  8.38305E-09  8.14882E-09  7.81887E-09  7.65227E-09  7.55574E-09  7.49197E-09  7.44621E-09  7.41141E-09  7.38370E-09
   7.36068E-09  7.34087E-09  7.32321E-09  7.30700E-09  7.29175E-09  7.27699E-09  7.26250E-09  7.24809E-09  7.23342E-09  7.21852E-09
   7.20323E-09  7.18742E-09  7.17108E-09  7.15410E-09  7.13651E-09  7.11819E-09  7.09915E-09  7.07934E-09  7.05877E-09  7.03745E-09
   7.01530E-09  6.99234E-09  6.96862E-09  6.94405E-09  6.91869E-09  6.89248E-09  6.86543E-09  6.83753E-09  6.80874E-09  6.77908E-09
   6.74851E-09  6.71704E-09  6.68464E-09  6.65132E-09  6.61707E-09  6.58187E-09  6.54570E-09  6.50858E-09  6.47049E-09  6.43141E-09
   6.39133E-09  6.35027E-09  6.30817E-09  6.26510E-09  6.22097E-09  6.17580E-09  6.12960E-09  6.08235E-09  6.03403E-09  5.98465E-09
   5.93419E-09  5.88264E-09  5.83000E-09  5.77628E-09  5.72141E-09  5.66544E-09  5.60834E-09  5.55012E-09  5.49075E-09  5.43019E-09
   5.36853E-09  5.30566E-09  5.24160E-09  5.17636E-09  5.10993E-09  5.04229E-09  4.97345E-09  4.90339E-09  4.83208E-09  4.75959E-09
   4.68579E-09  4.61078E-09  4.53448E-09  4.45694E-09  4.37812E-09  4.29801E-09  4.21657E-09  4.13389E-09  4.04988E-09  3.96456E-09
   3.87793E-09  3.78995E-09  3.70066E-09  3.61003E-09  3.51806E-09  3.42469E-09  3.33004E-09  3.23398E-09  3.13657E-09  3.03776E-09
   2.93760E-09  2.83605E-09  2.73313E-09  2.62878E-09  2.52306E-09  2.41595E-09  2.30745E-09  2.19766E-09  2.08664E-09  1.97448E-09
   1.86127E-09  1.74709E-09  1.63201E-09  1.51614E-09  1.39956E-09  1.28237E-09  1.16466E-09  1.04653E-09  9.28117E-10  8.09531E-10
   6.90910E-10  5.72485E-10  4.54513E-10  3.37486E-10  2.22366E-10  1.11792E-10  1.71833E-11 -2.93100E-11 -5.68858E-11 -8.66822E-11
  -1.26987E-10 -1.80139E-10 -2.49217E-10 -3.41942E-10 -4.70473E-10 -6.46314E-10 -8.70953E-10 -1.12335E-09 -1.34789E-09 -1.48739E-09
  -1.60596E-09 -1.71720E-09 -1.82443E-09 -1.92871E-09 -2.03052E-09 -2.13005E-09 -2.22737E-09 -2.32245E-09 -2.41535E-09 -2.50600E-09
  -2.59432E-09 -2.68031E-09 -2.76388E-09 -2.84498E-09 -2.92351E-09 -2.99945E-09 -3.07274E-09 -3.14326E-09 -3.21097E-09 -3.27585E-09
  -3.33779E-09 -3.39675E-09 -3.45265E-09 -3.50544E-09 -3.55508E-09 -3.60147E-09 -3.64459E-09 -3.68438E-09 -3.72079E-09 -3.75372E-09
  -3.78320E-09 -3.80912E-09 -3.83144E-09 -3.85013E-09 -3.86516E-09 -3.87644E-09 -3.88396E-09 -3.88770E-09 -3.88758E-09 -3.88369E-09
  -3.87610E-09 -3.86491E-09 -3.85021E-09 -3.83207E-09 -3.81059E-09 -3.78586E-09 -3.75797E-09 -3.72700E-09 -3.69305E-09 -3.65621E-09
  -3.61657E-09 -3.57421E-09 -3.52923E-09 -3.48172E-09 -3.43177E-09 -3.37947E-09 -3.32491E-09 -3.26817E-09 -3.20936E-09 -3.14855E-09
  -3.08584E-09 -3.02132E-09 -2.95508E-09 -2.88721E-09 -2.81778E-09 -2.74690E-09 -2.67465E-09 -2.60112E-09 -2.52640E-09 -2.45056E-09
  -2.37370E-09 -2.29590E-09 -2.21726E-09 -2.13783E-09 -2.05771E-09 -1.97700E-09 -1.89576E-09 -1.81408E-09 -1.73204E-09 -1.64971E-09
  -1.56718E-09 -1.48453E-09 -1.40183E-09 -1.31915E-09 -1.23657E-09 -1.15417E-09 -1.07202E-09 -9.90183E-10 -9.08735E-10 -8.27750E-10
  -7.47286E-10 -6.67418E-10 -5.88213E-10 -5.09724E-10 -4.32034E-10 -3.55185E-10 -2.79247E-10 -2.04287E-10 -1.30344E-10 -5.74874E-11
   1.42257E-11  8.47471E-11  1.54018E-10  2.22002E-10  2.88636E-10  3.53875E-10  4.17671E-10  4.79999E-10  5.40787E-10  6.00009E-10
   6.57631E-10  7.13622E-10  7.68007E-10  8.20799E-10  8.72017E-10  9.21665E-10  9.69778E-10  1.01635E-09  1.06142E-09  1.10498E-09
   1.14705E-09  1.18766E-09  1.22681E-09  1.26451E-09  1.30079E-09  1.33566E-09  1.36912E-09  1.40119E-09  1.43189E-09  1.46123E-09
   1.48922E-09  1.51588E-09  1.54120E-09  1.56522E-09  1.58793E-09  1.60935E-09  1.62950E-09  1.64838E-09  1.66600E-09  1.68237E-09
   1.69750E-09  1.71141E-09  1.72409E-09  1.73557E-09  1.74584E-09  1.75493E-09  1.76283E-09  1.76954E-09  1.77509E-09  1.77948E-09
   1.78270E-09  1.78478E-09  1.78571E-09  1.78550E-09  1.78416E-09  1.78169E-09  1.77809E-09  1.77337E-09  1.76753E-09  1.76058E-09
   1.75251E-09  1.74334E-09  1.73306E-09  1.72167E-09  1.70919E-09  1.69559E-09  1.68089E-09  1.66509E-09  1.64819E-09  1.63018E-09
   1.61106E-09  1.59084E-09  1.56951E-09  1.54708E-09  1.52352E-09  1.49885E-09  1.47305E-09  1.44614E-09  1.41809E-09  1.38891E-09
   1.35859E-09  1.32712E-09  1.29450E-09
 GABA     Conc. = 9.12E-11
   5.04300E-09  5.11789E-09  5.19122E-09  5.26300E-09  5.33321E-09  5.40187E-09  5.46897E-09  5.53448E-09  5.59843E-09  5.66080E-09
   5.72159E-09  5.78080E-09  5.83841E-09  5.89442E-09  5.94883E-09  6.00163E-09  6.05278E-09  6.10231E-09  6.15019E-09  6.19638E-09
   6.24087E-09  6.28363E-09  6.32461E-09  6.36377E-09  6.40104E-09  6.43637E-09  6.46969E-09  6.50105E-09  6.53099E-09  6.56451E-09
   6.60176E-09  6.63712E-09  6.67906E-09  6.73187E-09  6.78788E-09  6.84649E-09  6.90738E-09  6.96643E-09  7.01865E-09  7.05999E-09
   7.09024E-09  7.11469E-09  7.12499E-09  7.11612E-09  7.11074E-09  7.10817E-09  7.09652E-09  7.08544E-09  7.07858E-09  7.07376E-09
   7.06975E-09  7.06591E-09  7.06178E-09  7.05711E-09  7.05174E-09  7.04544E-09  7.03817E-09  7.02993E-09  7.02055E-09  7.01032E-09
   6.99970E-09  6.99120E-09  6.99077E-09  6.99191E-09  6.99432E-09  7.00832E-09  7.02740E-09  7.04480E-09  7.06074E-09  7.07181E-09
   7.07341E-09  7.06189E-09  7.03682E-09  7.00360E-09  6.96751E-09  6.91576E-09  6.86118E-09  6.82209E-09  6.78033E-09  6.73528E-09
   6.69822E-09  6.66337E-09  6.62864E-09  6.60125E-09  6.57726E-09  6.55252E-09  6.53186E-09  6.51393E-09  6.49540E-09  6.47474E-09
   6.44912E-09  6.42056E-09  6.38963E-09  6.34627E-09  6.29522E-09  6.24879E-09  6.19445E-09  6.13246E-09  6.07509E-09  6.01754E-09
   5.95788E-09  5.89917E-09  5.84102E-09  5.78296E-09  5.72462E-09  5.66579E-09  5.60632E-09  5.54612E-09  5.48510E-09  5.42313E-09
   5.36028E-09  5.29638E-09  5.23144E-09  5.16544E-09  5.09836E-09  5.03017E-09  4.96086E-09  4.89040E-09  4.81874E-09  4.74596E-09
   4.67192E-09  4.59671E-09  4.52025E-09  4.44257E-09  4.36365E-09  4.28347E-09  4.20198E-09  4.11927E-09  4.03525E-09  3.94993E-09
   3.86331E-09  3.77536E-09  3.68612E-09  3.59554E-09  3.50363E-09  3.41033E-09  3.31576E-09  3.21979E-09  3.12247E-09  3.02375E-09
   2.92368E-09  2.82224E-09  2.71942E-09  2.61517E-09  2.50955E-09  2.40254E-09  2.29414E-09  2.18445E-09  2.07352E-09  1.96145E-09
   1.84830E-09  1.73419E-09  1.61917E-09  1.50333E-09  1.38676E-09  1.26955E-09  1.15179E-09  1.03356E-09  9.14974E-10  7.96123E-10
   6.77104E-10  5.58080E-10  4.39192E-10  3.20702E-10  2.03053E-10  8.73895E-11 -2.14547E-11 -1.10381E-10 -1.91373E-10 -2.72999E-10
  -3.58593E-10 -4.49059E-10 -5.45617E-10 -6.51418E-10 -7.71394E-10 -9.10207E-10 -1.06836E-09 -1.23706E-09 -1.39334E-09 -1.51406E-09
  -1.62544E-09 -1.73294E-09 -1.83787E-09 -1.94059E-09 -2.04126E-09 -2.13991E-09 -2.23653E-09 -2.33104E-09 -2.42345E-09 -2.51368E-09
  -2.60162E-09 -2.68727E-09 -2.77053E-09 -2.85135E-09 -2.92962E-09 -3.00530E-09 -3.07836E-09 -3.14866E-09 -3.21616E-09 -3.28083E-09
  -3.34258E-09 -3.40135E-09 -3.45706E-09 -3.50967E-09 -3.55914E-09 -3.60536E-09 -3.64830E-09 -3.68793E-09 -3.72418E-09 -3.75695E-09
  -3.78627E-09 -3.81203E-09 -3.83420E-09 -3.85274E-09 -3.86763E-09 -3.87876E-09 -3.88614E-09 -3.88973E-09 -3.88947E-09 -3.88544E-09
  -3.87771E-09 -3.86639E-09 -3.85154E-09 -3.83327E-09 -3.81165E-09 -3.78679E-09 -3.75877E-09 -3.72768E-09 -3.69360E-09 -3.65663E-09
