 LCModel (Version 6.3-1R) Copyright: S.W. Provencher.          Ref.: Magn. Reson. Med. 30:672-679 (1993).                
 onepulse 28x14_ftSpec_smooth_lcm
 26 lines in following concentration table = NCONC+1
    Conc.  %SD /Cr+PCr  Metabolite                                         
    0.000 999%   0.000 Ala                                                 
    0.000 999%   0.000 Asp                                                 
    0.000 999%   0.000 Cr                                                  
    0.000 999%   0.000 GABA                                                
 8.29E-11 999%   2.677 Glc                                                 
 1.69E-09  36%  54.456 Gln                                                 
    0.000 999%   0.000 Glu                                                 
    0.000 999%   0.000 Glyc                                                
 1.02E-10 276%   3.291 GPC                                                 
    0.000 999%   0.000 GSH                                                 
 1.65E-09  34%  53.172 Ins                                                 
    0.000 999%   0.000 Lac                                                 
 4.70E-10  47%  15.176 NAAG                                                
    0.000 999%   0.000 NAA                                                 
    0.000 999%   0.000 PCh                                                 
 3.10E-11 901%   1.000 PCr                                                 
 4.95E-10 374%  15.985 PE                                                  
 2.18E-10 122%   7.048 Scyllo                                              
 4.80E-09  34% 154.921 Ser                                                 
    0.000 999%   0.000 Tau                                                 
 1.02E-10 276%   3.291 GPC+PCh                                             
 4.70E-10  47%  15.176 NAA+NAAG                                            
 1.65E-09  34%  53.172 Ins+Glyc                                            
 3.10E-11 901%   1.000 Cr+PCr                                              
 1.69E-09  36%  54.456 Glu+Gln                                             
   6 lines in following misc. output table
  FWHM = 0.101 ppm    S/N =   3                                            
  Data shift = 0.391 ppm                                                   
  Ph: -50 deg     -47.4 deg/ppm                                            
  alphaB,S = 1.1E+00,   3.9E+01                                            
    9 spline knots.   Ns = 5(1)                                            
  ( 8) 4 infls.   ( 5) 1 extrs.                                            
  363 points on ppm-axis = NY
      4.250000     4.238821     4.227641     4.216462     4.205282     4.194103     4.182923     4.171744     4.160564     4.149385
      4.138206     4.127026     4.115847     4.104667     4.093488     4.082308     4.071129     4.059949     4.048770     4.037591
      4.026411     4.015232     4.004052     3.992873     3.981693     3.970514     3.959334     3.948155     3.936975     3.925796
      3.914617     3.903437     3.892258     3.881078     3.869899     3.858719     3.847540     3.836360     3.825181     3.814002
      3.802822     3.791643     3.780463     3.769284     3.758104     3.746925     3.735745     3.724566     3.713387     3.702207
      3.691028     3.679848     3.668669     3.657489     3.646310     3.635130     3.623951     3.612772     3.601592     3.590413
      3.579233     3.568054     3.556874     3.545695     3.534515     3.523336     3.512156     3.500977     3.489798     3.478618
      3.467439     3.456259     3.445080     3.433900     3.422721     3.411541     3.400362     3.389183     3.378003     3.366824
      3.355644     3.344465     3.333285     3.322106     3.310926     3.299747     3.288568     3.277388     3.266209     3.255029
      3.243850     3.232670     3.221491     3.210311     3.199132     3.187953     3.176773     3.165594     3.154414     3.143235
      3.132055     3.120876     3.109696     3.098517     3.087337     3.076158     3.064979     3.053799     3.042620     3.031440
      3.020261     3.009081     2.997902     2.986722     2.975543     2.964364     2.953184     2.942005     2.930825     2.919646
      2.908466     2.897287     2.886107     2.874928     2.863749     2.852569     2.841390     2.830210     2.819031     2.807851
      2.796672     2.785492     2.774313     2.763134     2.751954     2.740775     2.729595     2.718416     2.707236     2.696057
      2.684877     2.673698     2.662519     2.651339     2.640160     2.628980     2.617801     2.606621     2.595442     2.584262
      2.573083     2.561903     2.550724     2.539545     2.528365     2.517186     2.506006     2.494827     2.483647     2.472468
      2.461288     2.450109     2.438930     2.427750     2.416571     2.405391     2.394212     2.383032     2.371853     2.360673
      2.349494     2.338315     2.327135     2.315956     2.304776     2.293597     2.282417     2.271238     2.260058     2.248879
      2.237700     2.226520     2.215341     2.204161     2.192982     2.181802     2.170623     2.159443     2.148264     2.137084
      2.125905     2.114726     2.103546     2.092367     2.081187     2.070008     2.058828     2.047649     2.036469     2.025290
      2.014111     2.002931     1.991752     1.980572     1.969393     1.958213     1.947034     1.935854     1.924675     1.913496
      1.902316     1.891137     1.879957     1.868778     1.857598     1.846419     1.835239     1.824060     1.812881     1.801701
      1.790522     1.779342     1.768163     1.756983     1.745804     1.734624     1.723445     1.712265     1.701086     1.689907
      1.678727     1.667548     1.656368     1.645189     1.634009     1.622830     1.611650     1.600471     1.589292     1.578112
      1.566933     1.555753     1.544574     1.533394     1.522215     1.511035     1.499856     1.488677     1.477497     1.466318
      1.455138     1.443959     1.432779     1.421600     1.410420     1.399241     1.388062     1.376882     1.365703     1.354523
      1.343344     1.332164     1.320985     1.309805     1.298626     1.287446     1.276267     1.265088     1.253908     1.242729
      1.231549     1.220370     1.209190     1.198011     1.186831     1.175652     1.164473     1.153293     1.142114     1.130934
      1.119755     1.108575     1.097396     1.086216     1.075037     1.063858     1.052678     1.041499     1.030319     1.019140
      1.007960     0.996781     0.985601     0.974422     0.963243     0.952063     0.940884     0.929704     0.918525     0.907345
      0.896166     0.884986     0.873807     0.862628     0.851448     0.840269     0.829089     0.817910     0.806730     0.795551
      0.784371     0.773192     0.762012     0.750833     0.739654     0.728474     0.717295     0.706115     0.694936     0.683756
      0.672577     0.661397     0.650218     0.639039     0.627859     0.616680     0.605500     0.594321     0.583141     0.571962
      0.560782     0.549603     0.538424     0.527244     0.516065     0.504885     0.493706     0.482526     0.471347     0.460167
      0.448988     0.437809     0.426629     0.415450     0.404270     0.393091     0.381911     0.370732     0.359552     0.348373
      0.337193     0.326014     0.314835     0.303655     0.292476     0.281296     0.270117     0.258937     0.247758     0.236578
      0.225399     0.214220     0.203040
 NY phased data points follow
   1.35478E-08  1.32455E-08  1.18875E-08  1.15880E-08  1.06619E-08  1.12033E-08  1.05525E-08  1.06434E-08  1.03270E-08  1.11969E-08
   1.09233E-08  1.20931E-08  1.22036E-08  1.22252E-08  1.16023E-08  1.18346E-08  1.18986E-08  1.15171E-08  1.03721E-08  1.03821E-08
   1.01029E-08  1.09979E-08  1.14819E-08  1.17374E-08  1.07887E-08  1.03361E-08  1.00393E-08  1.04620E-08  1.14863E-08  1.29635E-08
   1.30989E-08  1.38936E-08  1.30232E-08  1.20053E-08  1.07882E-08  1.09637E-08  1.06091E-08  1.04126E-08  1.00950E-08  9.74099E-09
   9.51342E-09  9.02382E-09  8.96062E-09  8.55486E-09  7.74728E-09  8.04952E-09  7.21227E-09  7.52442E-09  7.20317E-09  7.30777E-09
   7.19790E-09  6.56283E-09  5.80558E-09  5.85987E-09  5.55819E-09  6.15394E-09  5.73937E-09  4.91113E-09  6.24263E-09  7.49380E-09
   9.86699E-09  1.15975E-08  1.16221E-08  1.09102E-08  9.99916E-09  9.33275E-09  8.35117E-09  8.28639E-09  7.32787E-09  6.74577E-09
   6.12564E-09  5.95357E-09  5.37273E-09  4.21537E-09  4.22211E-09  6.10540E-09  9.44760E-09  1.27991E-08  1.42218E-08  1.36635E-08
   1.33018E-08  1.31871E-08  1.32116E-08  1.21330E-08  1.18369E-08  1.14105E-08  1.17748E-08  1.18171E-08  1.16985E-08  1.09310E-08
   1.07738E-08  9.86472E-09  9.88397E-09  9.08691E-09  9.37848E-09  8.86014E-09  8.88213E-09  7.81108E-09  8.45685E-09  7.62855E-09
   8.83295E-09  7.52824E-09  8.07478E-09  8.26951E-09  7.86547E-09  6.94100E-09  6.36533E-09  5.65284E-09  5.07915E-09  5.90692E-09
   5.69429E-09  5.69701E-09  5.70837E-09  5.54620E-09  6.04136E-09  5.78452E-09  6.22372E-09  6.29966E-09  6.41573E-09  6.01611E-09
   5.98644E-09  4.96260E-09  4.18941E-09  4.13627E-09  3.83784E-09  4.60435E-09  4.78667E-09  4.49267E-09  4.45357E-09  4.26234E-09
   4.42438E-09  4.30377E-09  4.66295E-09  4.49303E-09  4.14090E-09  3.63436E-09  4.98851E-09  5.60494E-09  6.42553E-09  6.18959E-09
   6.24544E-09  6.18849E-09  6.63833E-09  7.48893E-09  8.29194E-09  7.50975E-09  7.91955E-09  7.99623E-09  8.28189E-09  7.08750E-09
   7.87062E-09  6.92570E-09  7.37839E-09  6.76486E-09  7.90067E-09  6.98634E-09  6.97792E-09  6.37381E-09  7.49670E-09  6.37904E-09
   6.97689E-09  6.40295E-09  6.64301E-09  6.11583E-09  5.75396E-09  4.67516E-09  6.93145E-09  1.09774E-08  1.60307E-08  1.89538E-08
   1.90080E-08  1.76513E-08  1.71542E-08  1.64967E-08  1.64861E-08  1.56709E-08  1.57646E-08  1.46105E-08  1.46873E-08  1.36227E-08
   1.34522E-08  1.20002E-08  1.15671E-08  9.63897E-09  9.45051E-09  7.92414E-09  6.39929E-09  5.01989E-09  3.36941E-09  1.03000E-09
  -6.54206E-10 -3.47261E-09 -4.07192E-09 -6.41674E-09 -8.40206E-09 -1.03024E-08 -1.12178E-08 -1.27502E-08 -1.32747E-08 -1.34088E-08
  -1.32543E-08 -1.36942E-08 -1.24218E-08 -1.21614E-08 -9.94760E-09 -8.88715E-09 -7.63135E-09 -7.07509E-09 -5.69168E-09 -4.65472E-09
  -3.68292E-09 -3.22031E-09 -2.55057E-09 -2.80594E-09 -1.78749E-09 -2.90408E-09 -2.00088E-09 -3.06345E-09 -2.16736E-09 -2.21647E-09
  -1.80359E-09 -2.10483E-09 -1.63263E-09 -1.83470E-09 -1.54405E-09 -1.84383E-09 -1.30200E-09 -2.02541E-09 -1.37985E-09 -1.71678E-09
  -1.46092E-09 -2.13811E-09 -1.83949E-09 -1.57255E-09 -1.00906E-09 -1.28723E-09 -7.37311E-10 -1.50909E-09 -1.14331E-09 -1.82516E-09
  -1.72274E-09 -1.70131E-09 -1.36979E-09 -2.10755E-09 -1.14061E-09 -1.77439E-09 -8.90910E-10 -1.38383E-09 -8.09514E-10 -9.33448E-10
  -2.49961E-10 -8.21228E-10 -4.44770E-10 -7.79732E-10 -7.32457E-10 -1.45756E-09 -9.27282E-10 -1.29449E-09 -1.22262E-09 -1.51043E-09
  -1.97187E-09 -2.24474E-09 -1.87534E-09 -2.29558E-09 -1.38057E-09 -2.12732E-09 -1.32797E-09 -1.92582E-09 -1.08234E-09 -7.48317E-10
  -1.16591E-09 -3.95265E-10 -1.92848E-10 -4.95150E-10  2.55707E-10 -3.11344E-10  5.74565E-10 -4.15243E-10 -4.97017E-10 -7.53438E-10
  -8.65044E-10 -1.10255E-09 -4.69412E-10 -1.09644E-09 -8.72623E-10 -1.30102E-09 -7.40698E-10 -1.48990E-09 -4.44775E-10 -1.24067E-09
  -9.09647E-10 -1.28020E-09 -9.60741E-10 -1.95232E-09 -9.34352E-10 -1.88481E-09 -1.18809E-09 -1.74161E-09 -1.27940E-09 -1.76745E-09
  -1.98080E-09 -2.13068E-09 -1.45814E-09 -1.93551E-09 -1.63719E-09 -1.87699E-09 -1.88757E-09 -1.99144E-09 -1.81032E-09 -2.32272E-09
  -1.75670E-09 -1.68867E-09 -1.50740E-09 -2.27220E-09 -1.80419E-09 -2.16545E-09 -2.24172E-09 -2.28302E-09 -2.13489E-09 -2.50778E-09
  -1.94491E-09 -2.57169E-09 -1.68200E-09 -2.19345E-09 -1.89588E-09 -2.16169E-09 -2.01802E-09 -2.02440E-09 -1.89069E-09 -2.58417E-09
  -1.85726E-09 -2.36411E-09 -2.08832E-09 -2.38445E-09 -1.96042E-09 -2.26531E-09 -1.97260E-09 -2.53200E-09 -2.05153E-09 -2.56219E-09
  -2.79369E-09 -2.31166E-09 -1.89501E-09 -2.44208E-09 -2.12161E-09 -2.30649E-09 -1.77605E-09 -2.38803E-09 -2.23620E-09 -2.66330E-09
  -2.73982E-09 -2.97645E-09 -1.65748E-09 -2.52173E-09 -2.57587E-09 -2.20729E-09 -2.34284E-09 -2.76883E-09 -2.61814E-09 -2.97437E-09
  -2.05644E-09 -2.68705E-09 -2.13850E-09
 NY points of the fit to the data follow
   1.20795E-08  1.32436E-08  1.29878E-08  1.18733E-08  1.15769E-08  1.19057E-08  1.17973E-08  1.08253E-08  9.86951E-09  9.88653E-09
   1.03738E-08  1.09035E-08  1.13074E-08  1.16346E-08  1.19383E-08  1.19498E-08  1.17031E-08  1.17148E-08  1.18940E-08  1.14605E-08
   1.07887E-08  1.03189E-08  1.00004E-08  9.75322E-09  9.92123E-09  1.05953E-08  1.15361E-08  1.23357E-08  1.25754E-08  1.22177E-08
   1.21658E-08  1.22396E-08  1.22169E-08  1.20627E-08  1.16508E-08  1.09541E-08  1.03088E-08  9.74932E-09  9.31667E-09  8.97675E-09
   8.70590E-09  8.48580E-09  8.27250E-09  8.06066E-09  7.86769E-09  7.66607E-09  7.46719E-09  7.29562E-09  7.15370E-09  7.04421E-09
   6.93270E-09  6.80926E-09  6.65319E-09  6.47739E-09  6.45609E-09  6.73988E-09  7.02760E-09  7.38650E-09  7.93329E-09  8.47206E-09
   8.85979E-09  9.20460E-09  9.50956E-09  9.74704E-09  9.78673E-09  9.58287E-09  9.34741E-09  9.11993E-09  8.60438E-09  8.14881E-09
   7.88828E-09  7.82368E-09  7.92887E-09  8.06156E-09  8.23926E-09  8.60043E-09  9.54415E-09  1.07973E-08  1.19463E-08  1.27353E-08
   1.31668E-08  1.33007E-08  1.32180E-08  1.33095E-08  1.34598E-08  1.31699E-08  1.24114E-08  1.13610E-08  1.06643E-08  1.01750E-08
   9.79658E-09  9.48932E-09  9.23079E-09  9.00700E-09  8.80386E-09  8.61893E-09  8.45616E-09  8.30880E-09  8.16514E-09  8.02034E-09
   7.89000E-09  7.77667E-09  7.66739E-09  7.55712E-09  7.45269E-09  7.35377E-09  7.25925E-09  7.16836E-09  7.08013E-09  6.99422E-09
   6.91032E-09  6.82809E-09  6.74729E-09  6.66762E-09  6.58893E-09  6.51099E-09  6.43365E-09  6.35677E-09  6.28020E-09  6.20387E-09
   6.12757E-09  6.05130E-09  5.97493E-09  5.89844E-09  5.82177E-09  5.74488E-09  5.66774E-09  5.59032E-09  5.51260E-09  5.43456E-09
   5.35618E-09  5.27747E-09  5.19839E-09  5.11896E-09  5.03917E-09  4.95903E-09  4.87853E-09  4.79769E-09  4.71653E-09  4.63504E-09
   4.55327E-09  4.47121E-09  4.38891E-09  4.30642E-09  4.22372E-09  4.14088E-09  4.05797E-09  3.97504E-09  3.89216E-09  3.80944E-09
   3.72699E-09  3.64493E-09  3.56347E-09  3.48287E-09  3.40341E-09  3.32553E-09  3.24988E-09  3.17730E-09  3.10907E-09  3.04721E-09
   2.99487E-09  2.95754E-09  2.94521E-09  2.97829E-09  3.10484E-09  3.46797E-09  4.70282E-09  9.21823E-09  1.48082E-08  1.86734E-08
   1.99943E-08  1.95245E-08  1.85695E-08  1.80483E-08  1.80506E-08  1.77889E-08  1.59083E-08  1.14383E-08  5.74794E-09  3.29542E-09
   2.46365E-09  2.03044E-09  1.74690E-09  1.53556E-09  1.36465E-09  1.21878E-09  1.08957E-09  9.72089E-10  8.63234E-10  7.60971E-10
   6.63896E-10  5.71041E-10  4.81681E-10  3.95309E-10  3.11517E-10  2.29998E-10  1.50534E-10  7.29360E-11 -2.94627E-12 -7.72170E-11
  -1.49973E-10 -2.21297E-10 -2.91239E-10 -3.59844E-10 -4.27161E-10 -4.93218E-10 -5.58043E-10 -6.21638E-10 -6.84044E-10 -7.45268E-10
  -8.05317E-10 -8.64193E-10 -9.21909E-10 -9.78463E-10 -1.03388E-09 -1.08813E-09 -1.14123E-09 -1.19318E-09 -1.24399E-09 -1.29364E-09
  -1.34213E-09 -1.38947E-09 -1.43565E-09 -1.48068E-09 -1.52455E-09 -1.56725E-09 -1.60879E-09 -1.64916E-09 -1.68836E-09 -1.72639E-09
  -1.76325E-09 -1.79893E-09 -1.83343E-09 -1.86676E-09 -1.89892E-09 -1.92989E-09 -1.95968E-09 -1.98830E-09 -2.01574E-09 -2.04200E-09
  -2.06709E-09 -2.09099E-09 -2.11373E-09 -2.13530E-09 -2.15575E-09 -2.17509E-09 -2.19335E-09 -2.21055E-09 -2.22673E-09 -2.24190E-09
  -2.25610E-09 -2.26934E-09 -2.28166E-09 -2.29307E-09 -2.30360E-09 -2.31328E-09 -2.32212E-09 -2.33016E-09 -2.33742E-09 -2.34391E-09
  -2.34967E-09 -2.35472E-09 -2.35907E-09 -2.36276E-09 -2.36580E-09 -2.36821E-09 -2.37002E-09 -2.37125E-09 -2.37192E-09 -2.37205E-09
  -2.37166E-09 -2.37077E-09 -2.36940E-09 -2.36756E-09 -2.36528E-09 -2.36258E-09 -2.35947E-09 -2.35597E-09 -2.35210E-09 -2.34788E-09
  -2.34331E-09 -2.33843E-09 -2.33323E-09 -2.32774E-09 -2.32198E-09 -2.31595E-09 -2.30966E-09 -2.30314E-09 -2.29640E-09 -2.28944E-09
  -2.28227E-09 -2.27492E-09 -2.26738E-09 -2.25968E-09 -2.25181E-09 -2.24378E-09 -2.23562E-09 -2.22731E-09 -2.21887E-09 -2.21031E-09
  -2.20163E-09 -2.19284E-09 -2.18394E-09 -2.17493E-09 -2.16579E-09 -2.15652E-09 -2.14711E-09 -2.13754E-09 -2.12780E-09 -2.11788E-09
  -2.10777E-09 -2.09746E-09 -2.08694E-09 -2.07620E-09 -2.06523E-09 -2.05401E-09 -2.04255E-09 -2.03082E-09 -2.01882E-09 -2.00655E-09
  -1.99399E-09 -1.98113E-09 -1.96797E-09 -1.95450E-09 -1.94072E-09 -1.92660E-09 -1.91215E-09 -1.89737E-09 -1.88223E-09 -1.86675E-09
  -1.85090E-09 -1.83470E-09 -1.81812E-09 -1.80117E-09 -1.78384E-09 -1.76612E-09 -1.74801E-09 -1.72952E-09 -1.71063E-09 -1.69134E-09
  -1.67165E-09 -1.65155E-09 -1.63104E-09 -1.61013E-09 -1.58880E-09 -1.56707E-09 -1.54491E-09 -1.52235E-09 -1.49936E-09 -1.47596E-09
  -1.45215E-09 -1.42792E-09 -1.40328E-09 -1.37822E-09 -1.35275E-09 -1.32687E-09 -1.30058E-09 -1.27388E-09 -1.24678E-09 -1.21928E-09
  -1.19138E-09 -1.16309E-09 -1.13441E-09
 NY background values follow
     1.931E-09    2.011E-09    2.090E-09    2.168E-09    2.245E-09    2.321E-09    2.395E-09    2.469E-09    2.543E-09    2.615E-09
     2.686E-09    2.756E-09    2.825E-09    2.893E-09    2.960E-09    3.026E-09    3.092E-09    3.156E-09    3.219E-09    3.281E-09
     3.342E-09    3.403E-09    3.462E-09    3.520E-09    3.577E-09    3.634E-09    3.689E-09    3.743E-09    3.796E-09    3.849E-09
     3.900E-09    3.950E-09    4.000E-09    4.048E-09    4.095E-09    4.142E-09    4.187E-09    4.232E-09    4.275E-09    4.318E-09
     4.359E-09    4.400E-09    4.439E-09    4.478E-09    4.516E-09    4.553E-09    4.589E-09    4.624E-09    4.658E-09    4.691E-09
     4.723E-09    4.754E-09    4.785E-09    4.814E-09    4.843E-09    4.871E-09    4.898E-09    4.924E-09    4.949E-09    4.973E-09
     4.997E-09    5.019E-09    5.041E-09    5.062E-09    5.082E-09    5.101E-09    5.120E-09    5.138E-09    5.154E-09    5.170E-09
     5.185E-09    5.199E-09    5.213E-09    5.225E-09    5.237E-09    5.247E-09    5.257E-09    5.266E-09    5.274E-09    5.281E-09
     5.287E-09    5.292E-09    5.296E-09    5.299E-09    5.302E-09    5.303E-09    5.304E-09    5.303E-09    5.302E-09    5.299E-09
     5.296E-09    5.291E-09    5.286E-09    5.279E-09    5.271E-09    5.263E-09    5.253E-09    5.242E-09    5.231E-09    5.218E-09
     5.204E-09    5.189E-09    5.173E-09    5.156E-09    5.137E-09    5.118E-09    5.097E-09    5.075E-09    5.052E-09    5.028E-09
     5.003E-09    4.977E-09    4.949E-09    4.920E-09    4.890E-09    4.859E-09    4.826E-09    4.793E-09    4.758E-09    4.722E-09
     4.684E-09    4.645E-09    4.605E-09    4.564E-09    4.521E-09    4.478E-09    4.433E-09    4.387E-09    4.339E-09    4.291E-09
     4.242E-09    4.191E-09    4.139E-09    4.087E-09    4.033E-09    3.979E-09    3.923E-09    3.867E-09    3.809E-09    3.751E-09
     3.692E-09    3.632E-09    3.571E-09    3.510E-09    3.447E-09    3.384E-09    3.321E-09    3.257E-09    3.192E-09    3.126E-09
     3.060E-09    2.994E-09    2.926E-09    2.859E-09    2.791E-09    2.722E-09    2.654E-09    2.585E-09    2.515E-09    2.445E-09
     2.375E-09    2.305E-09    2.235E-09    2.164E-09    2.093E-09    2.023E-09    1.952E-09    1.881E-09    1.810E-09    1.739E-09
     1.668E-09    1.598E-09    1.527E-09    1.456E-09    1.386E-09    1.316E-09    1.246E-09    1.177E-09    1.108E-09    1.039E-09
     9.702E-10    9.021E-10    8.344E-10    7.672E-10    7.004E-10    6.341E-10    5.684E-10    5.031E-10    4.384E-10    3.743E-10
     3.107E-10    2.478E-10    1.854E-10    1.237E-10    6.264E-11    2.235E-12   -5.748E-11   -1.165E-10   -1.748E-10   -2.324E-10
    -2.892E-10   -3.452E-10   -4.005E-10   -4.550E-10   -5.087E-10   -5.616E-10   -6.136E-10   -6.648E-10   -7.151E-10   -7.646E-10
    -8.131E-10   -8.608E-10   -9.076E-10   -9.534E-10   -9.983E-10   -1.042E-09   -1.085E-09   -1.127E-09   -1.168E-09   -1.209E-09
    -1.248E-09   -1.286E-09   -1.323E-09   -1.359E-09   -1.394E-09   -1.428E-09   -1.461E-09   -1.493E-09   -1.524E-09   -1.554E-09
    -1.582E-09   -1.610E-09   -1.637E-09   -1.662E-09   -1.687E-09   -1.710E-09   -1.733E-09   -1.754E-09   -1.774E-09   -1.793E-09
    -1.811E-09   -1.828E-09   -1.844E-09   -1.858E-09   -1.872E-09   -1.884E-09   -1.896E-09   -1.907E-09   -1.916E-09   -1.925E-09
    -1.933E-09   -1.940E-09   -1.946E-09   -1.951E-09   -1.956E-09   -1.959E-09   -1.962E-09   -1.964E-09   -1.966E-09   -1.967E-09
    -1.967E-09   -1.966E-09   -1.965E-09   -1.963E-09   -1.960E-09   -1.957E-09   -1.954E-09   -1.950E-09   -1.945E-09   -1.940E-09
    -1.935E-09   -1.929E-09   -1.922E-09   -1.915E-09   -1.908E-09   -1.900E-09   -1.893E-09   -1.884E-09   -1.876E-09   -1.867E-09
    -1.857E-09   -1.848E-09   -1.838E-09   -1.828E-09   -1.818E-09   -1.808E-09   -1.797E-09   -1.786E-09   -1.775E-09   -1.764E-09
    -1.753E-09   -1.741E-09   -1.729E-09   -1.718E-09   -1.706E-09   -1.694E-09   -1.682E-09   -1.669E-09   -1.657E-09   -1.645E-09
    -1.632E-09   -1.620E-09   -1.607E-09   -1.595E-09   -1.582E-09   -1.569E-09   -1.556E-09   -1.543E-09   -1.530E-09   -1.516E-09
    -1.503E-09   -1.489E-09   -1.476E-09   -1.462E-09   -1.447E-09   -1.433E-09   -1.418E-09   -1.403E-09   -1.388E-09   -1.373E-09
    -1.357E-09   -1.342E-09   -1.326E-09   -1.309E-09   -1.293E-09   -1.276E-09   -1.258E-09   -1.241E-09   -1.223E-09   -1.205E-09
    -1.186E-09   -1.167E-09   -1.148E-09   -1.129E-09   -1.109E-09   -1.089E-09   -1.068E-09   -1.047E-09   -1.026E-09   -1.004E-09
    -9.823E-10   -9.599E-10   -9.371E-10   -9.140E-10   -8.905E-10   -8.666E-10   -8.423E-10   -8.176E-10   -7.926E-10   -7.671E-10
    -7.413E-10   -7.151E-10   -6.885E-10   -6.615E-10   -6.342E-10   -6.064E-10   -5.783E-10   -5.498E-10   -5.210E-10   -4.918E-10
    -4.622E-10   -4.322E-10   -4.019E-10
 Glc      Conc. = 8.29E-11
   1.84974E-09  1.95890E-09  2.06023E-09  2.15942E-09  2.25512E-09  2.35078E-09  2.43963E-09  2.52407E-09  2.59674E-09  2.65241E-09
   2.70616E-09  2.76064E-09  2.81488E-09  2.87684E-09  2.96014E-09  3.06260E-09  3.17299E-09  3.28202E-09  3.37766E-09  3.46013E-09
   3.54208E-09  3.62584E-09  3.70713E-09  3.78440E-09  3.84403E-09  3.87922E-09  3.91025E-09  3.94739E-09  3.99115E-09  4.03889E-09
   4.08405E-09  4.12629E-09  4.16995E-09  4.21172E-09  4.24857E-09  4.28607E-09  4.32468E-09  4.36078E-09  4.39524E-09  4.43017E-09
   4.46531E-09  4.50031E-09  4.53502E-09  4.56931E-09  4.60307E-09  4.63627E-09  4.66883E-09  4.70072E-09  4.73194E-09  4.76244E-09
   4.79221E-09  4.82122E-09  4.84948E-09  4.87699E-09  4.90371E-09  4.92966E-09  4.95483E-09  4.97924E-09  5.00285E-09  5.02572E-09
   5.04780E-09  5.06910E-09  5.08963E-09  5.10938E-09  5.12834E-09  5.14650E-09  5.16386E-09  5.18042E-09  5.19616E-09  5.21107E-09
   5.22516E-09  5.23841E-09  5.25083E-09  5.26238E-09  5.27309E-09  5.28294E-09  5.29190E-09  5.30001E-09  5.30721E-09  5.31354E-09
   5.31896E-09  5.32346E-09  5.32705E-09  5.32972E-09  5.33147E-09  5.33226E-09  5.33212E-09  5.33102E-09  5.32894E-09  5.32590E-09
   5.32187E-09  5.31686E-09  5.31085E-09  5.30383E-09  5.29579E-09  5.28672E-09  5.27661E-09  5.26546E-09  5.25325E-09  5.23999E-09
   5.22565E-09  5.21022E-09  5.19371E-09  5.17609E-09  5.15736E-09  5.13751E-09  5.11652E-09  5.09441E-09  5.07115E-09  5.04672E-09
   5.02114E-09  4.99435E-09  4.96640E-09  4.93723E-09  4.90687E-09  4.87530E-09  4.84250E-09  4.80847E-09  4.77320E-09  4.73672E-09
   4.69891E-09  4.65986E-09  4.61954E-09  4.57798E-09  4.53518E-09  4.49118E-09  4.44599E-09  4.39963E-09  4.35214E-09  4.30352E-09
   4.25381E-09  4.20302E-09  4.15118E-09  4.09832E-09  4.04445E-09  3.98961E-09  3.93382E-09  3.87710E-09  3.81949E-09  3.76100E-09
   3.70167E-09  3.64152E-09  3.58057E-09  3.51889E-09  3.45646E-09  3.39331E-09  3.32949E-09  3.26503E-09  3.19994E-09  3.13427E-09
   3.06806E-09  3.00130E-09  2.93405E-09  2.86636E-09  2.79821E-09  2.72966E-09  2.66077E-09  2.59155E-09  2.52204E-09  2.45232E-09
   2.38240E-09  2.31240E-09  2.24243E-09  2.17274E-09  2.10382E-09  2.03731E-09  1.98110E-09  1.95813E-09  1.93727E-09  1.89659E-09
   1.83311E-09  1.75615E-09  1.67772E-09  1.60469E-09  1.53606E-09  1.46314E-09  1.37314E-09  1.25945E-09  1.14084E-09  1.05831E-09
   9.84587E-10  9.13696E-10  8.44268E-10  7.75826E-10  7.08152E-10  6.41165E-10  5.74817E-10  5.09084E-10  4.43964E-10  3.79461E-10
   3.15569E-10  2.52314E-10  1.89694E-10  1.27736E-10  6.64427E-11  5.82157E-12 -5.40965E-11 -1.13303E-10 -1.71790E-10 -2.29533E-10
  -2.86519E-10 -3.42747E-10 -3.98191E-10 -4.52833E-10 -5.06671E-10 -5.59685E-10 -6.11865E-10 -6.63181E-10 -7.13644E-10 -7.63234E-10
  -8.11937E-10 -8.59733E-10 -9.06620E-10 -9.52577E-10 -9.97614E-10 -1.04170E-09 -1.08483E-09 -1.12699E-09 -1.16819E-09 -1.20839E-09
  -1.24760E-09 -1.28581E-09 -1.32301E-09 -1.35919E-09 -1.39436E-09 -1.42847E-09 -1.46156E-09 -1.49361E-09 -1.52459E-09 -1.55452E-09
  -1.58338E-09 -1.61118E-09 -1.63790E-09 -1.66356E-09 -1.68813E-09 -1.71161E-09 -1.73401E-09 -1.75533E-09 -1.77555E-09 -1.79468E-09
  -1.81272E-09 -1.82967E-09 -1.84552E-09 -1.86030E-09 -1.87402E-09 -1.88671E-09 -1.89840E-09 -1.90911E-09 -1.91886E-09 -1.92767E-09
  -1.93558E-09 -1.94261E-09 -1.94877E-09 -1.95410E-09 -1.95861E-09 -1.96233E-09 -1.96529E-09 -1.96750E-09 -1.96898E-09 -1.96977E-09
  -1.96988E-09 -1.96934E-09 -1.96817E-09 -1.96638E-09 -1.96400E-09 -1.96106E-09 -1.95756E-09 -1.95354E-09 -1.94902E-09 -1.94400E-09
  -1.93852E-09 -1.93259E-09 -1.92623E-09 -1.91946E-09 -1.91230E-09 -1.90477E-09 -1.89687E-09 -1.88864E-09 -1.88008E-09 -1.87122E-09
  -1.86206E-09 -1.85263E-09 -1.84294E-09 -1.83300E-09 -1.82283E-09 -1.81244E-09 -1.80184E-09 -1.79105E-09 -1.78007E-09 -1.76893E-09
  -1.75763E-09 -1.74618E-09 -1.73459E-09 -1.72287E-09 -1.71104E-09 -1.69909E-09 -1.68704E-09 -1.67489E-09 -1.66265E-09 -1.65032E-09
  -1.63792E-09 -1.62545E-09 -1.61291E-09 -1.60029E-09 -1.58759E-09 -1.57480E-09 -1.56190E-09 -1.54889E-09 -1.53574E-09 -1.52245E-09
  -1.50901E-09 -1.49540E-09 -1.48162E-09 -1.46766E-09 -1.45350E-09 -1.43914E-09 -1.42456E-09 -1.40976E-09 -1.39472E-09 -1.37944E-09
  -1.36392E-09 -1.34813E-09 -1.33207E-09 -1.31574E-09 -1.29912E-09 -1.28221E-09 -1.26501E-09 -1.24749E-09 -1.22967E-09 -1.21153E-09
  -1.19306E-09 -1.17426E-09 -1.15513E-09 -1.13565E-09 -1.11583E-09 -1.09566E-09 -1.07513E-09 -1.05424E-09 -1.03299E-09 -1.01137E-09
  -9.89388E-10 -9.67026E-10 -9.44291E-10 -9.21177E-10 -8.97684E-10 -8.73810E-10 -8.49552E-10 -8.24912E-10 -7.99887E-10 -7.74477E-10
  -7.48682E-10 -7.22503E-10 -6.95940E-10 -6.68994E-10 -6.41665E-10 -6.13957E-10 -5.85871E-10 -5.57407E-10 -5.28571E-10 -4.99364E-10
  -4.69788E-10 -4.39848E-10 -4.09547E-10
 Gln      Conc. = 1.69E-09
   5.99740E-10  9.08726E-10  1.30712E-09  1.77037E-09  2.24347E-09  2.68638E-09  3.06786E-09  3.35714E-09  3.56145E-09  3.80463E-09
   3.86750E-09  3.81955E-09  3.81884E-09  3.67687E-09  3.57184E-09  3.50767E-09  3.46981E-09  3.44931E-09  3.44084E-09  3.44099E-09
   3.44743E-09  3.45847E-09  3.47284E-09  3.48965E-09  3.50842E-09  3.52874E-09  3.54979E-09  3.57142E-09  3.59339E-09  3.61522E-09
   3.63668E-09  3.65754E-09  3.67759E-09  3.69669E-09  3.71462E-09  3.73121E-09  3.74630E-09  3.75969E-09  3.77110E-09  3.78038E-09
   3.78729E-09  3.79161E-09  3.79321E-09  3.79180E-09  3.78680E-09  3.77789E-09  3.76448E-09  3.74516E-09  3.72009E-09  3.68963E-09
   3.65144E-09  3.60571E-09  3.55686E-09  3.52487E-09  3.64276E-09  4.00908E-09  4.35095E-09  4.74811E-09  5.35315E-09  6.00745E-09
   6.55211E-09  7.03624E-09  7.44562E-09  7.73051E-09  7.82048E-09  7.69151E-09  7.51945E-09  7.35479E-09  6.88475E-09  6.40850E-09
   6.09815E-09  5.93665E-09  5.91184E-09  5.96917E-09  6.19139E-09  6.60283E-09  7.01968E-09  7.43468E-09  7.83489E-09  8.19216E-09
   8.49314E-09  8.66425E-09  8.62844E-09  8.58519E-09  8.50020E-09  8.17708E-09  7.88905E-09  7.67630E-09  7.38669E-09  7.14242E-09
   6.95444E-09  6.80385E-09  6.67981E-09  6.57407E-09  6.48053E-09  6.39700E-09  6.32153E-09  6.25215E-09  6.18792E-09  6.12799E-09
   6.07125E-09  6.01693E-09  5.96461E-09  5.91394E-09  5.86470E-09  5.81654E-09  5.76914E-09  5.72232E-09  5.67589E-09  5.62967E-09
   5.58354E-09  5.53736E-09  5.49104E-09  5.44446E-09  5.39756E-09  5.35023E-09  5.30243E-09  5.25409E-09  5.20513E-09  5.15555E-09
   5.10519E-09  5.05409E-09  5.00220E-09  4.94952E-09  4.89602E-09  4.84171E-09  4.78658E-09  4.73062E-09  4.67386E-09  4.61629E-09
   4.55791E-09  4.49873E-09  4.43876E-09  4.37802E-09  4.31652E-09  4.25426E-09  4.19127E-09  4.12755E-09  4.06315E-09  3.99805E-09
   3.93230E-09  3.86590E-09  3.79889E-09  3.73131E-09  3.66313E-09  3.59441E-09  3.52518E-09  3.45548E-09  3.38531E-09  3.31475E-09
   3.24382E-09  3.17255E-09  3.10101E-09  3.02929E-09  2.95741E-09  2.88550E-09  2.81370E-09  2.74217E-09  2.67116E-09  2.60108E-09
   2.53249E-09  2.46648E-09  2.40493E-09  2.35185E-09  2.31688E-09  2.33000E-09  2.53254E-09  3.41854E-09  4.37610E-09  4.94083E-09
   5.03575E-09  4.84258E-09  4.60706E-09  4.47615E-09  4.43648E-09  4.31685E-09  3.85654E-09  2.90325E-09  1.80223E-09  1.43424E-09
   1.25519E-09  1.12959E-09  1.02615E-09  9.34163E-10  8.48970E-10  7.68255E-10  6.90722E-10  6.15595E-10  5.42390E-10  4.70792E-10
   4.00571E-10  3.31594E-10  2.63741E-10  1.96953E-10  1.31163E-10  6.63285E-11  2.43813E-12 -6.05330E-11 -1.22603E-10 -1.83770E-10
  -2.44039E-10 -3.03424E-10 -3.61912E-10 -4.19496E-10 -4.76182E-10 -5.31961E-10 -5.86828E-10 -6.40758E-10 -6.93769E-10 -7.45846E-10
  -7.96977E-10 -8.47147E-10 -8.96357E-10 -9.44589E-10 -9.91856E-10 -1.03813E-09 -1.08340E-09 -1.12767E-09 -1.17094E-09 -1.21318E-09
  -1.25439E-09 -1.29456E-09 -1.33369E-09 -1.37178E-09 -1.40882E-09 -1.44479E-09 -1.47970E-09 -1.51354E-09 -1.54629E-09 -1.57796E-09
