 LCModel (Version 6.3-1R) Copyright: S.W. Provencher.          Ref.: Magn. Reson. Med. 30:672-679 (1993).                
 onepulse 28x22_ftSpec_smooth_lcm
 26 lines in following concentration table = NCONC+1
    Conc.  %SD   /Cr    Metabolite                                         
 3.77E-10 179%   0.000 Ala                                                 
    0.000 999%   0.000 Asp                                                 
    0.000 999%   0.000 Cr                                                  
 1.71E-09  51%   0.000 GABA                                                
    0.000 999%   0.000 Glc                                                 
    0.000 999%   0.000 Gln                                                 
    0.000 999%   0.000 Glu                                                 
    0.000 999%   0.000 Glyc                                                
 1.97E-11 853%   0.000 GPC                                                 
    0.000 999%   0.000 GSH                                                 
 1.42E-09  40%   0.000 Ins                                                 
 1.04E-10 623%   0.000 Lac                                                 
 4.05E-10  86%   0.000 NAAG                                                
    0.000 999%   0.000 NAA                                                 
    0.000 999%   0.000 PCh                                                 
    0.000 999%   0.000 PCr                                                 
    0.000 999%   0.000 PE                                                  
 1.40E-10 169%   0.000 Scyllo                                              
 7.70E-10 178%   0.000 Ser                                                 
    0.000 999%   0.000 Tau                                                 
 1.97E-11 853%   0.000 GPC+PCh                                             
 4.05E-10  86%   0.000 NAA+NAAG                                            
 1.42E-09  40%   0.000 Ins+Glyc                                            
    0.000 999%   0.000 Cr+PCr                                              
    0.000 999%   0.000 Glu+Gln                                             
   6 lines in following misc. output table
  FWHM = 0.089 ppm    S/N =   1                                            
  Data shift = 0.224 ppm                                                   
  Ph: -41 deg      -5.7 deg/ppm                                            
  alphaB,S = 5.4E+01,   4.0E+01                                            
    8 spline knots.   Ns = 5(1)                                            
  (10) 2 infls.   ( 9) 1 extrs.                                            
  363 points on ppm-axis = NY
      4.250000     4.238821     4.227641     4.216462     4.205282     4.194103     4.182923     4.171744     4.160564     4.149385
      4.138206     4.127026     4.115847     4.104667     4.093488     4.082308     4.071129     4.059949     4.048770     4.037591
      4.026411     4.015232     4.004052     3.992873     3.981693     3.970514     3.959334     3.948155     3.936975     3.925796
      3.914617     3.903437     3.892258     3.881078     3.869899     3.858719     3.847540     3.836360     3.825181     3.814002
      3.802822     3.791643     3.780463     3.769284     3.758104     3.746925     3.735745     3.724566     3.713387     3.702207
      3.691028     3.679848     3.668669     3.657489     3.646310     3.635130     3.623951     3.612772     3.601592     3.590413
      3.579233     3.568054     3.556874     3.545695     3.534515     3.523336     3.512156     3.500977     3.489798     3.478618
      3.467439     3.456259     3.445080     3.433900     3.422721     3.411541     3.400362     3.389183     3.378003     3.366824
      3.355644     3.344465     3.333285     3.322106     3.310926     3.299747     3.288568     3.277388     3.266209     3.255029
      3.243850     3.232670     3.221491     3.210311     3.199132     3.187953     3.176773     3.165594     3.154414     3.143235
      3.132055     3.120876     3.109696     3.098517     3.087337     3.076158     3.064979     3.053799     3.042620     3.031440
      3.020261     3.009081     2.997902     2.986722     2.975543     2.964364     2.953184     2.942005     2.930825     2.919646
      2.908466     2.897287     2.886107     2.874928     2.863749     2.852569     2.841390     2.830210     2.819031     2.807851
      2.796672     2.785492     2.774313     2.763134     2.751954     2.740775     2.729595     2.718416     2.707236     2.696057
      2.684877     2.673698     2.662519     2.651339     2.640160     2.628980     2.617801     2.606621     2.595442     2.584262
      2.573083     2.561903     2.550724     2.539545     2.528365     2.517186     2.506006     2.494827     2.483647     2.472468
      2.461288     2.450109     2.438930     2.427750     2.416571     2.405391     2.394212     2.383032     2.371853     2.360673
      2.349494     2.338315     2.327135     2.315956     2.304776     2.293597     2.282417     2.271238     2.260058     2.248879
      2.237700     2.226520     2.215341     2.204161     2.192982     2.181802     2.170623     2.159443     2.148264     2.137084
      2.125905     2.114726     2.103546     2.092367     2.081187     2.070008     2.058828     2.047649     2.036469     2.025290
      2.014111     2.002931     1.991752     1.980572     1.969393     1.958213     1.947034     1.935854     1.924675     1.913496
      1.902316     1.891137     1.879957     1.868778     1.857598     1.846419     1.835239     1.824060     1.812881     1.801701
      1.790522     1.779342     1.768163     1.756983     1.745804     1.734624     1.723445     1.712265     1.701086     1.689907
      1.678727     1.667548     1.656368     1.645189     1.634009     1.622830     1.611650     1.600471     1.589292     1.578112
      1.566933     1.555753     1.544574     1.533394     1.522215     1.511035     1.499856     1.488677     1.477497     1.466318
      1.455138     1.443959     1.432779     1.421600     1.410420     1.399241     1.388062     1.376882     1.365703     1.354523
      1.343344     1.332164     1.320985     1.309805     1.298626     1.287446     1.276267     1.265088     1.253908     1.242729
      1.231549     1.220370     1.209190     1.198011     1.186831     1.175652     1.164473     1.153293     1.142114     1.130934
      1.119755     1.108575     1.097396     1.086216     1.075037     1.063858     1.052678     1.041499     1.030319     1.019140
      1.007960     0.996781     0.985601     0.974422     0.963243     0.952063     0.940884     0.929704     0.918525     0.907345
      0.896166     0.884986     0.873807     0.862628     0.851448     0.840269     0.829089     0.817910     0.806730     0.795551
      0.784371     0.773192     0.762012     0.750833     0.739654     0.728474     0.717295     0.706115     0.694936     0.683756
      0.672577     0.661397     0.650218     0.639039     0.627859     0.616680     0.605500     0.594321     0.583141     0.571962
      0.560782     0.549603     0.538424     0.527244     0.516065     0.504885     0.493706     0.482526     0.471347     0.460167
      0.448988     0.437809     0.426629     0.415450     0.404270     0.393091     0.381911     0.370732     0.359552     0.348373
      0.337193     0.326014     0.314835     0.303655     0.292476     0.281296     0.270117     0.258937     0.247758     0.236578
      0.225399     0.214220     0.203040
 NY phased data points follow
   1.06609E-08  1.06916E-08  1.06424E-08  1.04420E-08  9.99756E-09  9.76993E-09  9.30975E-09  8.83664E-09  8.88191E-09  9.07072E-09
   1.00323E-08  1.06122E-08  1.21854E-08  1.42304E-08  1.49367E-08  1.50827E-08  1.50714E-08  1.49604E-08  1.48241E-08  1.43523E-08
   1.41675E-08  1.35436E-08  1.35806E-08  1.35058E-08  1.31986E-08  1.30951E-08  1.38331E-08  1.37847E-08  1.44091E-08  1.42437E-08
   1.42231E-08  1.35425E-08  1.41621E-08  1.33867E-08  1.34837E-08  1.32944E-08  1.29355E-08  1.32052E-08  1.36270E-08  1.31807E-08
   1.31823E-08  1.27081E-08  1.32304E-08  1.31105E-08  1.40621E-08  1.44355E-08  1.55006E-08  1.53760E-08  1.53867E-08  1.52589E-08
   1.42552E-08  1.38227E-08  1.38415E-08  1.31970E-08  1.33766E-08  1.26438E-08  1.28283E-08  1.19905E-08  1.17636E-08  1.12210E-08
   1.03478E-08  1.02248E-08  9.86787E-09  1.01410E-08  9.99734E-09  9.83287E-09  9.28247E-09  8.63793E-09  8.86512E-09  7.85485E-09
   8.01007E-09  7.75890E-09  7.68410E-09  7.47559E-09  8.51804E-09  8.78889E-09  1.06518E-08  1.10377E-08  1.24512E-08  1.18033E-08
   1.17985E-08  1.10849E-08  1.10008E-08  9.55670E-09  9.92118E-09  8.74924E-09  8.26285E-09  7.16234E-09  7.61687E-09  5.75289E-09
   6.78037E-09  7.69242E-09  1.03351E-08  1.10878E-08  1.28303E-08  1.26778E-08  1.43524E-08  1.36531E-08  1.38442E-08  1.38539E-08
   1.36633E-08  1.40415E-08  1.42664E-08  1.40015E-08  1.42486E-08  1.36695E-08  1.33659E-08  1.31146E-08  1.29397E-08  1.23892E-08
   1.22384E-08  1.20527E-08  1.18383E-08  1.15765E-08  1.15774E-08  1.17515E-08  1.21015E-08  1.18067E-08  1.16941E-08  1.18618E-08
   1.18211E-08  1.11537E-08  1.12403E-08  1.00267E-08  1.03059E-08  9.54374E-09  9.65959E-09  1.00999E-08  9.67951E-09  9.66828E-09
   9.29417E-09  9.64811E-09  9.17332E-09  9.31777E-09  9.08932E-09  9.02459E-09  8.60662E-09  8.23987E-09  7.31255E-09  6.99301E-09
   7.34426E-09  7.06466E-09  6.73238E-09  6.95767E-09  6.81581E-09  6.72201E-09  6.73640E-09  6.04389E-09  6.03374E-09  5.45578E-09
   5.53794E-09  4.89855E-09  5.23174E-09  5.97518E-09  5.65133E-09  5.15615E-09  5.32872E-09  4.56851E-09  5.92395E-09  5.27653E-09
   6.41585E-09  5.44893E-09  5.72929E-09  5.95517E-09  6.43130E-09  6.16156E-09  6.47038E-09  6.46029E-09  6.64675E-09  6.53259E-09
   6.81937E-09  6.36179E-09  6.82439E-09  6.62012E-09  7.32248E-09  6.78862E-09  7.14002E-09  6.65797E-09  7.16830E-09  7.25798E-09
   8.10684E-09  8.10577E-09  1.08612E-08  1.25349E-08  1.57695E-08  1.80529E-08  1.96800E-08  2.06284E-08  2.11350E-08  2.16282E-08
   2.22757E-08  2.23130E-08  2.30910E-08  2.23305E-08  2.32409E-08  2.35073E-08  2.36628E-08  2.37154E-08  2.44509E-08  2.48008E-08
   2.56084E-08  2.58519E-08  2.67228E-08  2.62492E-08  2.71900E-08  2.75650E-08  2.84185E-08  2.72514E-08  2.81114E-08  2.68083E-08
   2.61832E-08  2.41326E-08  2.25231E-08  1.99321E-08  1.74447E-08  1.35307E-08  1.12469E-08  6.48828E-09  3.53903E-09 -9.20605E-10
  -3.93069E-09 -8.71401E-09 -1.02479E-08 -1.30903E-08 -1.42900E-08 -1.64720E-08 -1.62178E-08 -1.61999E-08 -1.47358E-08 -1.39270E-08
  -1.22528E-08 -1.03805E-08 -8.02026E-09 -7.59543E-09 -5.53919E-09 -4.74824E-09 -3.34117E-09 -3.83375E-09 -2.72358E-09 -3.51317E-09
  -2.73415E-09 -3.08281E-09 -2.99498E-09 -3.26273E-09 -1.95531E-09 -2.12854E-09 -1.51750E-09 -2.31830E-09 -1.06569E-09 -2.08734E-09
  -1.42943E-09 -2.30477E-09 -1.85272E-09 -2.59637E-09 -1.69695E-09 -2.31792E-09 -1.48401E-09 -1.53152E-09 -6.01965E-10 -1.23370E-09
  -8.39233E-10 -1.71542E-09 -1.20294E-09 -1.84261E-09 -1.26938E-09 -2.44657E-09 -1.64962E-09 -1.84491E-09 -1.45779E-09 -1.73763E-09
  -6.60933E-10 -8.06783E-10 -3.11544E-10 -8.14502E-10 -5.82580E-10 -9.78763E-10 -8.94294E-10 -1.53227E-09 -1.13448E-09 -1.80505E-09
  -1.41692E-09 -1.87577E-09 -1.13367E-09 -2.04171E-09 -1.82879E-09 -2.16550E-09 -1.14588E-09 -1.48116E-09 -1.43749E-09 -1.88929E-09
  -1.01883E-09 -1.44702E-09 -8.69901E-10 -1.09260E-09 -9.45590E-10 -1.37572E-09 -1.00394E-09 -1.01675E-09 -5.21192E-10 -8.19643E-10
  -1.63929E-09 -1.10324E-09 -9.53531E-10 -1.11067E-09 -1.29584E-09 -1.26370E-09 -1.07231E-09 -6.50332E-10 -1.25872E-09 -5.34121E-10
  -1.23275E-09 -7.74503E-10 -1.25320E-09 -1.12021E-09 -1.24615E-09 -1.49961E-09 -1.01193E-09 -1.38107E-09 -9.67736E-10 -1.46094E-09
  -1.41821E-09 -1.43480E-09 -1.62898E-09 -1.94378E-09 -1.40948E-09 -1.83429E-09 -1.85715E-09 -1.90398E-09 -1.72037E-09 -2.08575E-09
  -2.27690E-09 -1.96909E-09 -1.88602E-09 -1.66636E-09 -2.57228E-09 -2.29041E-09 -2.09300E-09 -2.14800E-09 -2.63291E-09 -2.19100E-09
  -2.70539E-09 -2.72538E-09 -2.47599E-09 -2.37260E-09 -2.54400E-09 -2.91043E-09 -2.65174E-09 -2.79635E-09 -2.57849E-09 -3.37586E-09
  -2.43808E-09 -3.30330E-09 -2.40519E-09 -2.94256E-09 -2.95622E-09 -3.06666E-09 -2.83517E-09 -2.84395E-09 -3.15420E-09 -3.43600E-09
  -3.34661E-09 -3.74499E-09 -3.54763E-09
 NY points of the fit to the data follow
   1.18844E-08  1.17626E-08  1.15540E-08  1.12922E-08  1.09154E-08  1.05291E-08  1.01167E-08  9.55751E-09  9.00618E-09  8.76922E-09
   8.96450E-09  9.49631E-09  1.03068E-08  1.13835E-08  1.25552E-08  1.35933E-08  1.43528E-08  1.48668E-08  1.50335E-08  1.47340E-08
   1.42468E-08  1.38484E-08  1.36087E-08  1.34349E-08  1.33180E-08  1.33112E-08  1.33632E-08  1.33635E-08  1.31872E-08  1.28243E-08
   1.26364E-08  1.25024E-08  1.22845E-08  1.22101E-08  1.23375E-08  1.25192E-08  1.28022E-08  1.32220E-08  1.37229E-08  1.42094E-08
   1.46015E-08  1.49104E-08  1.51765E-08  1.51939E-08  1.50230E-08  1.49211E-08  1.47379E-08  1.44227E-08  1.41165E-08  1.38354E-08
   1.35693E-08  1.33234E-08  1.30944E-08  1.28789E-08  1.26550E-08  1.24396E-08  1.22106E-08  1.19631E-08  1.16853E-08  1.13664E-08
   1.09689E-08  1.05042E-08  1.01079E-08  9.83332E-09  9.53650E-09  9.37129E-09  9.44076E-09  9.66948E-09  1.00259E-08  1.05062E-08
   1.10314E-08  1.15091E-08  1.18789E-08  1.21064E-08  1.22184E-08  1.20034E-08  1.15806E-08  1.13836E-08  1.14005E-08  1.14349E-08
   1.15566E-08  1.17855E-08  1.19960E-08  1.22261E-08  1.25404E-08  1.27334E-08  1.26745E-08  1.24177E-08  1.22854E-08  1.23052E-08
   1.24019E-08  1.25349E-08  1.27338E-08  1.29219E-08  1.29771E-08  1.30029E-08  1.30265E-08  1.28986E-08  1.26761E-08  1.24101E-08
   1.21216E-08  1.18876E-08  1.16725E-08  1.15013E-08  1.14272E-08  1.14563E-08  1.15647E-08  1.17421E-08  1.19553E-08  1.21353E-08
   1.22539E-08  1.23049E-08  1.23597E-08  1.24008E-08  1.23374E-08  1.22431E-08  1.21607E-08  1.20717E-08  1.19657E-08  1.18602E-08
   1.17409E-08  1.15889E-08  1.14425E-08  1.13066E-08  1.11789E-08  1.10573E-08  1.09405E-08  1.08273E-08  1.07172E-08  1.06094E-08
   1.05035E-08  1.03991E-08  1.02958E-08  1.01934E-08  1.00916E-08  9.99015E-09  9.88886E-09  9.78742E-09  9.68567E-09  9.58334E-09
   9.48027E-09  9.37620E-09  9.27088E-09  9.16401E-09  9.05534E-09  8.94453E-09  8.83119E-09  8.71492E-09  8.59523E-09  8.47158E-09
   8.34327E-09  8.20954E-09  8.06940E-09  7.92172E-09  7.76505E-09  7.59756E-09  7.41696E-09  7.22020E-09  7.00329E-09  6.76070E-09
   6.48465E-09  6.16376E-09  5.78036E-09  5.30526E-09  4.68522E-09  3.80843E-09  2.40644E-09  8.86285E-10  2.32085E-11  1.91780E-11
   8.09432E-10  2.25045E-09  4.19301E-09  6.48322E-09  8.92567E-09  1.12274E-08  1.29679E-08  1.36714E-08  1.31039E-08  1.20863E-08
   1.13564E-08  1.08101E-08  1.03787E-08  1.00241E-08  9.72362E-09  9.46290E-09  9.23233E-09  9.02530E-09  8.83688E-09  8.66355E-09
   8.50266E-09  8.35204E-09  8.21010E-09  8.07551E-09  7.94726E-09  7.82444E-09  7.70631E-09  7.59236E-09  7.48206E-09  7.37493E-09
   7.27066E-09  7.16892E-09  7.06948E-09  6.97207E-09  6.87646E-09  6.78255E-09  6.69014E-09  6.59907E-09  6.50922E-09  6.42057E-09
   6.33287E-09  6.24616E-09  6.16031E-09  6.07525E-09  5.99088E-09  5.90723E-09  5.82418E-09  5.74166E-09  5.65971E-09  5.57822E-09
   5.49718E-09  5.41654E-09  5.33629E-09  5.25637E-09  5.17679E-09  5.09750E-09  5.01848E-09  4.93971E-09  4.86118E-09  4.78286E-09
   4.70473E-09  4.62678E-09  4.54900E-09  4.47137E-09  4.39387E-09  4.31650E-09  4.23924E-09  4.16208E-09  4.08501E-09  4.00803E-09
   3.93112E-09  3.85425E-09  3.77745E-09  3.70070E-09  3.62400E-09  3.54732E-09  3.47066E-09  3.39403E-09  3.31740E-09  3.24079E-09
   3.16417E-09  3.08757E-09  3.01092E-09  2.93431E-09  2.85766E-09  2.78098E-09  2.70428E-09  2.62755E-09  2.55079E-09  2.47401E-09
   2.39718E-09  2.32029E-09  2.24337E-09  2.16638E-09  2.08936E-09  2.01228E-09  1.93512E-09  1.85794E-09  1.78067E-09  1.70333E-09
   1.62594E-09  1.54849E-09  1.47094E-09  1.39334E-09  1.31565E-09  1.23789E-09  1.16004E-09  1.08212E-09  1.00412E-09  9.26040E-10
   8.47854E-10  7.69593E-10  6.91234E-10  6.12797E-10  5.34264E-10  4.55634E-10  3.76899E-10  2.98099E-10  2.19189E-10  1.40172E-10
   6.10733E-11 -1.81326E-11 -9.74424E-11 -1.76853E-10 -2.56371E-10 -3.35983E-10 -4.15711E-10 -4.95539E-10 -5.75476E-10 -6.55521E-10
  -7.35671E-10 -8.15935E-10 -8.96303E-10 -9.76785E-10 -1.05738E-09 -1.13809E-09 -1.21891E-09 -1.29983E-09 -1.38088E-09 -1.46205E-09
  -1.54332E-09 -1.62472E-09 -1.70622E-09 -1.78785E-09 -1.86960E-09 -1.95146E-09 -2.03344E-09 -2.11555E-09 -2.19777E-09 -2.28011E-09
  -2.36257E-09 -2.44516E-09 -2.52786E-09 -2.61069E-09 -2.69364E-09 -2.77673E-09 -2.85992E-09 -2.94324E-09 -3.02668E-09 -3.11026E-09
  -3.19395E-09 -3.27777E-09 -3.36172E-09 -3.44580E-09 -3.53000E-09 -3.61432E-09 -3.69877E-09 -3.78336E-09 -3.86806E-09 -3.95291E-09
  -4.03786E-09 -4.12296E-09 -4.20818E-09 -4.29353E-09 -4.37903E-09 -4.46463E-09 -4.55038E-09 -4.63624E-09 -4.72225E-09 -4.80838E-09
  -4.89464E-09 -4.98104E-09 -5.06756E-09 -5.15423E-09 -5.24101E-09 -5.32794E-09 -5.41498E-09 -5.50217E-09 -5.58950E-09 -5.67695E-09
  -5.76454E-09 -5.85226E-09 -5.94010E-09
 NY background values follow
     1.448E-08    1.446E-08    1.443E-08    1.440E-08    1.437E-08    1.434E-08    1.431E-08    1.428E-08    1.425E-08    1.422E-08
     1.419E-08    1.416E-08    1.413E-08    1.410E-08    1.407E-08    1.404E-08    1.401E-08    1.398E-08    1.395E-08    1.392E-08
     1.389E-08    1.385E-08    1.382E-08    1.379E-08    1.376E-08    1.373E-08    1.369E-08    1.366E-08    1.363E-08    1.360E-08
     1.356E-08    1.353E-08    1.350E-08    1.346E-08    1.343E-08    1.339E-08    1.336E-08    1.333E-08    1.329E-08    1.326E-08
     1.322E-08    1.319E-08    1.315E-08    1.312E-08    1.308E-08    1.305E-08    1.301E-08    1.297E-08    1.294E-08    1.290E-08
     1.287E-08    1.283E-08    1.279E-08    1.276E-08    1.272E-08    1.268E-08    1.264E-08    1.261E-08    1.257E-08    1.253E-08
     1.249E-08    1.246E-08    1.242E-08    1.238E-08    1.234E-08    1.230E-08    1.226E-08    1.222E-08    1.218E-08    1.214E-08
     1.211E-08    1.207E-08    1.203E-08    1.199E-08    1.195E-08    1.190E-08    1.186E-08    1.182E-08    1.178E-08    1.174E-08
     1.170E-08    1.166E-08    1.162E-08    1.158E-08    1.153E-08    1.149E-08    1.145E-08    1.141E-08    1.137E-08    1.132E-08
     1.128E-08    1.124E-08    1.119E-08    1.115E-08    1.111E-08    1.106E-08    1.102E-08    1.098E-08    1.093E-08    1.089E-08
     1.084E-08    1.080E-08    1.075E-08    1.071E-08    1.066E-08    1.062E-08    1.057E-08    1.053E-08    1.048E-08    1.044E-08
     1.039E-08    1.034E-08    1.030E-08    1.025E-08    1.020E-08    1.016E-08    1.011E-08    1.006E-08    1.002E-08    9.969E-09
     9.921E-09    9.873E-09    9.825E-09    9.777E-09    9.729E-09    9.680E-09    9.632E-09    9.583E-09    9.534E-09    9.485E-09
     9.436E-09    9.387E-09    9.337E-09    9.287E-09    9.238E-09    9.187E-09    9.137E-09    9.087E-09    9.037E-09    8.986E-09
     8.935E-09    8.884E-09    8.833E-09    8.782E-09    8.730E-09    8.679E-09    8.627E-09    8.575E-09    8.523E-09    8.471E-09
     8.418E-09    8.366E-09    8.313E-09    8.260E-09    8.207E-09    8.154E-09    8.100E-09    8.047E-09    7.993E-09    7.939E-09
     7.885E-09    7.831E-09    7.777E-09    7.722E-09    7.668E-09    7.613E-09    7.558E-09    7.503E-09    7.448E-09    7.392E-09
     7.337E-09    7.281E-09    7.225E-09    7.169E-09    7.113E-09    7.056E-09    7.000E-09    6.943E-09    6.886E-09    6.829E-09
     6.772E-09    6.715E-09    6.657E-09    6.600E-09    6.542E-09    6.484E-09    6.426E-09    6.368E-09    6.309E-09    6.251E-09
     6.192E-09    6.133E-09    6.074E-09    6.015E-09    5.955E-09    5.896E-09    5.836E-09    5.776E-09    5.716E-09    5.656E-09
     5.596E-09    5.535E-09    5.475E-09    5.414E-09    5.353E-09    5.292E-09    5.231E-09    5.169E-09    5.108E-09    5.046E-09
     4.984E-09    4.922E-09    4.860E-09    4.798E-09    4.735E-09    4.672E-09    4.609E-09    4.546E-09    4.483E-09    4.420E-09
     4.357E-09    4.293E-09    4.229E-09    4.165E-09    4.101E-09    4.037E-09    3.973E-09    3.908E-09    3.843E-09    3.779E-09
     3.713E-09    3.648E-09    3.583E-09    3.517E-09    3.452E-09    3.386E-09    3.320E-09    3.254E-09    3.188E-09    3.121E-09
     3.055E-09    2.988E-09    2.921E-09    2.854E-09    2.787E-09    2.720E-09    2.652E-09    2.584E-09    2.517E-09    2.449E-09
     2.380E-09    2.312E-09    2.244E-09    2.175E-09    2.106E-09    2.037E-09    1.968E-09    1.899E-09    1.830E-09    1.760E-09
     1.691E-09    1.621E-09    1.551E-09    1.481E-09    1.410E-09    1.340E-09    1.269E-09    1.198E-09    1.128E-09    1.056E-09
     9.852E-10    9.138E-10    8.423E-10    7.706E-10    6.987E-10    6.267E-10    5.546E-10    4.823E-10    4.098E-10    3.372E-10
     2.644E-10    1.915E-10    1.184E-10    4.516E-11   -2.823E-11   -1.018E-10   -1.755E-10   -2.493E-10   -3.233E-10   -3.975E-10
    -4.718E-10   -5.463E-10   -6.209E-10   -6.957E-10   -7.706E-10   -8.457E-10   -9.209E-10   -9.963E-10   -1.072E-09   -1.148E-09
    -1.223E-09   -1.299E-09   -1.376E-09   -1.452E-09   -1.528E-09   -1.605E-09   -1.682E-09   -1.759E-09   -1.836E-09   -1.913E-09
    -1.990E-09   -2.068E-09   -2.145E-09   -2.223E-09   -2.301E-09   -2.379E-09   -2.458E-09   -2.536E-09   -2.615E-09   -2.694E-09
    -2.772E-09   -2.852E-09   -2.931E-09   -3.010E-09   -3.090E-09   -3.169E-09   -3.249E-09   -3.329E-09   -3.409E-09   -3.489E-09
    -3.570E-09   -3.650E-09   -3.731E-09   -3.812E-09   -3.893E-09   -3.974E-09   -4.056E-09   -4.137E-09   -4.219E-09   -4.301E-09
    -4.382E-09   -4.465E-09   -4.547E-09   -4.629E-09   -4.712E-09   -4.795E-09   -4.877E-09   -4.960E-09   -5.044E-09   -5.127E-09
    -5.210E-09   -5.294E-09   -5.378E-09   -5.462E-09   -5.546E-09   -5.630E-09   -5.714E-09   -5.799E-09   -5.883E-09   -5.968E-09
    -6.053E-09   -6.138E-09   -6.224E-09
 Ala      Conc. = 3.77E-10
   1.42041E-08  1.42018E-08  1.42058E-08  1.42149E-08  1.42282E-08  1.42446E-08  1.42639E-08  1.42720E-08  1.42654E-08  1.42679E-08
   1.42601E-08  1.42254E-08  1.41948E-08  1.41652E-08  1.41255E-08  1.40840E-08  1.40432E-08  1.40032E-08  1.39641E-08  1.39257E-08
   1.38878E-08  1.38503E-08  1.38131E-08  1.37762E-08  1.37395E-08  1.37029E-08  1.36664E-08  1.36300E-08  1.35937E-08  1.35573E-08
   1.35209E-08  1.34845E-08  1.34480E-08  1.34115E-08  1.33748E-08  1.33381E-08  1.33013E-08  1.32644E-08  1.32273E-08  1.31901E-08
   1.31528E-08  1.31153E-08  1.30777E-08  1.30399E-08  1.30020E-08  1.29639E-08  1.29256E-08  1.28871E-08  1.28485E-08  1.28097E-08
   1.27706E-08  1.27314E-08  1.26919E-08  1.26523E-08  1.26124E-08  1.25723E-08  1.25320E-08  1.24915E-08  1.24506E-08  1.24095E-08
   1.23683E-08  1.23266E-08  1.22848E-08  1.22426E-08  1.22002E-08  1.21574E-08  1.21143E-08  1.20709E-08  1.20271E-08  1.19830E-08
   1.19384E-08  1.18935E-08  1.18481E-08  1.18023E-08  1.17560E-08  1.17091E-08  1.16617E-08  1.16137E-08  1.15651E-08  1.15157E-08
   1.14656E-08  1.14146E-08  1.13627E-08  1.13097E-08  1.12555E-08  1.12001E-08  1.11430E-08  1.10843E-08  1.10235E-08  1.09603E-08
   1.08943E-08  1.08248E-08  1.07510E-08  1.06719E-08  1.05858E-08  1.04905E-08  1.03823E-08  1.02553E-08  1.00985E-08  9.89250E-09
   9.70242E-09  9.58492E-09  9.48641E-09  9.43379E-09  9.47891E-09  9.63025E-09  9.87011E-09  1.01666E-08  1.04771E-08  1.07505E-08
   1.09385E-08  1.10231E-08  1.10763E-08  1.10871E-08  1.09746E-08  1.08252E-08  1.06966E-08  1.05848E-08  1.04852E-08  1.03944E-08
   1.03102E-08  1.02311E-08  1.01559E-08  1.00839E-08  1.00144E-08  9.94698E-09  9.88120E-09  9.81688E-09  9.75370E-09  9.69149E-09
   9.63011E-09  9.56938E-09  9.50925E-09  9.44960E-09  9.39032E-09  9.33132E-09  9.27265E-09  9.21413E-09  9.15577E-09  9.09747E-09
   9.03926E-09  8.98105E-09  8.92282E-09  8.86448E-09  8.80606E-09  8.74750E-09  8.68874E-09  8.62974E-09  8.57046E-09  8.51086E-09
   8.45085E-09  8.39040E-09  8.32939E-09  8.26775E-09  8.20535E-09  8.14205E-09  8.07768E-09  8.01198E-09  7.94466E-09  7.87529E-09
   7.80324E-09  7.72768E-09  7.64720E-09  7.55958E-09  7.46067E-09  7.34179E-09  7.18204E-09  7.01587E-09  6.90064E-09  6.85074E-09
   6.86085E-09  6.91994E-09  7.01666E-09  7.13923E-09  7.27264E-09  7.39429E-09  7.47189E-09  7.46934E-09  7.36993E-09  7.23990E-09
   7.13153E-09  7.03685E-09  6.95064E-09  6.87013E-09  6.79357E-09  6.71987E-09  6.64832E-09  6.57847E-09  6.50984E-09  6.44223E-09
   6.37546E-09  6.30929E-09  6.24366E-09  6.17843E-09  6.11359E-09  6.04900E-09  5.98459E-09  5.92042E-09  5.85639E-09  5.79243E-09
   5.72856E-09  5.66474E-09  5.60098E-09  5.53722E-09  5.47344E-09  5.40968E-09  5.34589E-09  5.28205E-09  5.21815E-09  5.15425E-09
   5.09023E-09  5.02617E-09  4.96205E-09  4.89783E-09  4.83350E-09  4.76912E-09  4.70464E-09  4.64003E-09  4.57536E-09  4.51057E-09
   4.44568E-09  4.38066E-09  4.31554E-09  4.25030E-09  4.18496E-09  4.11948E-09  4.05389E-09  3.98817E-09  3.92234E-09  3.85638E-09
   3.79028E-09  3.72406E-09  3.65772E-09  3.59124E-09  3.52463E-09  3.45789E-09  3.39101E-09  3.32400E-09  3.25685E-09  3.18957E-09
   3.12216E-09  3.05460E-09  2.98690E-09  2.91907E-09  2.85111E-09  2.78300E-09  2.71475E-09  2.64636E-09  2.57782E-09  2.50915E-09
   2.44033E-09  2.37138E-09  2.30225E-09  2.23303E-09  2.16365E-09  2.09411E-09  2.02443E-09  1.95461E-09  1.88465E-09  1.81455E-09
   1.74431E-09  1.67391E-09  1.60336E-09  1.53265E-09  1.46183E-09  1.39085E-09  1.31970E-09  1.24844E-09  1.17702E-09  1.10544E-09
   1.03372E-09  9.61871E-10  8.89849E-10  8.17707E-10  7.45390E-10  6.72943E-10  6.00333E-10  5.27584E-10  4.54697E-10  3.81656E-10
   3.08452E-10  2.35111E-10  1.61613E-10  8.79773E-11  1.41897E-11 -5.97501E-11 -1.33851E-10 -2.08069E-10 -2.82450E-10 -3.56989E-10
  -4.31660E-10 -5.06488E-10 -5.81467E-10 -6.56594E-10 -7.31875E-10 -8.07295E-10 -8.82875E-10 -9.58599E-10 -1.03447E-09 -1.11050E-09
  -1.18667E-09 -1.26300E-09 -1.33947E-09 -1.41609E-09 -1.49286E-09 -1.56979E-09 -1.64686E-09 -1.72407E-09 -1.80145E-09 -1.87897E-09
  -1.95664E-09 -2.03446E-09 -2.11243E-09 -2.19055E-09 -2.26882E-09 -2.34724E-09 -2.42580E-09 -2.50452E-09 -2.58339E-09 -2.66241E-09
  -2.74157E-09 -2.82090E-09 -2.90037E-09 -2.97998E-09 -3.05975E-09 -3.13968E-09 -3.21974E-09 -3.29996E-09 -3.38032E-09 -3.46084E-09
  -3.54150E-09 -3.62232E-09 -3.70329E-09 -3.78441E-09 -3.86567E-09 -3.94709E-09 -4.02865E-09 -4.11037E-09 -4.19222E-09 -4.27425E-09
  -4.35641E-09 -4.43873E-09 -4.52119E-09 -4.60380E-09 -4.68658E-09 -4.76948E-09 -4.85255E-09 -4.93576E-09 -5.01913E-09 -5.10264E-09
  -5.18630E-09 -5.27011E-09 -5.35407E-09 -5.43819E-09 -5.52245E-09 -5.60686E-09 -5.69141E-09 -5.77612E-09 -5.86099E-09 -5.94599E-09
  -6.03116E-09 -6.11647E-09 -6.20192E-09
 GABA     Conc. = 1.71E-09
   1.35928E-08  1.35464E-08  1.34990E-08  1.34504E-08  1.34006E-08  1.33496E-08  1.32972E-08  1.32432E-08  1.31875E-08  1.31301E-08
   1.30706E-08  1.30089E-08  1.29447E-08  1.28778E-08  1.28078E-08  1.27343E-08  1.26570E-08  1.25751E-08  1.24879E-08  1.23946E-08
   1.22939E-08  1.21844E-08  1.20641E-08  1.19302E-08  1.17793E-08  1.16062E-08  1.14029E-08  1.11574E-08  1.08512E-08  1.05040E-08
   1.02614E-08  1.00420E-08  9.80113E-09  9.77201E-09  9.96481E-09  1.02772E-08  1.07449E-08  1.13481E-08  1.20166E-08  1.26580E-08
   1.31976E-08  1.36355E-08  1.40144E-08  1.41185E-08  1.40135E-08  1.39685E-08  1.38448E-08  1.35857E-08  1.33420E-08  1.31216E-08
   1.29188E-08  1.27284E-08  1.25452E-08  1.23653E-08  1.21849E-08  1.19999E-08  1.18057E-08  1.15972E-08  1.13667E-08  1.11043E-08
   1.07939E-08  1.04207E-08  1.01141E-08  9.91258E-09  9.69487E-09  9.63609E-09  9.83734E-09  1.02001E-08  1.06952E-08  1.12931E-08
   1.19263E-08  1.25036E-08  1.29395E-08  1.32041E-08  1.33862E-08  1.33826E-08  1.31067E-08  1.28690E-08  1.26542E-08  1.23105E-08
   1.19624E-08  1.16703E-08  1.13430E-08  1.10303E-08  1.08328E-08  1.06768E-08  1.05672E-08  1.05741E-08  1.06848E-08  1.08804E-08
   1.11201E-08  1.13778E-08  1.16878E-08  1.19843E-08  1.21465E-08  1.22844E-08  1.24268E-08  1.24326E-08  1.23741E-08  1.23231E-08
   1.22362E-08  1.21270E-08  1.20165E-08  1.19094E-08  1.18066E-08  1.17081E-08  1.16133E-08  1.15220E-08  1.14337E-08  1.13482E-08
   1.12652E-08  1.11842E-08  1.11050E-08  1.10274E-08  1.09512E-08  1.08763E-08  1.08026E-08  1.07299E-08  1.06581E-08  1.05871E-08
   1.05168E-08  1.04471E-08  1.03779E-08  1.03092E-08  1.02410E-08  1.01730E-08  1.01053E-08  1.00379E-08  9.97067E-09  9.90353E-09
   9.83649E-09  9.76944E-09  9.70242E-09  9.63532E-09  9.56810E-09  9.50068E-09  9.43314E-09  9.36529E-09  9.29714E-09  9.22857E-09
   9.15960E-09  9.09011E-09  9.02006E-09  8.94930E-09  8.87781E-09  8.80544E-09  8.73208E-09  8.65759E-09  8.58182E-09  8.50457E-09
   8.42561E-09  8.34470E-09  8.26147E-09  8.17557E-09  8.08648E-09  7.99360E-09  7.89615E-09  7.79308E-09  7.68306E-09  7.56422E-09
   7.43390E-09  7.28833E-09  7.12154E-09  6.92384E-09  6.67761E-09  6.34633E-09  5.84244E-09  5.26531E-09  4.90333E-09  4.83799E-09
   5.05141E-09  5.49484E-09  6.11678E-09  6.86456E-09  7.67255E-09  8.44278E-09  9.03295E-09  9.27730E-09  9.08113E-09  8.68448E-09
   8.38909E-09  8.15919E-09  7.97003E-09  7.80802E-09  7.66501E-09  7.53589E-09  7.41729E-09  7.30689E-09  7.20288E-09  7.10406E-09
   7.00952E-09  6.91845E-09  6.83032E-09  6.74464E-09  6.66111E-09  6.57936E-09  6.49912E-09  6.42027E-09  6.34261E-09  6.26593E-09
   6.19014E-09  6.11515E-09  6.04086E-09  5.96718E-09  5.89400E-09  5.82135E-09  5.74912E-09  5.67724E-09  5.60568E-09  5.53447E-09
   5.46345E-09  5.39270E-09  5.32215E-09  5.25178E-09  5.18151E-09  5.11143E-09  5.04146E-09  4.97155E-09  4.90176E-09  4.83203E-09
   4.76235E-09  4.69271E-09  4.62311E-09  4.55351E-09  4.48395E-09  4.41437E-09  4.34480E-09  4.27521E-09  4.20561E-09  4.13598E-09
