 LCModel (Version 6.3-1R) Copyright: S.W. Provencher.          Ref.: Magn. Reson. Med. 30:672-679 (1993).                
 onepulse 28x26_ftSpec_smooth_lcm
 26 lines in following concentration table = NCONC+1
    Conc.  %SD   /Cr    Metabolite                                         
 4.03E-10  66%   0.000 Ala                                                 
 1.10E-09  50%   0.000 Asp                                                 
    0.000 999%   0.000 Cr                                                  
 2.44E-09  17%   0.000 GABA                                                
 1.78E-09  26%   0.000 Glc                                                 
    0.000 999%   0.000 Gln                                                 
    0.000 999%   0.000 Glu                                                 
    0.000 999%   0.000 Glyc                                                
 1.26E-10 415%   0.000 GPC                                                 
 1.02E-10 302%   0.000 GSH                                                 
 3.43E-10  91%   0.000 Ins                                                 
    0.000 999%   0.000 Lac                                                 
    0.000 999%   0.000 NAAG                                                
 1.08E-09  20%   0.000 NAA                                                 
 1.61E-13 999%   0.000 PCh                                                 
    0.000 999%   0.000 PCr                                                 
    0.000 999%   0.000 PE                                                  
    0.000 999%   0.000 Scyllo                                              
    0.000 999%   0.000 Ser                                                 
    0.000 999%   0.000 Tau                                                 
 1.26E-10  59%   0.000 GPC+PCh                                             
 1.08E-09  20%   0.000 NAA+NAAG                                            
 3.43E-10  91%   0.000 Ins+Glyc                                            
    0.000 999%   0.000 Cr+PCr                                              
    0.000 999%   0.000 Glu+Gln                                             
   6 lines in following misc. output table
  FWHM = 0.089 ppm    S/N =   3                                            
  Data shift = 0.335 ppm                                                   
  Ph:  36 deg      19.9 deg/ppm                                            
  alphaB,S = 1.3E-01,   8.4E+01                                            
   16 spline knots.   Ns = 5(1)                                            
  (12) 4 infls.   (11) 1 extrs.                                            
  363 points on ppm-axis = NY
      4.250000     4.238821     4.227641     4.216462     4.205282     4.194103     4.182923     4.171744     4.160564     4.149385
      4.138206     4.127026     4.115847     4.104667     4.093488     4.082308     4.071129     4.059949     4.048770     4.037591
      4.026411     4.015232     4.004052     3.992873     3.981693     3.970514     3.959334     3.948155     3.936975     3.925796
      3.914617     3.903437     3.892258     3.881078     3.869899     3.858719     3.847540     3.836360     3.825181     3.814002
      3.802822     3.791643     3.780463     3.769284     3.758104     3.746925     3.735745     3.724566     3.713387     3.702207
      3.691028     3.679848     3.668669     3.657489     3.646310     3.635130     3.623951     3.612772     3.601592     3.590413
      3.579233     3.568054     3.556874     3.545695     3.534515     3.523336     3.512156     3.500977     3.489798     3.478618
      3.467439     3.456259     3.445080     3.433900     3.422721     3.411541     3.400362     3.389183     3.378003     3.366824
      3.355644     3.344465     3.333285     3.322106     3.310926     3.299747     3.288568     3.277388     3.266209     3.255029
      3.243850     3.232670     3.221491     3.210311     3.199132     3.187953     3.176773     3.165594     3.154414     3.143235
      3.132055     3.120876     3.109696     3.098517     3.087337     3.076158     3.064979     3.053799     3.042620     3.031440
      3.020261     3.009081     2.997902     2.986722     2.975543     2.964364     2.953184     2.942005     2.930825     2.919646
      2.908466     2.897287     2.886107     2.874928     2.863749     2.852569     2.841390     2.830210     2.819031     2.807851
      2.796672     2.785492     2.774313     2.763134     2.751954     2.740775     2.729595     2.718416     2.707236     2.696057
      2.684877     2.673698     2.662519     2.651339     2.640160     2.628980     2.617801     2.606621     2.595442     2.584262
      2.573083     2.561903     2.550724     2.539545     2.528365     2.517186     2.506006     2.494827     2.483647     2.472468
      2.461288     2.450109     2.438930     2.427750     2.416571     2.405391     2.394212     2.383032     2.371853     2.360673
      2.349494     2.338315     2.327135     2.315956     2.304776     2.293597     2.282417     2.271238     2.260058     2.248879
      2.237700     2.226520     2.215341     2.204161     2.192982     2.181802     2.170623     2.159443     2.148264     2.137084
      2.125905     2.114726     2.103546     2.092367     2.081187     2.070008     2.058828     2.047649     2.036469     2.025290
      2.014111     2.002931     1.991752     1.980572     1.969393     1.958213     1.947034     1.935854     1.924675     1.913496
      1.902316     1.891137     1.879957     1.868778     1.857598     1.846419     1.835239     1.824060     1.812881     1.801701
      1.790522     1.779342     1.768163     1.756983     1.745804     1.734624     1.723445     1.712265     1.701086     1.689907
      1.678727     1.667548     1.656368     1.645189     1.634009     1.622830     1.611650     1.600471     1.589292     1.578112
      1.566933     1.555753     1.544574     1.533394     1.522215     1.511035     1.499856     1.488677     1.477497     1.466318
      1.455138     1.443959     1.432779     1.421600     1.410420     1.399241     1.388062     1.376882     1.365703     1.354523
      1.343344     1.332164     1.320985     1.309805     1.298626     1.287446     1.276267     1.265088     1.253908     1.242729
      1.231549     1.220370     1.209190     1.198011     1.186831     1.175652     1.164473     1.153293     1.142114     1.130934
      1.119755     1.108575     1.097396     1.086216     1.075037     1.063858     1.052678     1.041499     1.030319     1.019140
      1.007960     0.996781     0.985601     0.974422     0.963243     0.952063     0.940884     0.929704     0.918525     0.907345
      0.896166     0.884986     0.873807     0.862628     0.851448     0.840269     0.829089     0.817910     0.806730     0.795551
      0.784371     0.773192     0.762012     0.750833     0.739654     0.728474     0.717295     0.706115     0.694936     0.683756
      0.672577     0.661397     0.650218     0.639039     0.627859     0.616680     0.605500     0.594321     0.583141     0.571962
      0.560782     0.549603     0.538424     0.527244     0.516065     0.504885     0.493706     0.482526     0.471347     0.460167
      0.448988     0.437809     0.426629     0.415450     0.404270     0.393091     0.381911     0.370732     0.359552     0.348373
      0.337193     0.326014     0.314835     0.303655     0.292476     0.281296     0.270117     0.258937     0.247758     0.236578
      0.225399     0.214220     0.203040
 NY phased data points follow
   1.28050E-08  1.61821E-08  1.61445E-08  1.86745E-08  1.67417E-08  1.69100E-08  1.47444E-08  1.52414E-08  1.32402E-08  1.46615E-08
   1.31176E-08  1.42478E-08  1.32862E-08  1.43283E-08  1.31507E-08  1.48503E-08  1.37735E-08  1.49190E-08  1.36003E-08  1.50352E-08
   1.38595E-08  1.43435E-08  1.26024E-08  1.34977E-08  1.19517E-08  1.33607E-08  1.21376E-08  1.44583E-08  1.23499E-08  1.31672E-08
   1.18418E-08  1.23680E-08  1.16140E-08  1.40331E-08  1.36742E-08  1.47393E-08  1.28758E-08  1.39522E-08  1.15381E-08  1.21693E-08
   1.01749E-08  1.11393E-08  1.00983E-08  1.12973E-08  9.22969E-09  1.02605E-08  8.52004E-09  9.86154E-09  7.61439E-09  8.95937E-09
   7.64865E-09  8.83710E-09  7.29169E-09  9.06173E-09  7.57523E-09  8.64484E-09  7.05374E-09  8.03073E-09  7.19119E-09  8.18234E-09
   7.47585E-09  8.66010E-09  7.84836E-09  9.01012E-09  9.08810E-09  1.15158E-08  1.10543E-08  1.13587E-08  9.79520E-09  9.46299E-09
   8.23184E-09  8.37363E-09  7.18765E-09  6.74735E-09  6.74483E-09  7.46410E-09  6.47673E-09  7.23502E-09  6.53150E-09  7.61824E-09
   9.67815E-09  1.25901E-08  1.34695E-08  1.46940E-08  1.28259E-08  1.24916E-08  1.08070E-08  1.10227E-08  9.71596E-09  1.01188E-08
   9.22117E-09  1.00039E-08  8.38391E-09  9.06297E-09  7.83126E-09  8.13405E-09  7.62558E-09  7.58699E-09  6.58909E-09  7.57349E-09
   6.27860E-09  6.97567E-09  6.00942E-09  7.14746E-09  6.17502E-09  7.07207E-09  6.07605E-09  6.42888E-09  5.67518E-09  6.43019E-09
   4.55605E-09  5.26592E-09  3.87707E-09  4.26334E-09  4.41118E-09  5.34464E-09  4.59435E-09  4.58190E-09  4.18828E-09  4.77517E-09
   3.90271E-09  4.80714E-09  3.41293E-09  4.08835E-09  2.92639E-09  3.25045E-09  1.63986E-09  2.97995E-09  1.62905E-09  3.03616E-09
   2.39571E-09  3.04156E-09  2.67994E-09  3.59137E-09  2.76811E-09  4.07344E-09  3.47748E-09  3.89930E-09  3.37957E-09  4.61936E-09
   4.43816E-09  5.93747E-09  5.96703E-09  7.19600E-09  6.18844E-09  6.33260E-09  6.33540E-09  7.58116E-09  6.92179E-09  7.74238E-09
   7.05490E-09  7.38326E-09  7.29647E-09  7.85919E-09  7.25922E-09  7.92510E-09  7.92692E-09  8.92027E-09  8.04560E-09  9.06105E-09
   8.50345E-09  9.99076E-09  9.47589E-09  1.04702E-08  9.86979E-09  1.06345E-08  1.01065E-08  1.11684E-08  1.10448E-08  1.15702E-08
   1.15359E-08  1.46159E-08  1.64185E-08  1.72753E-08  1.61728E-08  1.39690E-08  1.11938E-08  1.00672E-08  7.59127E-09  7.42936E-09
   5.38713E-09  5.09364E-09  3.63790E-09  3.08213E-09  1.93942E-09  9.06083E-10 -5.33301E-10 -7.09956E-10 -2.64287E-09 -2.63428E-09
  -4.46925E-09 -4.68040E-09 -7.05928E-09 -7.60560E-09 -9.13975E-09 -9.58778E-09 -1.19735E-08 -1.25021E-08 -1.49592E-08 -1.56396E-08
  -1.74514E-08 -1.74557E-08 -1.83901E-08 -1.74653E-08 -1.71989E-08 -1.54800E-08 -1.47335E-08 -1.24982E-08 -1.20377E-08 -1.03212E-08
  -1.03713E-08 -8.56685E-09 -8.72559E-09 -8.19175E-09 -9.17598E-09 -8.91136E-09 -9.39811E-09 -8.36907E-09 -8.32519E-09 -6.07731E-09
  -5.59898E-09 -2.88800E-09 -2.99575E-09 -8.83590E-10 -1.13037E-09 -6.83627E-10 -2.16433E-09 -2.32361E-09 -3.10598E-09 -2.30534E-09
  -2.45126E-09 -9.16395E-10 -1.11148E-09  3.82593E-10 -6.69969E-10 -9.19487E-10 -2.17476E-09 -2.02763E-09 -2.41405E-09 -2.06755E-09
  -1.99726E-09 -1.06667E-09 -1.04481E-09  4.27143E-10 -6.52978E-10  2.70422E-10 -2.68909E-10 -2.83815E-11 -6.17078E-10 -3.40817E-10
  -6.20957E-10  1.79229E-10 -1.73230E-10  1.40768E-09  8.02967E-10  1.64294E-09  1.59305E-09  1.81962E-09  1.12809E-09  2.04553E-09
   1.11068E-09  1.63003E-09  8.34486E-10  1.15386E-09  2.20869E-10  6.91209E-10  6.95150E-10  8.74773E-10  4.86339E-10  1.10526E-09
   1.22490E-10  9.24779E-10  2.40643E-10  1.09433E-09  7.99597E-10  9.74750E-10  4.73526E-10  9.78296E-10  2.98673E-10  7.48004E-10
   4.26586E-10  9.03928E-10 -2.45337E-10  9.66621E-11 -1.34221E-10  3.17221E-10  4.53625E-11 -4.66604E-11 -3.10237E-10 -4.66326E-11
  -5.81012E-11  2.81166E-10 -3.39946E-10  3.77331E-10 -4.95854E-10  1.60630E-10 -2.65729E-10  8.53641E-12 -8.45350E-10  5.17856E-10
  -6.75534E-10  2.42616E-11 -6.31554E-10  2.32625E-10  1.74656E-10  4.76499E-10 -3.61090E-10  4.56205E-10 -8.26319E-11 -1.19737E-10
  -1.28001E-10  8.03913E-10 -1.38924E-10  4.37290E-10  5.96426E-10  3.89113E-10  1.94297E-10  9.83087E-10  2.40523E-10  8.36315E-10
   6.72855E-10  9.92139E-10  6.06039E-10  7.81146E-10  5.60010E-10  9.67195E-10  8.24997E-10  7.54661E-10  9.24816E-10  1.25098E-09
   9.93175E-10  1.23259E-09  9.22707E-10  1.20727E-09  9.40536E-10  1.37237E-09  1.12986E-09  1.60641E-09  8.38995E-10  1.29387E-09
   1.18147E-09  1.43404E-09  1.21989E-09  1.92351E-09  1.63732E-09  1.45766E-09  1.60262E-09  1.77880E-09  1.69416E-09  2.22917E-09
   1.48920E-09  1.86564E-09  1.65284E-09  2.14500E-09  1.62974E-09  2.08384E-09  1.85257E-09  2.08131E-09  1.74607E-09  2.33950E-09
   1.67307E-09  2.35128E-09  1.75443E-09
 NY points of the fit to the data follow
   1.53550E-08  1.56562E-08  1.58456E-08  1.60318E-08  1.60834E-08  1.59775E-08  1.55831E-08  1.49670E-08  1.44613E-08  1.39152E-08
   1.35680E-08  1.34397E-08  1.34232E-08  1.35209E-08  1.37405E-08  1.40497E-08  1.43593E-08  1.46267E-08  1.47333E-08  1.46891E-08
   1.46459E-08  1.44542E-08  1.39932E-08  1.35071E-08  1.29923E-08  1.24017E-08  1.20029E-08  1.20741E-08  1.24241E-08  1.28974E-08
   1.30601E-08  1.30521E-08  1.32152E-08  1.31461E-08  1.28212E-08  1.28589E-08  1.30859E-08  1.31388E-08  1.28820E-08  1.24079E-08
   1.18543E-08  1.12945E-08  1.03859E-08  9.58058E-09  9.22410E-09  8.88468E-09  8.48901E-09  8.29327E-09  8.26295E-09  8.40903E-09
   8.58403E-09  8.67857E-09  8.67030E-09  8.50790E-09  8.23061E-09  8.00641E-09  7.87084E-09  7.89976E-09  7.89137E-09  7.75651E-09
   7.65560E-09  7.86398E-09  8.20116E-09  8.54142E-09  9.25989E-09  9.97233E-09  1.03343E-08  1.05580E-08  1.07404E-08  1.07285E-08
   1.04610E-08  9.87294E-09  9.11143E-09  8.43917E-09  7.69646E-09  6.92129E-09  6.82019E-09  7.60106E-09  8.49320E-09  9.43898E-09
   1.04016E-08  1.13272E-08  1.22948E-08  1.30353E-08  1.31643E-08  1.27731E-08  1.19068E-08  1.05056E-08  8.98743E-09  8.39008E-09
   8.19128E-09  8.10069E-09  7.89123E-09  7.45391E-09  7.12857E-09  6.86069E-09  6.40210E-09  6.04019E-09  5.85492E-09  5.75401E-09
   5.74476E-09  5.75268E-09  5.86264E-09  6.06894E-09  6.26422E-09  6.39502E-09  6.45296E-09  6.43202E-09  6.30996E-09  6.07353E-09
   5.77062E-09  5.53316E-09  5.31535E-09  5.02137E-09  4.83110E-09  4.76518E-09  4.74197E-09  4.73931E-09  4.74892E-09  4.76686E-09
   4.79096E-09  4.81990E-09  4.85275E-09  4.88883E-09  4.92764E-09  4.96878E-09  5.01189E-09  5.05668E-09  5.10290E-09  5.15030E-09
   5.19865E-09  5.24776E-09  5.29743E-09  5.34746E-09  5.39768E-09  5.44792E-09  5.49799E-09  5.54775E-09  5.59704E-09  5.64569E-09
   5.69351E-09  5.73998E-09  5.78435E-09  5.82590E-09  5.86393E-09  5.89773E-09  5.92663E-09  5.94994E-09  5.96699E-09  5.97713E-09
   5.97975E-09  5.97427E-09  5.96014E-09  5.93688E-09  5.90408E-09  5.86146E-09  5.80889E-09  5.74648E-09  5.67473E-09  5.59472E-09
   5.50855E-09  5.42014E-09  5.33702E-09  5.27457E-09  5.26922E-09  5.43079E-09  6.24602E-09  8.27448E-09  1.06740E-08  1.27305E-08
   1.45253E-08  1.61598E-08  1.73607E-08  1.76717E-08  1.67752E-08  1.45749E-08  1.11162E-08  6.77351E-09  2.84319E-09  7.66830E-10
  -1.82917E-10 -8.44279E-10 -1.39718E-09 -1.89608E-09 -2.36232E-09 -2.80546E-09 -3.22989E-09 -3.63752E-09 -4.02891E-09 -4.40387E-09
  -4.76173E-09 -5.10156E-09 -5.42217E-09 -5.72228E-09 -6.00053E-09 -6.25549E-09 -6.48613E-09 -6.69289E-09 -6.87649E-09 -7.03763E-09
  -7.17698E-09 -7.29521E-09 -7.39298E-09 -7.47093E-09 -7.52973E-09 -7.56998E-09 -7.59236E-09 -7.59748E-09 -7.58596E-09 -7.55845E-09
  -7.51558E-09 -7.45795E-09 -7.38620E-09 -7.30096E-09 -7.20284E-09 -7.09248E-09 -6.97047E-09 -6.83745E-09 -6.69404E-09 -6.54085E-09
  -6.37851E-09 -6.20762E-09 -6.02882E-09 -5.84272E-09 -5.64995E-09 -5.45112E-09 -5.24687E-09 -5.03783E-09 -4.82463E-09 -4.60790E-09
  -4.38827E-09 -4.16637E-09 -3.94283E-09 -3.71829E-09 -3.49334E-09 -3.26866E-09 -3.04484E-09 -2.82254E-09 -2.60234E-09 -2.38494E-09
  -2.17092E-09 -1.96091E-09 -1.75556E-09 -1.55550E-09 -1.36132E-09 -1.17368E-09 -9.93203E-10 -8.20509E-10 -6.56242E-10 -5.01036E-10
  -3.55469E-10 -2.20235E-10 -9.54921E-11  1.90826E-11  1.23852E-10  2.19182E-10  3.05460E-10  3.83043E-10  4.52315E-10  5.13642E-10
   5.67388E-10  6.13942E-10  6.53656E-10  6.86918E-10  7.14084E-10  7.35534E-10  7.51662E-10  7.62788E-10  7.69312E-10  7.71613E-10
   7.70062E-10  7.65008E-10  7.56850E-10  7.45949E-10  7.32654E-10  7.17385E-10  7.00462E-10  6.82283E-10  6.63209E-10  6.43621E-10
   6.23727E-10  6.03631E-10  5.83426E-10  5.63203E-10  5.43058E-10  5.23084E-10  5.03375E-10  4.84022E-10  4.65120E-10  4.46764E-10
   4.29044E-10  4.12057E-10  3.95893E-10  3.80648E-10  3.66415E-10  3.53286E-10  3.41355E-10  3.30715E-10  3.21461E-10  3.13683E-10
   3.07479E-10  3.02939E-10  3.00156E-10  2.99226E-10  3.00240E-10  3.03292E-10  3.08477E-10  3.15874E-10  3.25469E-10  3.37180E-10
   3.50926E-10  3.66626E-10  3.84199E-10  4.03564E-10  4.24640E-10  4.47346E-10  4.71600E-10  4.97323E-10  5.24433E-10  5.52848E-10
   5.82489E-10  6.13273E-10  6.45120E-10  6.77950E-10  7.11681E-10  7.46231E-10  7.81521E-10  8.17469E-10  8.53994E-10  8.91016E-10
   9.28453E-10  9.66225E-10  1.00425E-09  1.04245E-09  1.08074E-09  1.11905E-09  1.15735E-09  1.19565E-09  1.23394E-09  1.27222E-09
   1.31049E-09  1.34874E-09  1.38698E-09  1.42519E-09  1.46338E-09  1.50155E-09  1.53969E-09  1.57780E-09  1.61587E-09  1.65391E-09
   1.69192E-09  1.72988E-09  1.76780E-09  1.80568E-09  1.84351E-09  1.88129E-09  1.91902E-09  1.95670E-09  1.99432E-09  2.03188E-09
   2.06938E-09  2.10681E-09  2.14418E-09
 NY background values follow
     7.804E-09    7.727E-09    7.651E-09    7.574E-09    7.498E-09    7.422E-09    7.346E-09    7.269E-09    7.193E-09    7.117E-09
     7.042E-09    6.966E-09    6.890E-09    6.815E-09    6.740E-09    6.665E-09    6.590E-09    6.516E-09    6.441E-09    6.367E-09
     6.293E-09    6.220E-09    6.146E-09    6.073E-09    6.001E-09    5.928E-09    5.856E-09    5.785E-09    5.713E-09    5.643E-09
     5.572E-09    5.502E-09    5.433E-09    5.364E-09    5.296E-09    5.229E-09    5.163E-09    5.097E-09    5.033E-09    4.970E-09
     4.907E-09    4.847E-09    4.787E-09    4.729E-09    4.672E-09    4.616E-09    4.562E-09    4.510E-09    4.460E-09    4.411E-09
     4.364E-09    4.319E-09    4.276E-09    4.235E-09    4.196E-09    4.159E-09    4.124E-09    4.092E-09    4.062E-09    4.034E-09
     4.008E-09    3.984E-09    3.961E-09    3.940E-09    3.921E-09    3.903E-09    3.886E-09    3.871E-09    3.856E-09    3.843E-09
     3.831E-09    3.819E-09    3.808E-09    3.798E-09    3.789E-09    3.779E-09    3.770E-09    3.761E-09    3.752E-09    3.744E-09
     3.735E-09    3.726E-09    3.716E-09    3.706E-09    3.696E-09    3.685E-09    3.673E-09    3.662E-09    3.650E-09    3.638E-09
     3.626E-09    3.615E-09    3.604E-09    3.593E-09    3.584E-09    3.574E-09    3.566E-09    3.559E-09    3.553E-09    3.548E-09
     3.545E-09    3.543E-09    3.543E-09    3.545E-09    3.549E-09    3.554E-09    3.562E-09    3.573E-09    3.586E-09    3.601E-09
     3.619E-09    3.640E-09    3.664E-09    3.691E-09    3.721E-09    3.753E-09    3.788E-09    3.826E-09    3.865E-09    3.907E-09
     3.950E-09    3.995E-09    4.042E-09    4.090E-09    4.139E-09    4.190E-09    4.241E-09    4.294E-09    4.347E-09    4.400E-09
     4.454E-09    4.508E-09    4.562E-09    4.616E-09    4.670E-09    4.724E-09    4.776E-09    4.829E-09    4.880E-09    4.930E-09
     4.979E-09    5.027E-09    5.072E-09    5.113E-09    5.151E-09    5.184E-09    5.211E-09    5.232E-09    5.247E-09    5.253E-09
     5.252E-09    5.241E-09    5.220E-09    5.188E-09    5.146E-09    5.091E-09    5.023E-09    4.942E-09    4.846E-09    4.735E-09
     4.609E-09    4.466E-09    4.306E-09    4.127E-09    3.930E-09    3.714E-09    3.477E-09    3.219E-09    2.940E-09    2.641E-09
     2.323E-09    1.988E-09    1.637E-09    1.274E-09    8.976E-10    5.112E-10    1.161E-10   -2.861E-10   -6.937E-10   -1.105E-09
    -1.519E-09   -1.933E-09   -2.346E-09   -2.757E-09   -3.163E-09   -3.563E-09   -3.955E-09   -4.338E-09   -4.710E-09   -5.069E-09
    -5.414E-09   -5.744E-09   -6.056E-09   -6.348E-09   -6.620E-09   -6.870E-09   -7.095E-09   -7.298E-09   -7.478E-09   -7.636E-09
    -7.772E-09   -7.887E-09   -7.983E-09   -8.058E-09   -8.115E-09   -8.154E-09   -8.174E-09   -8.178E-09   -8.165E-09   -8.136E-09
    -8.092E-09   -8.033E-09   -7.960E-09   -7.874E-09   -7.774E-09   -7.663E-09   -7.540E-09   -7.406E-09   -7.262E-09   -7.108E-09
    -6.945E-09   -6.773E-09   -6.594E-09   -6.407E-09   -6.213E-09   -6.014E-09   -5.809E-09   -5.600E-09   -5.386E-09   -5.168E-09
    -4.948E-09   -4.726E-09   -4.502E-09   -4.277E-09   -4.051E-09   -3.826E-09   -3.602E-09   -3.379E-09   -3.158E-09   -2.941E-09
    -2.726E-09   -2.516E-09   -2.310E-09   -2.109E-09   -1.915E-09   -1.727E-09   -1.546E-09   -1.373E-09   -1.208E-09   -1.053E-09
    -9.068E-10   -7.712E-10   -6.461E-10   -5.312E-10   -4.261E-10   -3.304E-10   -2.438E-10   -1.659E-10   -9.630E-11   -3.465E-11
     1.941E-11    6.628E-11    1.063E-10    1.399E-10    1.673E-10    1.891E-10    2.055E-10    2.169E-10    2.237E-10    2.263E-10
     2.251E-10    2.203E-10    2.124E-10    2.018E-10    1.888E-10    1.738E-10    1.571E-10    1.392E-10    1.204E-10    1.011E-10
     8.145E-11    6.162E-11    4.167E-11    2.171E-11    1.823E-12   -1.790E-11   -3.735E-11   -5.645E-11   -7.510E-11   -9.321E-11
    -1.107E-10   -1.274E-10   -1.433E-10   -1.583E-10   -1.723E-10   -1.852E-10   -1.969E-10   -2.073E-10   -2.163E-10   -2.239E-10
    -2.298E-10   -2.341E-10   -2.367E-10   -2.374E-10   -2.361E-10   -2.328E-10   -2.274E-10   -2.198E-10   -2.100E-10   -1.980E-10
    -1.840E-10   -1.681E-10   -1.503E-10   -1.307E-10   -1.094E-10   -8.646E-11   -6.198E-11   -3.602E-11   -8.686E-12    1.996E-11
     4.983E-11    8.084E-11    1.129E-10    1.460E-10    1.799E-10    2.147E-10    2.502E-10    2.864E-10    3.232E-10    3.604E-10
     3.981E-10    4.361E-10    4.743E-10    5.128E-10    5.513E-10    5.898E-10    6.283E-10    6.669E-10    7.054E-10    7.439E-10
     7.824E-10    8.209E-10    8.594E-10    8.978E-10    9.362E-10    9.746E-10    1.013E-09    1.051E-09    1.090E-09    1.128E-09
     1.166E-09    1.204E-09    1.243E-09    1.281E-09    1.319E-09    1.357E-09    1.395E-09    1.433E-09    1.470E-09    1.508E-09
     1.546E-09    1.584E-09    1.621E-09
 Ala      Conc. = 4.03E-10
   8.09887E-09  8.04847E-09  7.99035E-09  7.92641E-09  7.85558E-09  7.77660E-09  7.67415E-09  7.55938E-09  7.46774E-09  7.35911E-09
   7.22592E-09  7.12340E-09  7.02784E-09  6.92257E-09  6.82730E-09  6.73954E-09  6.65591E-09  6.57488E-09  6.49562E-09  6.41767E-09
   6.34073E-09  6.26463E-09  6.18926E-09  6.11452E-09  6.04033E-09  5.96671E-09  5.89359E-09  5.82095E-09  5.74880E-09  5.67715E-09
   5.60604E-09  5.53552E-09  5.46565E-09  5.39651E-09  5.32813E-09  5.26060E-09  5.19398E-09  5.12833E-09  5.06371E-09  5.00018E-09
   4.93783E-09  4.87670E-09  4.81688E-09  4.75842E-09  4.70142E-09  4.64588E-09  4.59194E-09  4.53965E-09  4.48904E-09  4.44021E-09
   4.39324E-09  4.34816E-09  4.30507E-09  4.26403E-09  4.22517E-09  4.18843E-09  4.15392E-09  4.12171E-09  4.09167E-09  4.06369E-09
   4.03767E-09  4.01352E-09  3.99113E-09  3.97038E-09  3.95119E-09  3.93347E-09  3.91708E-09  3.90194E-09  3.88794E-09  3.87500E-09
   3.86299E-09  3.85183E-09  3.84141E-09  3.83164E-09  3.82241E-09  3.81364E-09  3.80523E-09  3.79706E-09  3.78906E-09  3.78115E-09
   3.77320E-09  3.76517E-09  3.75694E-09  3.74847E-09  3.73965E-09  3.73058E-09  3.72142E-09  3.71236E-09  3.70365E-09  3.69552E-09
   3.68832E-09  3.68239E-09  3.67826E-09  3.67660E-09  3.67846E-09  3.68549E-09  3.70073E-09  3.73057E-09  3.79221E-09  3.94940E-09
   4.15604E-09  4.31689E-09  4.54073E-09  4.83546E-09  5.10168E-09  5.29084E-09  5.39747E-09  5.41765E-09  5.33075E-09  5.12472E-09
   4.84860E-09  4.63492E-09  4.43828E-09  4.16318E-09  3.98976E-09  3.93890E-09  3.92933E-09  3.93912E-09  3.96009E-09  3.98843E-09
   4.02206E-09  4.05972E-09  4.10059E-09  4.14405E-09  4.18967E-09  4.23710E-09  4.28601E-09  4.33616E-09  4.38731E-09  4.43925E-09
   4.49177E-09  4.54470E-09  4.59784E-09  4.65101E-09  4.70407E-09  4.75681E-09  4.80910E-09  4.86077E-09  4.91166E-09  4.96160E-09
   5.01037E-09  5.05745E-09  5.10208E-09  5.14351E-09  5.18102E-09  5.21386E-09  5.24129E-09  5.26258E-09  5.27698E-09  5.28377E-09
   5.28221E-09  5.27158E-09  5.25114E-09  5.22017E-09  5.17795E-09  5.12378E-09  5.05695E-09  4.97678E-09  4.88261E-09  4.77382E-09
   4.64986E-09  4.51031E-09  4.35505E-09  4.18452E-09  4.00100E-09  3.81373E-09  3.67338E-09  3.56701E-09  3.42473E-09  3.24246E-09
   3.03558E-09  2.80017E-09  2.51270E-09  2.15132E-09  1.70805E-09  1.18382E-09  5.86950E-10 -4.16995E-11 -5.87799E-10 -1.03771E-09
  -1.46775E-09 -1.89076E-09 -2.30925E-09 -2.72319E-09 -3.13165E-09 -3.53343E-09 -3.92709E-09 -4.31114E-09 -4.68400E-09 -5.04411E-09
  -5.38986E-09 -5.71965E-09 -6.03186E-09 -6.32483E-09 -6.59695E-09 -6.84661E-09 -7.07263E-09 -7.27532E-09 -7.45533E-09 -7.61326E-09
  -7.74973E-09 -7.86536E-09 -7.96077E-09 -8.03657E-09 -8.09340E-09 -8.13185E-09 -8.15255E-09 -8.15612E-09 -8.14317E-09 -8.11431E-09
  -8.07018E-09 -8.01137E-09 -7.93850E-09 -7.85222E-09 -7.75310E-09 -7.64179E-09 -7.51889E-09 -7.38501E-09 -7.24079E-09 -7.08681E-09
  -6.92372E-09 -6.75211E-09 -6.57262E-09 -6.38585E-09 -6.19243E-09 -5.99298E-09 -5.78813E-09 -5.57851E-09 -5.36474E-09 -5.14746E-09
  -4.92731E-09 -4.70488E-09 -4.48084E-09 -4.25580E-09 -4.03038E-09 -3.80523E-09 -3.58095E-09 -3.35821E-09 -3.13757E-09 -2.91974E-09
  -2.70531E-09 -2.49489E-09 -2.28913E-09 -2.08867E-09 -1.89411E-09 -1.70609E-09 -1.52523E-09 -1.35217E-09 -1.18754E-09 -1.03197E-09
  -8.86054E-10 -7.50474E-10 -6.25389E-10 -5.10477E-10 -4.05375E-10 -3.09717E-10 -2.23115E-10 -1.45212E-10 -7.56241E-11 -1.39853E-11
   4.00689E-11  8.69284E-11  1.26944E-10  1.60504E-10  1.87966E-10  2.09707E-10  2.26124E-10  2.37536E-10  2.44344E-10  2.46926E-10
   2.45653E-10  2.40875E-10  2.32991E-10  2.22362E-10  2.09336E-10  1.94334E-10  1.77676E-10  1.59760E-10  1.40947E-10  1.21619E-10
   1.01983E-10  8.21425E-11  6.21907E-11  4.22202E-11  2.23270E-11  2.60186E-12 -1.68596E-11 -3.59656E-11 -5.46223E-11 -7.27350E-11
  -9.02116E-11 -1.06958E-10 -1.22881E-10 -1.37888E-10 -1.51883E-10 -1.64776E-10 -1.76471E-10 -1.86876E-10 -1.95896E-10 -2.03441E-10
  -2.09413E-10 -2.13722E-10 -2.16274E-10 -2.16974E-10 -2.15730E-10 -2.12450E-10 -2.07038E-10 -1.99413E-10 -1.89591E-10 -1.77654E-10
  -1.63682E-10 -1.47757E-10 -1.29959E-10 -1.10370E-10 -8.90699E-11 -6.61405E-11 -4.16624E-11 -1.57168E-11  1.16157E-11  4.02533E-11
   7.01164E-11  1.01123E-10  1.33192E-10  1.66244E-10  2.00196E-10  2.34968E-10  2.70479E-10  3.06649E-10  3.43396E-10  3.80639E-10
   4.18298E-10  4.56292E-10  4.94539E-10  5.32960E-10  5.71472E-10  6.10003E-10  6.48532E-10  6.87054E-10  7.25569E-10  7.64074E-10
   8.02565E-10  8.41041E-10  8.79500E-10  9.17939E-10  9.56355E-10  9.94748E-10  1.03311E-09  1.07145E-09  1.10975E-09  1.14802E-09
   1.18625E-09  1.22444E-09  1.26260E-09  1.30070E-09  1.33877E-09  1.37678E-09  1.41474E-09  1.45265E-09  1.49050E-09  1.52830E-09
   1.56603E-09  1.60370E-09  1.64131E-09
 Asp      Conc. = 1.10E-09
   9.18819E-09  8.98048E-09  8.74292E-09  8.52748E-09  8.27846E-09  8.03024E-09  7.79862E-09  7.56563E-09  7.40939E-09  7.28956E-09
   7.18649E-09  7.09282E-09  7.00523E-09  6.92189E-09  6.84128E-09  6.76173E-09  6.68338E-09  6.60616E-09  6.52995E-09  6.45464E-09
   6.38020E-09  6.30657E-09  6.23378E-09  6.16182E-09  6.09070E-09  6.02055E-09  5.95139E-09  5.88336E-09  5.81662E-09  5.75143E-09
   5.68815E-09  5.62726E-09  5.56956E-09  5.51621E-09  5.46927E-09  5.43290E-09  5.41747E-09  5.42781E-09  5.44788E-09  5.46612E-09
   5.46766E-09  5.45904E-09  5.45327E-09  5.49506E-09  5.54193E-09  5.67686E-09  5.79822E-09  5.86075E-09  5.93697E-09  6.10655E-09
   6.25949E-09  6.32009E-09  6.26343E-09  6.06732E-09  5.75297E-09  5.45268E-09  5.17384E-09  5.06718E-09  4.97114E-09  4.80761E-09
   4.63796E-09  4.55571E-09  4.48372E-09  4.41793E-09  4.38420E-09  4.32657E-09  4.22859E-09  4.14994E-09  4.09542E-09  4.05385E-09
   4.02026E-09  3.99211E-09  3.96790E-09  3.94665E-09  3.92768E-09  3.91051E-09  3.89473E-09  3.88002E-09  3.86613E-09  3.85283E-09
   3.83989E-09  3.82718E-09  3.81448E-09  3.80169E-09  3.78860E-09  3.77525E-09  3.76171E-09  3.74807E-09  3.73446E-09  3.72098E-09
   3.70776E-09  3.69490E-09  3.68253E-09  3.67077E-09  3.65974E-09  3.64955E-09  3.64034E-09  3.63223E-09  3.62535E-09  3.61983E-09
   3.61577E-09  3.61332E-09  3.61261E-09  3.61376E-09  3.61689E-09  3.62214E-09  3.62964E-09  3.63950E-09  3.65187E-09  3.66688E-09
   3.68465E-09  3.70531E-09  3.72896E-09  3.75560E-09  3.78507E-09  3.81719E-09  3.85184E-09  3.88886E-09  3.92808E-09  3.96936E-09
   4.01254E-09  4.05748E-09  4.10402E-09  4.15200E-09  4.20128E-09  4.25170E-09  4.30312E-09  4.35537E-09  4.40831E-09  4.46179E-09
   4.51564E-09  4.56974E-09  4.62391E-09  4.67800E-09  4.73188E-09  4.78538E-09  4.83836E-09  4.89067E-09  4.94216E-09  4.99267E-09
   5.04199E-09  5.08960E-09  5.13476E-09  5.17673E-09  5.21477E-09  5.24815E-09  5.27615E-09  5.29803E-09  5.31307E-09  5.32054E-09
   5.31973E-09  5.30991E-09  5.29038E-09  5.26043E-09  5.21938E-09  5.16654E-09  5.10126E-09  5.02292E-09  4.93095E-09  4.82482E-09
   4.70417E-09  4.56880E-09  4.41895E-09  4.25559E-09  4.08157E-09  3.90505E-09  3.75540E-09  3.78292E-09  3.91779E-09  3.98770E-09
   3.98814E-09  3.95610E-09  3.87227E-09  3.66805E-09  3.28351E-09  2.69706E-09  1.90935E-09  9.43596E-10 -8.04498E-11 -8.39575E-10
  -1.35274E-09 -1.80991E-09 -2.24618E-09 -2.67068E-09 -3.08597E-09 -3.49242E-09 -3.88941E-09 -4.27593E-09 -4.65065E-09 -5.01220E-09
  -5.35910E-09 -5.68980E-09 -6.00274E-09 -6.29632E-09 -6.56895E-09 -6.81903E-09 -7.04540E-09 -7.24840E-09 -7.42866E-09 -7.58681E-09
  -7.72348E-09 -7.83927E-09 -7.93483E-09 -8.01077E-09 -8.06770E-09 -8.10625E-09 -8.12705E-09 -8.13070E-09 -8.11782E-09 -8.08903E-09
  -8.04496E-09 -7.98621E-09 -7.91339E-09 -7.82715E-09 -7.72808E-09 -7.61680E-09 -7.49394E-09 -7.36009E-09 -7.21590E-09 -7.06195E-09
  -6.89889E-09 -6.72731E-09 -6.54784E-09 -6.36109E-09 -6.16769E-09 -5.96827E-09 -5.76344E-09 -5.55383E-09 -5.34008E-09 -5.12282E-09
