 LCModel (Version 6.3-1R) Copyright: S.W. Provencher.          Ref.: Magn. Reson. Med. 30:672-679 (1993).                
 onepulse 28x23_ftSpec_smooth_lcm
 26 lines in following concentration table = NCONC+1
    Conc.  %SD   /Cr    Metabolite                                         
 1.01E-10 556%   0.000 Ala                                                 
    0.000 999%   0.000 Asp                                                 
    0.000 999%   0.000 Cr                                                  
    0.000 999%   0.000 GABA                                                
    0.000 999%   0.000 Glc                                                 
    0.000 999%   0.000 Gln                                                 
    0.000 999%   0.000 Glu                                                 
    0.000 999%   0.000 Glyc                                                
    0.000 999%   0.000 GPC                                                 
    0.000 999%   0.000 GSH                                                 
    0.000 999%   0.000 Ins                                                 
    0.000 999%   0.000 Lac                                                 
    0.000 999%   0.000 NAAG                                                
    0.000 999%   0.000 NAA                                                 
 5.59E-11 316%   0.000 PCh                                                 
    0.000 999%   0.000 PCr                                                 
    0.000 999%   0.000 PE                                                  
 5.78E-11 447%   0.000 Scyllo                                              
    0.000 999%   0.000 Ser                                                 
    0.000 999%   0.000 Tau                                                 
 5.59E-11 316%   0.000 GPC+PCh                                             
    0.000 999%   0.000 NAA+NAAG                                            
    0.000 999%   0.000 Ins+Glyc                                            
    0.000 999%   0.000 Cr+PCr                                              
    0.000 999%   0.000 Glu+Gln                                             
   6 lines in following misc. output table
  FWHM = 0.101 ppm    S/N =   0                                            
  Data shift = 0.224 ppm                                                   
  Ph:  68 deg      -5.6 deg/ppm                                            
  alphaB,S = 7.1E-01,   6.4E+00                                            
    9 spline knots.   Ns = 5(1)                                            
  ( 4) 2 infls.   ( 3) 1 extrs.                                            
  363 points on ppm-axis = NY
      4.250000     4.238821     4.227641     4.216462     4.205282     4.194103     4.182923     4.171744     4.160564     4.149385
      4.138206     4.127026     4.115847     4.104667     4.093488     4.082308     4.071129     4.059949     4.048770     4.037591
      4.026411     4.015232     4.004052     3.992873     3.981693     3.970514     3.959334     3.948155     3.936975     3.925796
      3.914617     3.903437     3.892258     3.881078     3.869899     3.858719     3.847540     3.836360     3.825181     3.814002
      3.802822     3.791643     3.780463     3.769284     3.758104     3.746925     3.735745     3.724566     3.713387     3.702207
      3.691028     3.679848     3.668669     3.657489     3.646310     3.635130     3.623951     3.612772     3.601592     3.590413
      3.579233     3.568054     3.556874     3.545695     3.534515     3.523336     3.512156     3.500977     3.489798     3.478618
      3.467439     3.456259     3.445080     3.433900     3.422721     3.411541     3.400362     3.389183     3.378003     3.366824
      3.355644     3.344465     3.333285     3.322106     3.310926     3.299747     3.288568     3.277388     3.266209     3.255029
      3.243850     3.232670     3.221491     3.210311     3.199132     3.187953     3.176773     3.165594     3.154414     3.143235
      3.132055     3.120876     3.109696     3.098517     3.087337     3.076158     3.064979     3.053799     3.042620     3.031440
      3.020261     3.009081     2.997902     2.986722     2.975543     2.964364     2.953184     2.942005     2.930825     2.919646
      2.908466     2.897287     2.886107     2.874928     2.863749     2.852569     2.841390     2.830210     2.819031     2.807851
      2.796672     2.785492     2.774313     2.763134     2.751954     2.740775     2.729595     2.718416     2.707236     2.696057
      2.684877     2.673698     2.662519     2.651339     2.640160     2.628980     2.617801     2.606621     2.595442     2.584262
      2.573083     2.561903     2.550724     2.539545     2.528365     2.517186     2.506006     2.494827     2.483647     2.472468
      2.461288     2.450109     2.438930     2.427750     2.416571     2.405391     2.394212     2.383032     2.371853     2.360673
      2.349494     2.338315     2.327135     2.315956     2.304776     2.293597     2.282417     2.271238     2.260058     2.248879
      2.237700     2.226520     2.215341     2.204161     2.192982     2.181802     2.170623     2.159443     2.148264     2.137084
      2.125905     2.114726     2.103546     2.092367     2.081187     2.070008     2.058828     2.047649     2.036469     2.025290
      2.014111     2.002931     1.991752     1.980572     1.969393     1.958213     1.947034     1.935854     1.924675     1.913496
      1.902316     1.891137     1.879957     1.868778     1.857598     1.846419     1.835239     1.824060     1.812881     1.801701
      1.790522     1.779342     1.768163     1.756983     1.745804     1.734624     1.723445     1.712265     1.701086     1.689907
      1.678727     1.667548     1.656368     1.645189     1.634009     1.622830     1.611650     1.600471     1.589292     1.578112
      1.566933     1.555753     1.544574     1.533394     1.522215     1.511035     1.499856     1.488677     1.477497     1.466318
      1.455138     1.443959     1.432779     1.421600     1.410420     1.399241     1.388062     1.376882     1.365703     1.354523
      1.343344     1.332164     1.320985     1.309805     1.298626     1.287446     1.276267     1.265088     1.253908     1.242729
      1.231549     1.220370     1.209190     1.198011     1.186831     1.175652     1.164473     1.153293     1.142114     1.130934
      1.119755     1.108575     1.097396     1.086216     1.075037     1.063858     1.052678     1.041499     1.030319     1.019140
      1.007960     0.996781     0.985601     0.974422     0.963243     0.952063     0.940884     0.929704     0.918525     0.907345
      0.896166     0.884986     0.873807     0.862628     0.851448     0.840269     0.829089     0.817910     0.806730     0.795551
      0.784371     0.773192     0.762012     0.750833     0.739654     0.728474     0.717295     0.706115     0.694936     0.683756
      0.672577     0.661397     0.650218     0.639039     0.627859     0.616680     0.605500     0.594321     0.583141     0.571962
      0.560782     0.549603     0.538424     0.527244     0.516065     0.504885     0.493706     0.482526     0.471347     0.460167
      0.448988     0.437809     0.426629     0.415450     0.404270     0.393091     0.381911     0.370732     0.359552     0.348373
      0.337193     0.326014     0.314835     0.303655     0.292476     0.281296     0.270117     0.258937     0.247758     0.236578
      0.225399     0.214220     0.203040
 NY phased data points follow
   8.28306E-09  7.88542E-09  8.14146E-09  7.56277E-09  7.81306E-09  6.85280E-09  6.86928E-09  5.71879E-09  6.13666E-09  6.03969E-09
   7.06697E-09  7.46716E-09  9.24623E-09  1.14277E-08  1.29312E-08  1.28082E-08  1.31090E-08  1.25256E-08  1.24888E-08  1.19153E-08
   1.19657E-08  1.13547E-08  1.15908E-08  1.13631E-08  1.12253E-08  1.09435E-08  1.19119E-08  1.18268E-08  1.25092E-08  1.23829E-08
   1.27047E-08  1.20603E-08  1.24595E-08  1.19427E-08  1.18299E-08  1.16004E-08  1.13703E-08  1.16803E-08  1.22336E-08  1.14741E-08
   1.16399E-08  1.11055E-08  1.11994E-08  1.14828E-08  1.22929E-08  1.30433E-08  1.38969E-08  1.40736E-08  1.41194E-08  1.39791E-08
   1.29635E-08  1.26485E-08  1.24235E-08  1.22534E-08  1.23113E-08  1.16840E-08  1.15156E-08  1.10993E-08  1.06363E-08  1.02833E-08
   9.23271E-09  9.33991E-09  8.66405E-09  9.04373E-09  8.91842E-09  8.73538E-09  8.53446E-09  7.42934E-09  7.81278E-09  6.78412E-09
   6.85508E-09  6.72904E-09  6.50253E-09  6.14427E-09  7.04136E-09  7.29883E-09  9.29858E-09  9.82684E-09  1.12402E-08  1.04748E-08
   1.06098E-08  9.97849E-09  1.00450E-08  8.52480E-09  8.53991E-09  7.70607E-09  6.89465E-09  5.90636E-09  5.85599E-09  4.49408E-09
   4.78845E-09  5.89795E-09  8.30374E-09  9.73543E-09  1.14420E-08  1.16876E-08  1.28293E-08  1.26963E-08  1.24651E-08  1.27491E-08
   1.21688E-08  1.30678E-08  1.30455E-08  1.29133E-08  1.30503E-08  1.26970E-08  1.23236E-08  1.22602E-08  1.18050E-08  1.17859E-08
   1.11515E-08  1.12739E-08  1.08139E-08  1.06843E-08  1.06272E-08  1.09805E-08  1.11777E-08  1.11075E-08  1.07582E-08  1.12686E-08
   1.09942E-08  1.05539E-08  1.05149E-08  9.51391E-09  9.33359E-09  9.15884E-09  8.91058E-09  9.66956E-09  8.84362E-09  9.27928E-09
   8.66568E-09  9.20672E-09  8.63301E-09  8.92948E-09  8.38152E-09  8.58085E-09  7.92793E-09  7.56256E-09  6.60693E-09  6.25190E-09
   6.62547E-09  6.35444E-09  5.92544E-09  6.16963E-09  5.90154E-09  5.86767E-09  6.06552E-09  5.45955E-09  5.07789E-09  4.80676E-09
   4.56889E-09  4.14644E-09  4.15722E-09  5.12758E-09  5.06881E-09  4.42164E-09  4.49746E-09  3.89665E-09  4.70762E-09  4.34538E-09
   5.30263E-09  4.47837E-09  4.48956E-09  4.93076E-09  5.10018E-09  5.09392E-09  4.95124E-09  5.33395E-09  5.38137E-09  5.48884E-09
   5.53771E-09  4.98692E-09  5.41802E-09  5.39781E-09  5.82495E-09  5.42905E-09  5.57801E-09  5.44099E-09  5.52467E-09  6.05083E-09
   6.11283E-09  6.43856E-09  8.73226E-09  1.10153E-08  1.43780E-08  1.73998E-08  1.84622E-08  1.99204E-08  2.00560E-08  2.07505E-08
   2.12957E-08  2.14925E-08  2.21979E-08  2.17532E-08  2.24845E-08  2.31515E-08  2.29810E-08  2.36176E-08  2.40099E-08  2.44963E-08
   2.50260E-08  2.59058E-08  2.64353E-08  2.64821E-08  2.70834E-08  2.79639E-08  2.87984E-08  2.83095E-08  2.89791E-08  2.85338E-08
   2.80691E-08  2.69260E-08  2.53392E-08  2.36815E-08  2.14176E-08  1.84322E-08  1.61378E-08  1.24147E-08  9.35720E-09  5.45799E-09
   2.00081E-09 -2.61276E-09 -5.30463E-09 -8.44452E-09 -1.06508E-08 -1.33607E-08 -1.44579E-08 -1.49027E-08 -1.47646E-08 -1.40095E-08
  -1.30005E-08 -1.09296E-08 -8.81037E-09 -8.21332E-09 -6.15621E-09 -4.85404E-09 -3.51080E-09 -3.64312E-09 -2.90436E-09 -3.13854E-09
  -2.88151E-09 -2.67131E-09 -2.95185E-09 -2.79423E-09 -2.01154E-09 -1.84895E-09 -1.60798E-09 -1.99266E-09 -1.23560E-09 -1.54509E-09
  -1.64718E-09 -1.85851E-09 -2.09922E-09 -2.36385E-09 -1.84178E-09 -2.17977E-09 -1.65188E-09 -1.45541E-09 -7.05017E-10 -7.64721E-10
  -9.52547E-10 -1.35083E-09 -1.43163E-09 -1.51585E-09 -1.46174E-09 -2.25243E-09 -1.95447E-09 -1.55674E-09 -1.48821E-09 -1.61857E-09
  -8.08159E-10 -6.11430E-10 -4.54872E-10 -6.09921E-10 -4.61365E-10 -7.28225E-10 -1.05870E-09 -1.05264E-09 -1.18226E-09 -1.50172E-09
  -1.61442E-09 -1.63459E-09 -1.20569E-09 -1.93422E-09 -1.68052E-09 -1.72872E-09 -1.42031E-09 -1.30144E-09 -1.43397E-09 -1.67479E-09
  -1.44408E-09 -1.18935E-09 -8.00409E-10 -9.56735E-10 -1.20623E-09 -1.06298E-09 -1.12412E-09 -6.42681E-10 -8.46854E-10 -5.13715E-10
  -1.77763E-09 -8.95730E-10 -1.20117E-09 -8.15352E-10 -1.10882E-09 -1.01259E-09 -1.13051E-09 -4.41866E-10 -1.33253E-09 -4.61854E-10
  -1.02449E-09 -6.50375E-10 -1.08161E-09 -1.09853E-09 -1.27436E-09 -1.35606E-09 -1.10342E-09 -1.25818E-09 -9.88916E-10 -1.19316E-09
  -1.54383E-09 -1.16927E-09 -1.81887E-09 -1.89871E-09 -1.53489E-09 -1.65850E-09 -1.94693E-09 -1.68847E-09 -1.85025E-09 -1.93951E-09
  -2.43754E-09 -1.74248E-09 -2.08165E-09 -1.42787E-09 -2.54465E-09 -2.13327E-09 -2.20744E-09 -2.02947E-09 -2.55273E-09 -2.12543E-09
  -2.67493E-09 -2.60600E-09 -2.49903E-09 -2.25029E-09 -2.55840E-09 -2.73138E-09 -2.59713E-09 -2.58748E-09 -2.55008E-09 -3.12281E-09
  -2.57920E-09 -3.07444E-09 -2.57014E-09 -2.82982E-09 -3.05698E-09 -2.87224E-09 -2.99129E-09 -2.72489E-09 -3.04443E-09 -3.34618E-09
  -3.26525E-09 -3.46584E-09 -3.54035E-09
 NY points of the fit to the data follow
   9.96482E-09  9.99176E-09  1.00238E-08  1.00582E-08  1.00928E-08  1.01232E-08  1.01513E-08  1.01727E-08  1.01874E-08  1.01941E-08
   1.01878E-08  1.01764E-08  1.01634E-08  1.01486E-08  1.01398E-08  1.01389E-08  1.01564E-08  1.02498E-08  1.04432E-08  1.06341E-08
   1.07649E-08  1.08374E-08  1.08918E-08  1.10410E-08  1.12823E-08  1.14788E-08  1.15453E-08  1.14758E-08  1.13282E-08  1.11920E-08
   1.10984E-08  1.09942E-08  1.08476E-08  1.06444E-08  1.04271E-08  1.03000E-08  1.02608E-08  1.02427E-08  1.02326E-08  1.02261E-08
   1.02217E-08  1.02183E-08  1.02156E-08  1.02132E-08  1.02110E-08  1.02087E-08  1.02064E-08  1.02039E-08  1.02012E-08  1.01982E-08
   1.01949E-08  1.01913E-08  1.01874E-08  1.01831E-08  1.01784E-08  1.01733E-08  1.01678E-08  1.01619E-08  1.01555E-08  1.01487E-08
   1.01414E-08  1.01337E-08  1.01255E-08  1.01168E-08  1.01078E-08  1.00983E-08  1.00885E-08  1.00784E-08  1.00679E-08  1.00572E-08
   1.00462E-08  1.00349E-08  1.00234E-08  1.00118E-08  9.99991E-09  9.98793E-09  9.97581E-09  9.96363E-09  9.95136E-09  9.93907E-09
   9.92676E-09  9.91446E-09  9.90221E-09  9.89005E-09  9.87800E-09  9.86607E-09  9.85434E-09  9.84281E-09  9.83156E-09  9.82062E-09
   9.81005E-09  9.79997E-09  9.79046E-09  9.78167E-09  9.77385E-09  9.76739E-09  9.76301E-09  9.76217E-09  9.76864E-09  9.79553E-09
   9.86777E-09  9.93046E-09  9.96919E-09  1.00280E-08  1.00893E-08  1.01298E-08  1.01391E-08  1.01241E-08  1.00871E-08  1.00263E-08
   9.95410E-09  9.89305E-09  9.85373E-09  9.79687E-09  9.74122E-09  9.71968E-09  9.71023E-09  9.70638E-09  9.70592E-09  9.70791E-09
   9.71175E-09  9.71726E-09  9.72421E-09  9.73243E-09  9.74175E-09  9.75206E-09  9.76324E-09  9.77518E-09  9.78782E-09  9.80105E-09
   9.81479E-09  9.82896E-09  9.84348E-09  9.85829E-09  9.87329E-09  9.88843E-09  9.90362E-09  9.91880E-09  9.93390E-09  9.94883E-09
   9.96355E-09  9.97796E-09  9.99201E-09  1.00056E-08  1.00188E-08  1.00313E-08  1.00432E-08  1.00544E-08  1.00647E-08  1.00743E-08
   1.00829E-08  1.00906E-08  1.00972E-08  1.01027E-08  1.01070E-08  1.01101E-08  1.01119E-08  1.01123E-08  1.01114E-08  1.01090E-08
   1.01053E-08  1.01002E-08  1.00939E-08  1.00868E-08  1.00802E-08  1.00779E-08  1.00987E-08  1.01957E-08  1.03043E-08  1.03743E-08
   1.03946E-08  1.03788E-08  1.03410E-08  1.02855E-08  1.02177E-08  1.01309E-08  1.00143E-08  9.87234E-09  9.74218E-09  9.66780E-09
   9.60567E-09  9.54542E-09  9.48433E-09  9.42144E-09  9.35632E-09  9.28878E-09  9.21876E-09  9.14622E-09  9.07117E-09  8.99366E-09
   8.91369E-09  8.83135E-09  8.74666E-09  8.65971E-09  8.57055E-09  8.47921E-09  8.38581E-09  8.29039E-09  8.19301E-09  8.09375E-09
   7.99268E-09  7.88985E-09  7.78534E-09  7.67922E-09  7.57156E-09  7.46243E-09  7.35188E-09  7.24004E-09  7.12692E-09  7.01259E-09
   6.89715E-09  6.78067E-09  6.66320E-09  6.54484E-09  6.42562E-09  6.30563E-09  6.18496E-09  6.06366E-09  5.94179E-09  5.81944E-09
   5.69668E-09  5.57358E-09  5.45021E-09  5.32663E-09  5.20290E-09  5.07914E-09  4.95537E-09  4.83167E-09  4.70814E-09  4.58484E-09
   4.46181E-09  4.33916E-09  4.21695E-09  4.09522E-09  3.97409E-09  3.85360E-09  3.73383E-09  3.61484E-09  3.49671E-09  3.37953E-09
   3.26332E-09  3.14820E-09  3.03422E-09  2.92141E-09  2.80975E-09  2.69925E-09  2.58991E-09  2.48174E-09  2.37472E-09  2.26885E-09
   2.16414E-09  2.06057E-09  1.95816E-09  1.85689E-09  1.75676E-09  1.65779E-09  1.55994E-09  1.46324E-09  1.36768E-09  1.27325E-09
   1.17996E-09  1.08780E-09  9.96761E-10  9.06862E-10  8.18077E-10  7.30422E-10  6.43900E-10  5.58490E-10  4.74194E-10  3.91028E-10
   3.08958E-10  2.28023E-10  1.48180E-10  6.94646E-11 -8.15542E-12 -8.46633E-11 -1.60069E-10 -2.34370E-10 -3.07577E-10 -3.79673E-10
  -4.50666E-10 -5.20603E-10 -5.89421E-10 -6.57142E-10 -7.23772E-10 -7.89335E-10 -8.53779E-10 -9.17149E-10 -9.79466E-10 -1.04068E-09
  -1.10082E-09 -1.15986E-09 -1.21785E-09 -1.27475E-09 -1.33059E-09 -1.38539E-09 -1.43909E-09 -1.49172E-09 -1.54328E-09 -1.59377E-09
  -1.64324E-09 -1.69167E-09 -1.73898E-09 -1.78527E-09 -1.83053E-09 -1.87480E-09 -1.91809E-09 -1.96042E-09 -2.00184E-09 -2.04234E-09
  -2.08197E-09 -2.12074E-09 -2.15868E-09 -2.19581E-09 -2.23216E-09 -2.26774E-09 -2.30259E-09 -2.33673E-09 -2.37018E-09 -2.40297E-09
  -2.43511E-09 -2.46664E-09 -2.49758E-09 -2.52794E-09 -2.55776E-09 -2.58707E-09 -2.61588E-09 -2.64421E-09 -2.67209E-09 -2.69955E-09
  -2.72661E-09 -2.75328E-09 -2.77961E-09 -2.80561E-09 -2.83130E-09 -2.85671E-09 -2.88187E-09 -2.90678E-09 -2.93149E-09 -2.95602E-09
  -2.98037E-09 -3.00460E-09 -3.02871E-09 -3.05273E-09 -3.07668E-09 -3.10059E-09 -3.12449E-09 -3.14839E-09 -3.17232E-09 -3.19630E-09
  -3.22036E-09 -3.24452E-09 -3.26880E-09 -3.29324E-09 -3.31785E-09 -3.34266E-09 -3.36768E-09 -3.39295E-09 -3.41849E-09 -3.44432E-09
  -3.47047E-09 -3.49695E-09 -3.52381E-09
 NY background values follow
     9.859E-09    9.870E-09    9.882E-09    9.893E-09    9.904E-09    9.915E-09    9.926E-09    9.937E-09    9.948E-09    9.958E-09
     9.968E-09    9.978E-09    9.988E-09    9.998E-09    1.001E-08    1.002E-08    1.003E-08    1.003E-08    1.004E-08    1.005E-08
     1.006E-08    1.007E-08    1.007E-08    1.008E-08    1.009E-08    1.010E-08    1.010E-08    1.011E-08    1.011E-08    1.012E-08
     1.012E-08    1.013E-08    1.013E-08    1.014E-08    1.014E-08    1.015E-08    1.015E-08    1.015E-08    1.015E-08    1.016E-08
     1.016E-08    1.016E-08    1.016E-08    1.016E-08    1.016E-08    1.016E-08    1.016E-08    1.016E-08    1.016E-08    1.016E-08
     1.016E-08    1.015E-08    1.015E-08    1.015E-08    1.014E-08    1.014E-08    1.013E-08    1.013E-08    1.012E-08    1.012E-08
     1.011E-08    1.010E-08    1.009E-08    1.009E-08    1.008E-08    1.007E-08    1.006E-08    1.005E-08    1.004E-08    1.003E-08
     1.002E-08    1.001E-08    9.994E-09    9.983E-09    9.971E-09    9.959E-09    9.947E-09    9.935E-09    9.923E-09    9.911E-09
     9.898E-09    9.886E-09    9.874E-09    9.862E-09    9.849E-09    9.837E-09    9.825E-09    9.814E-09    9.802E-09    9.791E-09
     9.779E-09    9.768E-09    9.758E-09    9.747E-09    9.737E-09    9.727E-09    9.718E-09    9.709E-09    9.700E-09    9.692E-09
     9.684E-09    9.677E-09    9.671E-09    9.664E-09    9.659E-09    9.654E-09    9.650E-09    9.646E-09    9.643E-09    9.640E-09
     9.639E-09    9.638E-09    9.638E-09    9.638E-09    9.640E-09    9.642E-09    9.645E-09    9.650E-09    9.655E-09    9.661E-09
     9.667E-09    9.675E-09    9.684E-09    9.694E-09    9.705E-09    9.716E-09    9.728E-09    9.741E-09    9.755E-09    9.768E-09
     9.783E-09    9.798E-09    9.813E-09    9.828E-09    9.843E-09    9.859E-09    9.874E-09    9.890E-09    9.905E-09    9.920E-09
     9.935E-09    9.950E-09    9.964E-09    9.978E-09    9.991E-09    1.000E-08    1.002E-08    1.003E-08    1.004E-08    1.005E-08
     1.006E-08    1.006E-08    1.007E-08    1.008E-08    1.008E-08    1.008E-08    1.009E-08    1.009E-08    1.009E-08    1.008E-08
     1.008E-08    1.007E-08    1.006E-08    1.006E-08    1.004E-08    1.003E-08    1.002E-08    9.998E-09    9.978E-09    9.957E-09
     9.932E-09    9.906E-09    9.877E-09    9.846E-09    9.812E-09    9.775E-09    9.736E-09    9.694E-09    9.649E-09    9.601E-09
     9.550E-09    9.496E-09    9.439E-09    9.379E-09    9.316E-09    9.251E-09    9.182E-09    9.110E-09    9.036E-09    8.960E-09
     8.880E-09    8.799E-09    8.714E-09    8.628E-09    8.539E-09    8.448E-09    8.355E-09    8.260E-09    8.163E-09    8.064E-09
     7.963E-09    7.860E-09    7.756E-09    7.650E-09    7.543E-09    7.434E-09    7.323E-09    7.212E-09    7.099E-09    6.984E-09
     6.869E-09    6.753E-09    6.635E-09    6.517E-09    6.398E-09    6.278E-09    6.157E-09    6.036E-09    5.914E-09    5.792E-09
     5.670E-09    5.546E-09    5.423E-09    5.300E-09    5.176E-09    5.052E-09    4.929E-09    4.805E-09    4.682E-09    4.558E-09
     4.435E-09    4.313E-09    4.191E-09    4.069E-09    3.948E-09    3.827E-09    3.708E-09    3.589E-09    3.471E-09    3.353E-09
     3.237E-09    3.122E-09    3.008E-09    2.896E-09    2.784E-09    2.673E-09    2.564E-09    2.456E-09    2.349E-09    2.243E-09
     2.139E-09    2.035E-09    1.933E-09    1.831E-09    1.731E-09    1.632E-09    1.535E-09    1.438E-09    1.342E-09    1.248E-09
     1.155E-09    1.063E-09    9.715E-10    8.817E-10    7.929E-10    7.053E-10    6.188E-10    5.334E-10    4.491E-10    3.660E-10
     2.840E-10    2.031E-10    1.232E-10    4.455E-11   -3.304E-11   -1.095E-10   -1.849E-10   -2.592E-10   -3.324E-10   -4.044E-10
    -4.754E-10   -5.453E-10   -6.141E-10   -6.818E-10   -7.484E-10   -8.139E-10   -8.784E-10   -9.417E-10   -1.004E-09   -1.065E-09
    -1.125E-09   -1.184E-09   -1.242E-09   -1.299E-09   -1.355E-09   -1.410E-09   -1.463E-09   -1.516E-09   -1.568E-09   -1.618E-09
    -1.668E-09   -1.716E-09   -1.763E-09   -1.809E-09   -1.855E-09   -1.899E-09   -1.942E-09   -1.985E-09   -2.026E-09   -2.066E-09
    -2.106E-09   -2.145E-09   -2.183E-09   -2.220E-09   -2.256E-09   -2.292E-09   -2.327E-09   -2.361E-09   -2.394E-09   -2.427E-09
    -2.459E-09   -2.490E-09   -2.521E-09   -2.552E-09   -2.582E-09   -2.611E-09   -2.640E-09   -2.668E-09   -2.696E-09   -2.723E-09
    -2.750E-09   -2.777E-09   -2.803E-09   -2.829E-09   -2.855E-09   -2.880E-09   -2.905E-09   -2.930E-09   -2.955E-09   -2.979E-09
    -3.004E-09   -3.028E-09   -3.052E-09   -3.076E-09   -3.100E-09   -3.124E-09   -3.148E-09   -3.172E-09   -3.196E-09   -3.220E-09
    -3.244E-09   -3.268E-09   -3.292E-09   -3.316E-09   -3.341E-09   -3.366E-09   -3.391E-09   -3.416E-09   -3.442E-09   -3.467E-09
    -3.494E-09   -3.520E-09   -3.547E-09
 Ala      Conc. = 1.01E-10
   9.93287E-09  9.95258E-09  9.96785E-09  9.98033E-09  9.99139E-09  1.00003E-08  1.00053E-08  1.00067E-08  1.00099E-08  1.00140E-08
   1.00134E-08  1.00146E-08  1.00198E-08  1.00240E-08  1.00285E-08  1.00346E-08  1.00414E-08  1.00486E-08  1.00559E-08  1.00633E-08
   1.00705E-08  1.00777E-08  1.00847E-08  1.00915E-08  1.00982E-08  1.01046E-08  1.01107E-08  1.01166E-08  1.01223E-08  1.01276E-08
   1.01327E-08  1.01375E-08  1.01419E-08  1.01461E-08  1.01500E-08  1.01535E-08  1.01566E-08  1.01595E-08  1.01620E-08  1.01641E-08
   1.01659E-08  1.01673E-08  1.01683E-08  1.01689E-08  1.01692E-08  1.01690E-08  1.01685E-08  1.01675E-08  1.01661E-08  1.01643E-08
   1.01621E-08  1.01594E-08  1.01563E-08  1.01528E-08  1.01488E-08  1.01443E-08  1.01393E-08  1.01339E-08  1.01280E-08  1.01217E-08
   1.01148E-08  1.01074E-08  1.00996E-08  1.00913E-08  1.00825E-08  1.00734E-08  1.00639E-08  1.00540E-08  1.00438E-08  1.00333E-08
   1.00225E-08  1.00114E-08  1.00001E-08  9.98862E-09  9.97695E-09  9.96514E-09  9.95319E-09  9.94116E-09  9.92903E-09  9.91689E-09
   9.90471E-09  9.89255E-09  9.88042E-09  9.86837E-09  9.85644E-09  9.84462E-09  9.83300E-09  9.82158E-09  9.81042E-09  9.79958E-09
   9.78911E-09  9.77912E-09  9.76970E-09  9.76099E-09  9.75326E-09  9.74688E-09  9.74257E-09  9.74181E-09  9.74836E-09  9.77532E-09
   9.84763E-09  9.91039E-09  9.94919E-09  1.00081E-08  1.00694E-08  1.01100E-08  1.01193E-08  1.01044E-08  1.00675E-08  1.00067E-08
   9.93459E-09  9.87359E-09  9.83433E-09  9.77753E-09  9.72193E-09  9.70044E-09  9.69104E-09  9.68725E-09  9.68683E-09  9.68888E-09
   9.69277E-09  9.69833E-09  9.70532E-09  9.71359E-09  9.72296E-09  9.73332E-09  9.74454E-09  9.75654E-09  9.76922E-09  9.78249E-09
   9.79628E-09  9.81050E-09  9.82506E-09  9.83992E-09  9.85497E-09  9.87015E-09  9.88539E-09  9.90061E-09  9.91575E-09  9.93073E-09
   9.94550E-09  9.95996E-09  9.97405E-09  9.98773E-09  1.00009E-08  1.00134E-08  1.00254E-08  1.00366E-08  1.00470E-08  1.00566E-08
   1.00653E-08  1.00730E-08  1.00796E-08  1.00851E-08  1.00895E-08  1.00925E-08  1.00943E-08  1.00947E-08  1.00936E-08  1.00911E-08
   1.00870E-08  1.00815E-08  1.00744E-08  1.00661E-08  1.00569E-08  1.00488E-08  1.00505E-08  1.00868E-08  1.01275E-08  1.01488E-08
   1.01455E-08  1.01240E-08  1.00910E-08  1.00482E-08  9.99830E-09  9.93810E-09  9.86238E-09  9.77334E-09  9.68839E-09  9.62808E-09
   9.57195E-09  9.51507E-09  9.45617E-09  9.39482E-09  9.33083E-09  9.26418E-09  9.19486E-09  9.12289E-09  9.04832E-09  8.97121E-09
   8.89159E-09  8.80954E-09  8.72512E-09  8.63840E-09  8.54944E-09  8.45830E-09  8.36506E-09  8.26979E-09  8.17255E-09  8.07342E-09
   7.97246E-09  7.86974E-09  7.76533E-09  7.65931E-09  7.55174E-09  7.44269E-09  7.33222E-09  7.22045E-09  7.10739E-09  6.99314E-09
   6.87776E-09  6.76133E-09  6.64392E-09  6.52561E-09  6.40644E-09  6.28650E-09  6.16588E-09  6.04462E-09  5.92279E-09  5.80049E-09
   5.67777E-09  5.55471E-09  5.43138E-09  5.30783E-09  5.18414E-09  5.06041E-09  4.93667E-09  4.81301E-09  4.68951E-09  4.56624E-09
   4.44324E-09  4.32062E-09  4.19843E-09  4.07674E-09  3.95563E-09  3.83517E-09  3.71542E-09  3.59646E-09  3.47836E-09  3.36119E-09
   3.24501E-09  3.12991E-09  3.01595E-09  2.90316E-09  2.79153E-09  2.68105E-09  2.57173E-09  2.46358E-09  2.35658E-09  2.25074E-09
   2.14605E-09  2.04250E-09  1.94010E-09  1.83885E-09  1.73874E-09  1.63979E-09  1.54196E-09  1.44528E-09  1.34973E-09  1.25532E-09
   1.16205E-09  1.06990E-09  9.78883E-10  8.89001E-10  8.00233E-10  7.12595E-10  6.26089E-10  5.40695E-10  4.56416E-10  3.73265E-10
   2.91211E-10  2.10292E-10  1.30464E-10  5.17638E-11 -2.58411E-11 -1.02334E-10 -1.77724E-10 -2.52011E-10 -3.25203E-10 -3.97284E-10
  -4.68263E-10 -5.38186E-10 -6.06989E-10 -6.74695E-10 -7.41312E-10 -8.06860E-10 -8.71291E-10 -9.34647E-10 -9.96950E-10 -1.05815E-09
  -1.11828E-09 -1.17730E-09 -1.23528E-09 -1.29217E-09 -1.34800E-09 -1.40278E-09 -1.45647E-09 -1.50908E-09 -1.56063E-09 -1.61111E-09
  -1.66057E-09 -1.70898E-09 -1.75627E-09 -1.80255E-09 -1.84780E-09 -1.89205E-09 -1.93533E-09 -1.97766E-09 -2.01906E-09 -2.05955E-09
  -2.09916E-09 -2.13792E-09 -2.17585E-09 -2.21297E-09 -2.24930E-09 -2.28488E-09 -2.31971E-09 -2.35384E-09 -2.38728E-09 -2.42005E-09
  -2.45218E-09 -2.48370E-09 -2.51462E-09 -2.54498E-09 -2.57479E-09 -2.60408E-09 -2.63287E-09 -2.66119E-09 -2.68906E-09 -2.71651E-09
  -2.74355E-09 -2.77022E-09 -2.79653E-09 -2.82252E-09 -2.84819E-09 -2.87359E-09 -2.89874E-09 -2.92364E-09 -2.94834E-09 -2.97285E-09
  -2.99720E-09 -3.02142E-09 -3.04551E-09 -3.06952E-09 -3.09346E-09 -3.11736E-09 -3.14124E-09 -3.16513E-09 -3.18904E-09 -3.21302E-09
  -3.23706E-09 -3.26121E-09 -3.28548E-09 -3.30990E-09 -3.33450E-09 -3.35930E-09 -3.38431E-09 -3.40956E-09 -3.43509E-09 -3.46091E-09
  -3.48705E-09 -3.51352E-09 -3.54036E-09
 PCh      Conc. = 5.59E-11
   9.88630E-09  9.90510E-09  9.93328E-09  9.96647E-09  1.00010E-08  1.00333E-08  1.00671E-08  1.00974E-08  1.01191E-08  1.01312E-08
   1.01347E-08  1.01306E-08  1.01201E-08  1.01072E-08  1.00975E-08  1.00884E-08  1.00811E-08  1.00772E-08  1.00818E-08  1.00917E-08
   1.01068E-08  1.01313E-08  1.01822E-08  1.03557E-08  1.06415E-08  1.09000E-08  1.10596E-08  1.11246E-08  1.11292E-08  1.10942E-08
   1.10317E-08  1.09420E-08  1.08039E-08  1.06063E-08  1.03930E-08  1.02689E-08  1.02320E-08  1.02158E-08  1.02072E-08  1.02020E-08
   1.01986E-08  1.01962E-08  1.01943E-08  1.01926E-08  1.01909E-08  1.01892E-08  1.01874E-08  1.01853E-08  1.01830E-08  1.01804E-08
   1.01774E-08  1.01741E-08  1.01705E-08  1.01664E-08  1.01620E-08  1.01571E-08  1.01518E-08  1.01461E-08  1.01399E-08  1.01332E-08
   1.01261E-08  1.01185E-08  1.01104E-08  1.01019E-08  1.00930E-08  1.00837E-08  1.00740E-08  1.00639E-08  1.00535E-08  1.00429E-08
   1.00319E-08  1.00207E-08  1.00093E-08  9.99766E-09  9.98586E-09  9.97390E-09  9.96180E-09  9.94962E-09  9.93733E-09  9.92501E-09
   9.91265E-09  9.90028E-09  9.88792E-09  9.87562E-09  9.86340E-09  9.85125E-09  9.83924E-09  9.82736E-09  9.81565E-09  9.80414E-09
   9.79284E-09  9.78180E-09  9.77103E-09  9.76054E-09  9.75037E-09  9.74054E-09  9.73109E-09  9.72202E-09  9.71338E-09  9.70519E-09
   9.69745E-09  9.69021E-09  9.68350E-09  9.67732E-09  9.67171E-09  9.66670E-09  9.66230E-09  9.65855E-09  9.65548E-09  9.65309E-09
   9.65143E-09  9.65049E-09  9.65034E-09  9.65096E-09  9.65242E-09  9.65471E-09  9.65788E-09  9.66195E-09  9.66693E-09  9.67290E-09
   9.67977E-09  9.68765E-09  9.69652E-09  9.70631E-09  9.71695E-09  9.72838E-09  9.74051E-09  9.75329E-09  9.76666E-09  9.78053E-09
   9.79484E-09  9.80953E-09  9.82451E-09  9.83973E-09  9.85512E-09  9.87061E-09  9.88612E-09  9.90160E-09  9.91698E-09  9.93217E-09
   9.94713E-09  9.96177E-09  9.97603E-09  9.98987E-09  1.00032E-08  1.00159E-08  1.00279E-08  1.00393E-08  1.00498E-08  1.00595E-08
   1.00683E-08  1.00760E-08  1.00827E-08  1.00884E-08  1.00927E-08  1.00959E-08  1.00977E-08  1.00981E-08  1.00970E-08  1.00945E-08
   1.00904E-08  1.00847E-08  1.00774E-08  1.00685E-08  1.00584E-08  1.00479E-08  1.00420E-08  1.00543E-08  1.00681E-08  1.00702E-08
   1.00577E-08  1.00340E-08  1.00029E-08  9.96516E-09  9.92240E-09  9.87276E-09  9.81333E-09  9.74525E-09  9.67812E-09  9.62335E-09
   9.56961E-09  9.51408E-09  9.45606E-09  9.39532E-09  9.33180E-09  9.26551E-09  9.19648E-09  9.12475E-09  9.05038E-09  8.97344E-09
   8.89396E-09  8.81205E-09  8.72773E-09  8.64112E-09  8.55225E-09  8.46118E-09  8.36802E-09  8.27282E-09  8.17563E-09  8.07656E-09
   7.97566E-09  7.87298E-09  7.76862E-09  7.66264E-09  7.55510E-09  7.44609E-09  7.33566E-09  7.22391E-09  7.11089E-09  6.99666E-09
   6.88131E-09  6.76491E-09  6.64753E-09  6.52924E-09  6.41009E-09  6.29017E-09  6.16957E-09  6.04833E-09  5.92652E-09  5.80423E-09
   5.68154E-09  5.55849E-09  5.43517E-09  5.31164E-09  5.18796E-09  5.06425E-09  4.94052E-09  4.81687E-09  4.69339E-09  4.57012E-09
