 LCModel (Version 6.3-1R) Copyright: S.W. Provencher.          Ref.: Magn. Reson. Med. 30:672-679 (1993).                
 onepulse 28x24_ftSpec_smooth_lcm
 26 lines in following concentration table = NCONC+1
    Conc.  %SD /Cr+PCr  Metabolite                                         
    0.000 999%   0.000 Ala                                                 
 1.23E-09  84%   3.385 Asp                                                 
    0.000 999%   0.000 Cr                                                  
 1.82E-09  58%   5.039 GABA                                                
 1.12E-10 999%   0.309 Glc                                                 
    0.000 999%   0.000 Gln                                                 
    0.000 999%   0.000 Glu                                                 
    0.000 999%   0.000 Glyc                                                
 2.26E-10  66%   0.626 GPC                                                 
 5.53E-10 109%   1.526 GSH                                                 
 1.99E-09  36%   5.484 Ins                                                 
    0.000 999%   0.000 Lac                                                 
    0.000 999%   0.000 NAAG                                                
 4.01E-11 999%   0.111 NAA                                                 
    0.000 999%   0.000 PCh                                                 
 3.62E-10 148%   1.000 PCr                                                 
    0.000 999%   0.000 PE                                                  
 5.79E-10  59%   1.599 Scyllo                                              
    0.000 999%   0.000 Ser                                                 
    0.000 999%   0.000 Tau                                                 
 2.26E-10  66%   0.626 GPC+PCh                                             
 4.01E-11 999%   0.111 NAA+NAAG                                            
 1.99E-09  36%   5.484 Ins+Glyc                                            
 3.62E-10 148%   1.000 Cr+PCr                                              
    0.000 999%   0.000 Glu+Gln                                             
   6 lines in following misc. output table
  FWHM = 0.101 ppm    S/N =   1                                            
  Data shift = 0.291 ppm                                                   
  Ph: 102 deg      75.7 deg/ppm                                            
  alphaB,S = 1.5E-01,   7.1E+01                                            
   16 spline knots.   Ns = 5(1)                                            
  ( 8) 2 infls.   ( 5) 1 extrs.                                            
  363 points on ppm-axis = NY
      4.250000     4.238821     4.227641     4.216462     4.205282     4.194103     4.182923     4.171744     4.160564     4.149385
      4.138206     4.127026     4.115847     4.104667     4.093488     4.082308     4.071129     4.059949     4.048770     4.037591
      4.026411     4.015232     4.004052     3.992873     3.981693     3.970514     3.959334     3.948155     3.936975     3.925796
      3.914617     3.903437     3.892258     3.881078     3.869899     3.858719     3.847540     3.836360     3.825181     3.814002
      3.802822     3.791643     3.780463     3.769284     3.758104     3.746925     3.735745     3.724566     3.713387     3.702207
      3.691028     3.679848     3.668669     3.657489     3.646310     3.635130     3.623951     3.612772     3.601592     3.590413
      3.579233     3.568054     3.556874     3.545695     3.534515     3.523336     3.512156     3.500977     3.489798     3.478618
      3.467439     3.456259     3.445080     3.433900     3.422721     3.411541     3.400362     3.389183     3.378003     3.366824
      3.355644     3.344465     3.333285     3.322106     3.310926     3.299747     3.288568     3.277388     3.266209     3.255029
      3.243850     3.232670     3.221491     3.210311     3.199132     3.187953     3.176773     3.165594     3.154414     3.143235
      3.132055     3.120876     3.109696     3.098517     3.087337     3.076158     3.064979     3.053799     3.042620     3.031440
      3.020261     3.009081     2.997902     2.986722     2.975543     2.964364     2.953184     2.942005     2.930825     2.919646
      2.908466     2.897287     2.886107     2.874928     2.863749     2.852569     2.841390     2.830210     2.819031     2.807851
      2.796672     2.785492     2.774313     2.763134     2.751954     2.740775     2.729595     2.718416     2.707236     2.696057
      2.684877     2.673698     2.662519     2.651339     2.640160     2.628980     2.617801     2.606621     2.595442     2.584262
      2.573083     2.561903     2.550724     2.539545     2.528365     2.517186     2.506006     2.494827     2.483647     2.472468
      2.461288     2.450109     2.438930     2.427750     2.416571     2.405391     2.394212     2.383032     2.371853     2.360673
      2.349494     2.338315     2.327135     2.315956     2.304776     2.293597     2.282417     2.271238     2.260058     2.248879
      2.237700     2.226520     2.215341     2.204161     2.192982     2.181802     2.170623     2.159443     2.148264     2.137084
      2.125905     2.114726     2.103546     2.092367     2.081187     2.070008     2.058828     2.047649     2.036469     2.025290
      2.014111     2.002931     1.991752     1.980572     1.969393     1.958213     1.947034     1.935854     1.924675     1.913496
      1.902316     1.891137     1.879957     1.868778     1.857598     1.846419     1.835239     1.824060     1.812881     1.801701
      1.790522     1.779342     1.768163     1.756983     1.745804     1.734624     1.723445     1.712265     1.701086     1.689907
      1.678727     1.667548     1.656368     1.645189     1.634009     1.622830     1.611650     1.600471     1.589292     1.578112
      1.566933     1.555753     1.544574     1.533394     1.522215     1.511035     1.499856     1.488677     1.477497     1.466318
      1.455138     1.443959     1.432779     1.421600     1.410420     1.399241     1.388062     1.376882     1.365703     1.354523
      1.343344     1.332164     1.320985     1.309805     1.298626     1.287446     1.276267     1.265088     1.253908     1.242729
      1.231549     1.220370     1.209190     1.198011     1.186831     1.175652     1.164473     1.153293     1.142114     1.130934
      1.119755     1.108575     1.097396     1.086216     1.075037     1.063858     1.052678     1.041499     1.030319     1.019140
      1.007960     0.996781     0.985601     0.974422     0.963243     0.952063     0.940884     0.929704     0.918525     0.907345
      0.896166     0.884986     0.873807     0.862628     0.851448     0.840269     0.829089     0.817910     0.806730     0.795551
      0.784371     0.773192     0.762012     0.750833     0.739654     0.728474     0.717295     0.706115     0.694936     0.683756
      0.672577     0.661397     0.650218     0.639039     0.627859     0.616680     0.605500     0.594321     0.583141     0.571962
      0.560782     0.549603     0.538424     0.527244     0.516065     0.504885     0.493706     0.482526     0.471347     0.460167
      0.448988     0.437809     0.426629     0.415450     0.404270     0.393091     0.381911     0.370732     0.359552     0.348373
      0.337193     0.326014     0.314835     0.303655     0.292476     0.281296     0.270117     0.258937     0.247758     0.236578
      0.225399     0.214220     0.203040
 NY phased data points follow
   9.14827E-09  9.65771E-09  1.10629E-08  1.10996E-08  1.18037E-08  1.14205E-08  1.13940E-08  9.04684E-09  6.65908E-09  5.05813E-09
   4.46148E-09  3.59209E-09  3.98767E-09  3.64046E-09  3.78363E-09  3.54214E-09  3.71164E-09  3.03840E-09  3.52752E-09  3.45766E-09
   3.09236E-09  2.28123E-09  2.11044E-09  1.30493E-09  9.40231E-10  1.65758E-10  4.25039E-10 -2.42443E-10  3.48040E-10 -1.18874E-10
   5.74665E-10 -1.08163E-10 -8.75947E-10 -8.55532E-10 -6.18992E-10 -8.63291E-10  2.62218E-10 -4.11487E-10 -7.11995E-10 -2.29832E-09
  -2.92525E-09 -4.20899E-09 -4.50918E-09 -5.35359E-09 -4.63514E-09 -4.76060E-09 -4.32568E-09 -4.83432E-09 -5.00907E-09 -5.10070E-09
  -4.61866E-09 -4.91100E-09 -4.47192E-09 -4.39775E-09 -3.56555E-09 -3.73445E-09 -3.00761E-09 -3.10399E-09 -3.41273E-09 -3.14805E-09
  -3.55298E-09 -2.26806E-09 -2.57548E-09 -1.85261E-09 -1.52150E-09 -1.45171E-09 -1.25054E-09 -5.34543E-10 -7.82201E-10 -9.00849E-10
  -2.93999E-09 -3.88735E-09 -5.51410E-09 -5.34337E-09 -5.59332E-09 -5.36423E-09 -5.71532E-09 -4.72116E-09 -4.01110E-09 -3.94689E-09
  -2.86785E-09 -2.12978E-09 -1.35101E-09 -3.65008E-11  6.95587E-10 -1.92154E-10 -2.15561E-09 -4.43522E-09 -6.34672E-09 -7.39852E-09
  -8.08144E-09 -8.75348E-09 -8.43826E-09 -9.04559E-09 -8.37379E-09 -9.51390E-09 -9.66093E-09 -9.63836E-09 -9.92769E-09 -9.73304E-09
  -9.61183E-09 -9.77300E-09 -9.22753E-09 -9.56911E-09 -8.97841E-09 -9.13995E-09 -8.71538E-09 -8.59276E-09 -8.68717E-09 -8.96287E-09
  -9.33100E-09 -9.30194E-09 -9.03172E-09 -9.69273E-09 -9.51599E-09 -9.10261E-09 -9.20664E-09 -8.09935E-09 -7.81196E-09 -7.99772E-09
  -7.93854E-09 -8.44585E-09 -7.70270E-09 -8.20395E-09 -7.74848E-09 -8.21459E-09 -7.93474E-09 -8.08476E-09 -7.58811E-09 -7.74259E-09
  -7.06468E-09 -6.46613E-09 -5.81141E-09 -5.19664E-09 -5.82114E-09 -5.34017E-09 -5.10144E-09 -5.21723E-09 -5.01346E-09 -4.92519E-09
  -5.39288E-09 -4.67052E-09 -4.37545E-09 -4.07847E-09 -3.98585E-09 -3.64769E-09 -3.96980E-09 -4.85862E-09 -5.28681E-09 -4.48947E-09
  -4.63698E-09 -4.36343E-09 -5.05229E-09 -4.86985E-09 -5.87510E-09 -4.93939E-09 -5.33134E-09 -5.75855E-09 -5.92158E-09 -5.82374E-09
  -5.87776E-09 -6.41923E-09 -6.51338E-09 -6.76252E-09 -6.77402E-09 -6.42229E-09 -7.25335E-09 -7.19712E-09 -7.86830E-09 -7.47108E-09
  -8.07000E-09 -8.08159E-09 -8.74956E-09 -9.37575E-09 -9.46167E-09 -1.04663E-08 -1.37121E-08 -1.65885E-08 -2.04180E-08 -2.25822E-08
  -2.28141E-08 -2.35294E-08 -2.30046E-08 -2.31976E-08 -2.32278E-08 -2.29117E-08 -2.33260E-08 -2.25042E-08 -2.31929E-08 -2.31176E-08
  -2.26387E-08 -2.29536E-08 -2.27011E-08 -2.25965E-08 -2.26098E-08 -2.28818E-08 -2.24448E-08 -2.17878E-08 -2.14966E-08 -2.15656E-08
  -2.09754E-08 -1.96894E-08 -1.90023E-08 -1.72763E-08 -1.57210E-08 -1.33666E-08 -1.10153E-08 -8.62558E-09 -5.81285E-09 -3.07416E-09
  -4.94066E-10  2.43909E-09  5.04278E-09  8.00058E-09  1.09015E-08  1.38639E-08  1.52452E-08  1.70849E-08  1.79367E-08  1.91638E-08
   1.86312E-08  1.80394E-08  1.67250E-08  1.47597E-08  1.26897E-08  9.73643E-09  7.86141E-09  6.76770E-09  4.36075E-09  3.44131E-09
   2.56931E-09  3.17712E-09  2.55271E-09  2.98607E-09  2.51060E-09  2.47444E-09  2.44423E-09  2.06059E-09  1.45641E-09  1.68382E-09
   1.60939E-09  1.90915E-09  1.25933E-09  1.85678E-09  1.88516E-09  1.90535E-09  2.18880E-09  1.69210E-09  1.37143E-09  1.53212E-09
   6.56140E-10  7.26008E-10  1.12548E-10  6.78259E-10  9.06542E-10  1.21733E-09  1.24364E-09  1.10689E-09  1.05307E-09  1.40424E-09
   4.06774E-10  1.68961E-10  1.98979E-10 -5.74740E-11 -7.54756E-10 -4.35921E-10 -5.26709E-10 -1.82832E-10 -2.63599E-10  6.61009E-10
   2.55486E-10  3.51415E-10  5.78651E-10  5.86123E-10  4.66871E-10  2.37271E-10  1.71670E-10  5.23020E-10 -3.78467E-10 -6.56515E-11
  -4.27769E-10 -2.00445E-10 -3.78900E-10 -8.41221E-11 -7.29292E-10 -9.17259E-10 -1.05523E-09 -1.48153E-10 -7.16260E-10 -4.21374E-10
  -9.78643E-10 -5.18735E-10 -6.87694E-10 -1.28070E-10 -7.46009E-11 -7.73554E-10 -3.53875E-10 -7.76042E-10 -4.50041E-10 -3.35969E-10
  -5.89855E-10 -5.58088E-10  2.08642E-11 -7.37089E-10 -1.15533E-10 -2.61516E-10  2.13222E-10  1.73059E-10  4.93402E-11 -1.66171E-10
  -9.05856E-11  2.58731E-11 -2.39854E-10  4.54260E-10  2.89723E-10  2.08157E-10  4.94992E-10  1.40763E-10 -1.29084E-10  2.49218E-10
   1.18876E-10 -7.57885E-12  1.19303E-10  3.61392E-10 -2.05013E-10 -1.50427E-10 -2.11436E-10 -4.15077E-11  3.27697E-10 -1.44111E-10
   3.85873E-11 -8.97045E-11  1.74293E-10 -2.28202E-10  1.05604E-10 -4.68306E-10 -1.91188E-10 -4.10264E-10  4.40770E-11 -4.48085E-10
  -2.23281E-10 -5.19313E-10 -3.30144E-11 -3.14028E-10 -2.99508E-10 -3.63883E-10 -4.64753E-10 -2.57060E-10 -5.98384E-10 -5.17883E-10
  -4.15065E-10 -7.09281E-10 -1.73746E-10 -6.76185E-10 -5.57798E-10 -6.95511E-10 -5.43211E-10 -1.18521E-09 -5.61149E-10 -8.42047E-10
  -1.06582E-09 -1.01601E-09 -8.73392E-10
 NY points of the fit to the data follow
   1.02117E-08  9.96353E-09  9.91255E-09  1.00180E-08  9.95303E-09  9.56138E-09  9.14626E-09  8.91366E-09  8.39954E-09  7.49600E-09
   6.38652E-09  5.12501E-09  3.95632E-09  2.91661E-09  2.29510E-09  2.23316E-09  2.63933E-09  3.28298E-09  3.69211E-09  4.00353E-09
   3.95975E-09  3.57590E-09  3.17508E-09  2.68777E-09  1.70900E-09  4.08045E-10 -7.25691E-10 -1.21637E-09 -8.86948E-10 -3.50755E-10
  -2.83574E-10 -1.23975E-10 -2.21619E-10 -4.97511E-10 -6.36386E-10 -7.79321E-10 -1.33467E-09 -2.18251E-09 -3.15189E-09 -4.03758E-09
  -4.68073E-09 -5.00162E-09 -4.75768E-09 -4.05493E-09 -3.51014E-09 -3.14283E-09 -2.75719E-09 -2.31858E-09 -1.96517E-09 -1.78322E-09
  -1.76019E-09 -1.85869E-09 -1.97247E-09 -1.98933E-09 -1.91663E-09 -1.81681E-09 -1.70363E-09 -1.71248E-09 -1.70925E-09 -1.59710E-09
  -1.41291E-09 -1.20750E-09 -1.18568E-09 -1.22011E-09 -1.18635E-09 -1.40723E-09 -1.84762E-09 -2.33185E-09 -2.85088E-09 -3.38489E-09
  -3.92831E-09 -4.36645E-09 -4.61933E-09 -4.78647E-09 -4.94491E-09 -4.86805E-09 -4.62649E-09 -4.57451E-09 -4.53133E-09 -4.39032E-09
  -4.33561E-09 -4.29027E-09 -4.16825E-09 -4.13236E-09 -4.18721E-09 -4.23233E-09 -4.34113E-09 -4.55263E-09 -4.81569E-09 -5.12665E-09
  -5.46179E-09 -5.82022E-09 -6.24022E-09 -6.57326E-09 -6.76026E-09 -7.00020E-09 -7.19975E-09 -7.24265E-09 -7.28298E-09 -7.33200E-09
  -7.34088E-09 -7.34230E-09 -7.34902E-09 -7.36308E-09 -7.38436E-09 -7.41203E-09 -7.44520E-09 -7.48316E-09 -7.52535E-09 -7.57132E-09
  -7.62063E-09 -7.67265E-09 -7.72697E-09 -7.78328E-09 -7.84133E-09 -7.90095E-09 -7.96203E-09 -8.02433E-09 -8.08767E-09 -8.15190E-09
  -8.21692E-09 -8.28260E-09 -8.34888E-09 -8.41566E-09 -8.48285E-09 -8.55040E-09 -8.61822E-09 -8.68626E-09 -8.75446E-09 -8.82277E-09
  -8.89112E-09 -8.95948E-09 -9.02777E-09 -9.09594E-09 -9.16396E-09 -9.23174E-09 -9.29923E-09 -9.36636E-09 -9.43304E-09 -9.49915E-09
  -9.56452E-09 -9.62896E-09 -9.69201E-09 -9.75325E-09 -9.81218E-09 -9.86825E-09 -9.92089E-09 -9.96941E-09 -1.00131E-08 -1.00510E-08
  -1.00822E-08 -1.01055E-08 -1.01195E-08 -1.01227E-08 -1.01130E-08 -1.00879E-08 -1.00444E-08 -9.97831E-09 -9.88422E-09 -9.75457E-09
  -9.57854E-09 -9.33972E-09 -9.01169E-09 -8.54758E-09 -7.85346E-09 -6.69753E-09 -4.35173E-09 -1.61268E-09  1.74159E-10  7.41476E-10
   3.28919E-10 -7.49775E-10 -2.32679E-09 -4.40844E-09 -7.06026E-09 -1.01974E-08 -1.33566E-08 -1.56398E-08 -1.61336E-08 -1.56064E-08
  -1.51027E-08 -1.46706E-08 -1.42933E-08 -1.39544E-08 -1.36417E-08 -1.33468E-08 -1.30633E-08 -1.27866E-08 -1.25134E-08 -1.22409E-08
  -1.19670E-08 -1.16899E-08 -1.14084E-08 -1.11213E-08 -1.08275E-08 -1.05263E-08 -1.02172E-08 -9.90031E-09 -9.57594E-09 -9.24454E-09
  -8.90661E-09 -8.56269E-09 -8.21336E-09 -7.85929E-09 -7.50114E-09 -7.13964E-09 -6.77551E-09 -6.40954E-09 -6.04256E-09 -5.67536E-09
  -5.30876E-09 -4.94369E-09 -4.58098E-09 -4.22153E-09 -3.86626E-09 -3.51610E-09 -3.17198E-09 -2.83488E-09 -2.50570E-09 -2.18548E-09
  -1.87511E-09 -1.57566E-09 -1.28803E-09 -1.01326E-09 -7.51973E-10 -5.04026E-10 -2.69173E-10 -4.71588E-11  1.62259E-10  3.59341E-10
   5.44360E-10  7.17600E-10  8.79324E-10  1.02984E-09  1.16945E-09  1.29843E-09  1.41712E-09  1.52579E-09  1.62484E-09  1.71450E-09
   1.79515E-09  1.86713E-09  1.93076E-09  1.98639E-09  2.03439E-09  2.07510E-09  2.10888E-09  2.13609E-09  2.15707E-09  2.17220E-09
   2.18189E-09  2.18644E-09  2.18620E-09  2.18137E-09  2.17214E-09  2.15871E-09  2.14129E-09  2.12008E-09  2.09529E-09  2.06712E-09
   2.03578E-09  2.00148E-09  1.96443E-09  1.92484E-09  1.88292E-09  1.83888E-09  1.79292E-09  1.74527E-09  1.69613E-09  1.64571E-09
   1.59422E-09  1.54187E-09  1.48886E-09  1.43542E-09  1.38173E-09  1.32801E-09  1.27447E-09  1.22129E-09  1.16870E-09  1.11687E-09
   1.06591E-09  1.01583E-09  9.66637E-10  9.18327E-10  8.70918E-10  8.24407E-10  7.78804E-10  7.34109E-10  6.90328E-10  6.47468E-10
   6.05527E-10  5.64510E-10  5.24420E-10  4.85257E-10  4.47026E-10  4.09725E-10  3.73358E-10  3.37922E-10  3.03424E-10  2.69851E-10
   2.37218E-10  2.05512E-10  1.74735E-10  1.44893E-10  1.15974E-10  8.79788E-11  6.09078E-11  3.47495E-11  9.48930E-12 -1.49061E-11
  -3.84672E-11 -6.12249E-11 -8.32094E-11 -1.04452E-10 -1.24981E-10 -1.44827E-10 -1.64019E-10 -1.82587E-10 -2.00557E-10 -2.17959E-10
  -2.34820E-10 -2.51168E-10 -2.67029E-10 -2.82430E-10 -2.97398E-10 -3.11956E-10 -3.26131E-10 -3.39945E-10 -3.53424E-10 -3.66590E-10
  -3.79465E-10 -3.92071E-10 -4.04430E-10 -4.16561E-10 -4.28484E-10 -4.40216E-10 -4.51751E-10 -4.63080E-10 -4.74188E-10 -4.85064E-10
  -4.95699E-10 -5.06078E-10 -5.16193E-10 -5.26031E-10 -5.35584E-10 -5.44837E-10 -5.53784E-10 -5.62413E-10 -5.70714E-10 -5.78676E-10
  -5.86291E-10 -5.93549E-10 -6.00441E-10 -6.06958E-10 -6.13092E-10 -6.18834E-10 -6.24174E-10 -6.29105E-10 -6.33620E-10 -6.37711E-10
  -6.41371E-10 -6.44593E-10 -6.47367E-10
 NY background values follow
     9.428E-09    9.309E-09    9.190E-09    9.069E-09    8.948E-09    8.827E-09    8.705E-09    8.582E-09    8.459E-09    8.335E-09
     8.211E-09    8.086E-09    7.961E-09    7.835E-09    7.709E-09    7.582E-09    7.455E-09    7.328E-09    7.200E-09    7.071E-09
     6.942E-09    6.813E-09    6.683E-09    6.553E-09    6.422E-09    6.292E-09    6.160E-09    6.029E-09    5.897E-09    5.764E-09
     5.632E-09    5.499E-09    5.365E-09    5.232E-09    5.098E-09    4.964E-09    4.829E-09    4.695E-09    4.559E-09    4.424E-09
     4.289E-09    4.153E-09    4.017E-09    3.881E-09    3.744E-09    3.607E-09    3.470E-09    3.333E-09    3.196E-09    3.058E-09
     2.920E-09    2.782E-09    2.644E-09    2.506E-09    2.367E-09    2.229E-09    2.090E-09    1.951E-09    1.811E-09    1.672E-09
     1.532E-09    1.392E-09    1.252E-09    1.112E-09    9.718E-10    8.313E-10    6.906E-10    5.498E-10    4.088E-10    2.677E-10
     1.264E-10   -1.497E-11   -1.565E-10   -2.981E-10   -4.398E-10   -5.816E-10   -7.235E-10   -8.655E-10   -1.007E-09   -1.150E-09
    -1.292E-09   -1.434E-09   -1.576E-09   -1.718E-09   -1.860E-09   -2.002E-09   -2.144E-09   -2.286E-09   -2.427E-09   -2.569E-09
    -2.711E-09   -2.852E-09   -2.993E-09   -3.134E-09   -3.275E-09   -3.416E-09   -3.556E-09   -3.696E-09   -3.836E-09   -3.976E-09
    -4.115E-09   -4.254E-09   -4.392E-09   -4.530E-09   -4.668E-09   -4.805E-09   -4.942E-09   -5.078E-09   -5.214E-09   -5.349E-09
    -5.484E-09   -5.618E-09   -5.752E-09   -5.885E-09   -6.017E-09   -6.149E-09   -6.281E-09   -6.411E-09   -6.542E-09   -6.671E-09
    -6.801E-09   -6.929E-09   -7.058E-09   -7.186E-09   -7.313E-09   -7.440E-09   -7.567E-09   -7.694E-09   -7.820E-09   -7.946E-09
    -8.073E-09   -8.199E-09   -8.325E-09   -8.451E-09   -8.577E-09   -8.703E-09   -8.829E-09   -8.956E-09   -9.083E-09   -9.210E-09
    -9.338E-09   -9.466E-09   -9.594E-09   -9.723E-09   -9.851E-09   -9.978E-09   -1.010E-08   -1.023E-08   -1.036E-08   -1.048E-08
    -1.060E-08   -1.072E-08   -1.084E-08   -1.095E-08   -1.107E-08   -1.117E-08   -1.128E-08   -1.138E-08   -1.148E-08   -1.157E-08
    -1.166E-08   -1.175E-08   -1.183E-08   -1.190E-08   -1.197E-08   -1.203E-08   -1.208E-08   -1.213E-08   -1.216E-08   -1.219E-08
    -1.222E-08   -1.223E-08   -1.224E-08   -1.224E-08   -1.222E-08   -1.220E-08   -1.217E-08   -1.214E-08   -1.209E-08   -1.203E-08
    -1.196E-08   -1.188E-08   -1.180E-08   -1.170E-08   -1.159E-08   -1.147E-08   -1.134E-08   -1.120E-08   -1.105E-08   -1.088E-08
    -1.071E-08   -1.052E-08   -1.032E-08   -1.011E-08   -9.888E-09   -9.653E-09   -9.406E-09   -9.148E-09   -8.879E-09   -8.599E-09
    -8.311E-09   -8.014E-09   -7.709E-09   -7.398E-09   -7.081E-09   -6.759E-09   -6.432E-09   -6.102E-09   -5.770E-09   -5.437E-09
    -5.103E-09   -4.769E-09   -4.437E-09   -4.107E-09   -3.780E-09   -3.458E-09   -3.140E-09   -2.830E-09   -2.526E-09   -2.230E-09
    -1.944E-09   -1.668E-09   -1.403E-09   -1.151E-09   -9.115E-10   -6.848E-10   -4.708E-10   -2.690E-10   -7.946E-11    9.823E-11
     2.643E-10    4.190E-10    5.626E-10    6.954E-10    8.176E-10    9.296E-10    1.032E-09    1.124E-09    1.207E-09    1.281E-09
     1.346E-09    1.403E-09    1.452E-09    1.494E-09    1.528E-09    1.554E-09    1.575E-09    1.589E-09    1.597E-09    1.599E-09
     1.596E-09    1.589E-09    1.576E-09    1.560E-09    1.539E-09    1.514E-09    1.486E-09    1.454E-09    1.418E-09    1.380E-09
     1.338E-09    1.294E-09    1.247E-09    1.198E-09    1.147E-09    1.094E-09    1.039E-09    9.828E-10    9.251E-10    8.664E-10
     8.068E-10    7.465E-10    6.857E-10    6.247E-10    5.637E-10    5.027E-10    4.422E-10    3.822E-10    3.229E-10    2.646E-10
     2.073E-10    1.510E-10    9.585E-11    4.172E-11   -1.135E-11   -6.336E-11   -1.143E-10   -1.642E-10   -2.130E-10   -2.607E-10
    -3.073E-10   -3.529E-10   -3.974E-10   -4.408E-10   -4.831E-10   -5.243E-10   -5.645E-10   -6.036E-10   -6.416E-10   -6.785E-10
    -7.143E-10   -7.491E-10   -7.828E-10   -8.154E-10   -8.470E-10   -8.775E-10   -9.070E-10   -9.353E-10   -9.627E-10   -9.891E-10
    -1.014E-09   -1.039E-09   -1.062E-09   -1.085E-09   -1.107E-09   -1.128E-09   -1.148E-09   -1.168E-09   -1.187E-09   -1.205E-09
    -1.222E-09   -1.239E-09   -1.255E-09   -1.271E-09   -1.286E-09   -1.300E-09   -1.314E-09   -1.328E-09   -1.341E-09   -1.354E-09
    -1.366E-09   -1.378E-09   -1.389E-09   -1.400E-09   -1.411E-09   -1.422E-09   -1.432E-09   -1.442E-09   -1.452E-09   -1.461E-09
    -1.470E-09   -1.478E-09   -1.487E-09   -1.494E-09   -1.502E-09   -1.509E-09   -1.516E-09   -1.522E-09   -1.528E-09   -1.533E-09
    -1.538E-09   -1.542E-09   -1.546E-09   -1.550E-09   -1.553E-09   -1.556E-09   -1.558E-09   -1.559E-09   -1.560E-09   -1.561E-09
    -1.561E-09   -1.560E-09   -1.559E-09
 Asp      Conc. = 1.23E-09
   8.34792E-09  8.24776E-09  8.16830E-09  8.12422E-09  8.09324E-09  8.10403E-09  8.12257E-09  8.13352E-09  8.10739E-09  8.05847E-09
   7.99475E-09  7.92047E-09  7.83817E-09  7.74966E-09  7.65708E-09  7.56153E-09  7.46358E-09  7.36373E-09  7.26238E-09  7.15987E-09
   7.05653E-09  6.95262E-09  6.84843E-09  6.74418E-09  6.64014E-09  6.53660E-09  6.43383E-09  6.33215E-09  6.23193E-09  6.13360E-09
   6.03768E-09  5.94478E-09  5.85565E-09  5.77114E-09  5.69179E-09  5.61491E-09  5.50937E-09  5.38418E-09  5.21590E-09  5.03747E-09
   4.88480E-09  4.78253E-09  4.72870E-09  4.65186E-09  4.54172E-09  4.26936E-09  3.92052E-09  3.61261E-09  3.28021E-09  2.88331E-09
   2.41459E-09  1.92432E-09  1.47171E-09  1.14752E-09  1.01344E-09  9.70075E-10  9.54002E-10  8.26853E-10  6.98937E-10  6.35265E-10
   5.70675E-10  4.84748E-10  3.91418E-10  2.72702E-10  1.27520E-10 -3.02697E-12 -9.04474E-11 -1.77971E-10 -2.71373E-10 -3.70355E-10
  -4.74084E-10 -5.81796E-10 -6.92867E-10 -8.06792E-10 -9.23162E-10 -1.04164E-09 -1.16196E-09 -1.28388E-09 -1.40721E-09 -1.53177E-09
  -1.65743E-09 -1.78406E-09 -1.91153E-09 -2.03976E-09 -2.16865E-09 -2.29813E-09 -2.42812E-09 -2.55856E-09 -2.68938E-09 -2.82052E-09
  -2.95194E-09 -3.08358E-09 -3.21539E-09 -3.34734E-09 -3.47938E-09 -3.61145E-09 -3.74354E-09 -3.87560E-09 -4.00759E-09 -4.13949E-09
  -4.27124E-09 -4.40282E-09 -4.53419E-09 -4.66533E-09 -4.79620E-09 -4.92675E-09 -5.05698E-09 -5.18683E-09 -5.31629E-09 -5.44531E-09
  -5.57388E-09 -5.70196E-09 -5.82949E-09 -5.95650E-09 -6.08298E-09 -6.20891E-09 -6.33433E-09 -6.45923E-09 -6.58363E-09 -6.70752E-09
  -6.83094E-09 -6.95390E-09 -7.07642E-09 -7.19852E-09 -7.32023E-09 -7.44157E-09 -7.56257E-09 -7.68327E-09 -7.80370E-09 -7.92389E-09
  -8.04386E-09 -8.16366E-09 -8.28333E-09 -8.40289E-09 -8.52241E-09 -8.64189E-09 -8.76141E-09 -8.88099E-09 -9.00068E-09 -9.12050E-09
  -9.24042E-09 -9.36041E-09 -9.48021E-09 -9.59958E-09 -9.71827E-09 -9.83602E-09 -9.95254E-09 -1.00675E-08 -1.01806E-08 -1.02915E-08
  -1.03998E-08 -1.05050E-08 -1.06067E-08 -1.07044E-08 -1.07975E-08 -1.08852E-08 -1.09668E-08 -1.10412E-08 -1.11073E-08 -1.11634E-08
  -1.12071E-08 -1.12354E-08 -1.12430E-08 -1.12211E-08 -1.11521E-08 -1.09925E-08 -1.06057E-08 -1.01658E-08 -9.89759E-09 -9.83900E-09
  -9.94411E-09 -1.01574E-08 -1.04511E-08 -1.08276E-08 -1.12981E-08 -1.18444E-08 -1.23793E-08 -1.27389E-08 -1.27650E-08 -1.26238E-08
  -1.24807E-08 -1.23421E-08 -1.22048E-08 -1.20657E-08 -1.19226E-08 -1.17738E-08 -1.16180E-08 -1.14544E-08 -1.12822E-08 -1.11008E-08
  -1.09096E-08 -1.07083E-08 -1.04965E-08 -1.02740E-08 -1.00403E-08 -9.79522E-09 -9.53874E-09 -9.27140E-09 -8.99384E-09 -8.70678E-09
  -8.41098E-09 -8.10717E-09 -7.79612E-09 -7.47867E-09 -7.15560E-09 -6.82777E-09 -6.49602E-09 -6.16122E-09 -5.82430E-09 -5.48613E-09
  -5.14758E-09 -4.80967E-09 -4.47326E-09 -4.13931E-09 -3.80879E-09 -3.48268E-09 -3.16192E-09 -2.84755E-09 -2.54050E-09 -2.24183E-09
  -1.95246E-09 -1.67348E-09 -1.40583E-09 -1.15056E-09 -9.08306E-10 -6.78953E-10 -4.62268E-10 -2.58013E-10 -6.59604E-11  1.14137E-10
   2.82540E-10  4.39520E-10  5.85328E-10  7.20259E-10  8.44619E-10  9.58659E-10  1.06271E-09  1.15705E-09  1.24205E-09  1.31795E-09
   1.38511E-09  1.44388E-09  1.49456E-09  1.53748E-09  1.57304E-09  1.60156E-09  1.62338E-09  1.63887E-09  1.64837E-09  1.65224E-09
   1.65090E-09  1.64463E-09  1.63380E-09  1.61858E-09  1.59917E-09  1.57577E-09  1.54858E-09  1.51780E-09  1.48363E-09  1.44628E-09
   1.40596E-09  1.36286E-09  1.31719E-09  1.26917E-09  1.21899E-09  1.16688E-09  1.11303E-09  1.05765E-09  1.00096E-09  9.43159E-10
   8.84456E-10  8.25060E-10  7.65175E-10  7.05010E-10  6.44768E-10  5.84653E-10  5.24868E-10  4.65612E-10  4.07088E-10  3.49487E-10
   2.92905E-10  2.37352E-10  1.82832E-10  1.29345E-10  7.69066E-11  2.55101E-11 -2.48332E-11 -7.41266E-11 -1.22365E-10 -1.69543E-10
  -2.15661E-10 -2.60718E-10 -3.04712E-10 -3.47642E-10 -3.89506E-10 -4.30307E-10 -4.70043E-10 -5.08715E-10 -5.46319E-10 -5.82869E-10
  -6.18351E-10 -6.52779E-10 -6.86151E-10 -7.18464E-10 -7.49728E-10 -7.79946E-10 -8.09116E-10 -8.37253E-10 -8.64371E-10 -8.90504E-10
  -9.15684E-10 -9.39943E-10 -9.63312E-10 -9.85823E-10 -1.00750E-09 -1.02839E-09 -1.04851E-09 -1.06788E-09 -1.08656E-09 -1.10455E-09
  -1.12189E-09 -1.13861E-09 -1.15473E-09 -1.17028E-09 -1.18530E-09 -1.19980E-09 -1.21381E-09 -1.22736E-09 -1.24046E-09 -1.25315E-09
  -1.26545E-09 -1.27738E-09 -1.28896E-09 -1.30022E-09 -1.31116E-09 -1.32182E-09 -1.33219E-09 -1.34225E-09 -1.35199E-09 -1.36141E-09
  -1.37050E-09 -1.37923E-09 -1.38761E-09 -1.39562E-09 -1.40325E-09 -1.41050E-09 -1.41735E-09 -1.42379E-09 -1.42982E-09 -1.43542E-09
  -1.44059E-09 -1.44532E-09 -1.44960E-09 -1.45342E-09 -1.45677E-09 -1.45965E-09 -1.46204E-09 -1.46395E-09 -1.46536E-09 -1.46627E-09
  -1.46667E-09 -1.46655E-09 -1.46591E-09
 GABA     Conc. = 1.82E-09
   1.00921E-08  9.99378E-09  9.89576E-09  9.79809E-09  9.70083E-09  9.60412E-09  9.50802E-09  9.41272E-09  9.31833E-09  9.22496E-09
   9.13287E-09  9.04222E-09  8.95321E-09  8.86615E-09  8.78128E-09  8.69891E-09  8.61964E-09  8.54396E-09  8.47240E-09  8.40587E-09
   8.34532E-09  8.29192E-09  8.24728E-09  8.21329E-09  8.19243E-09  8.18812E-09  8.20425E-09  8.24387E-09  8.29258E-09  8.17093E-09
   7.95929E-09  7.83365E-09  7.48340E-09  6.85351E-09  6.18509E-09  5.44582E-09  4.63367E-09  3.82513E-09  3.11128E-09  2.55344E-09
   2.14635E-09  1.80995E-09  1.70329E-09  1.87189E-09  1.97485E-09  2.05120E-09  2.25815E-09  2.44691E-09  2.57333E-09  2.65775E-09
   2.71428E-09  2.75245E-09  2.77933E-09  2.80020E-09  2.81964E-09  2.84216E-09  2.87246E-09  2.91594E-09  2.97935E-09  3.07125E-09
   3.19965E-09  3.31771E-09  3.21578E-09  3.05301E-09  2.92208E-09  2.48554E-09  1.82294E-09  1.12552E-09  3.75721E-10 -3.93342E-10
  -1.10959E-09 -1.69002E-09 -2.08514E-09 -2.33404E-09 -2.52992E-09 -2.46343E-09 -2.20768E-09 -2.11654E-09 -1.99271E-09 -1.74293E-09
  -1.59831E-09 -1.49509E-09 -1.30691E-09 -1.25148E-09 -1.33942E-09 -1.40787E-09 -1.56496E-09 -1.85924E-09 -2.22889E-09 -2.65605E-09
  -3.09102E-09 -3.53804E-09 -4.03875E-09 -4.44651E-09 -4.70344E-09 -5.00936E-09 -5.27160E-09 -5.37440E-09 -5.47222E-09 -5.57655E-09
  -5.63882E-09 -5.69190E-09 -5.74875E-09 -5.81159E-09 -5.88041E-09 -5.95447E-09 -6.03298E-09 -6.11533E-09 -6.20105E-09 -6.28973E-09
  -6.38103E-09 -6.47438E-09 -6.56939E-09 -6.66584E-09 -6.76353E-09 -6.86231E-09 -6.96213E-09 -7.06279E-09 -7.16416E-09 -7.26612E-09
  -7.36861E-09 -7.47156E-09 -7.57492E-09 -7.67865E-09 -7.78269E-09 -7.88704E-09 -7.99164E-09 -8.09649E-09 -8.20158E-09 -8.30689E-09
  -8.41242E-09 -8.51818E-09 -8.62416E-09 -8.73037E-09 -8.83683E-09 -8.94352E-09 -9.05050E-09 -9.15776E-09 -9.26532E-09 -9.37316E-09
  -9.48124E-09 -9.58949E-09 -9.69762E-09 -9.80538E-09 -9.91246E-09 -1.00186E-08 -1.01234E-08 -1.02265E-08 -1.03277E-08 -1.04263E-08
  -1.05221E-08 -1.06144E-08 -1.07028E-08 -1.07865E-08 -1.08648E-08 -1.09369E-08 -1.10017E-08 -1.10578E-08 -1.11036E-08 -1.11368E-08
  -1.11542E-08 -1.11513E-08 -1.11208E-08 -1.10497E-08 -1.09127E-08 -1.06471E-08 -1.00554E-08 -9.37061E-09 -8.93768E-09 -8.82027E-09
  -8.95276E-09 -9.25258E-09 -9.67676E-09 -1.02279E-08 -1.09229E-08 -1.17373E-08 -1.25454E-08 -1.31077E-08 -1.31856E-08 -1.30021E-08
  -1.28191E-08 -1.26477E-08 -1.24832E-08 -1.23211E-08 -1.21583E-08 -1.19922E-08 -1.18212E-08 -1.16438E-08 -1.14592E-08 -1.12664E-08
  -1.10648E-08 -1.08539E-08 -1.06331E-08 -1.04021E-08 -1.01605E-08 -9.90792E-09 -9.64435E-09 -9.37027E-09 -9.08629E-09 -8.79309E-09
  -8.49140E-09 -8.18195E-09 -7.86547E-09 -7.54279E-09 -7.21468E-09 -6.88198E-09 -6.54551E-09 -6.20616E-09 -5.86481E-09 -5.52234E-09
  -5.17962E-09 -4.83765E-09 -4.49729E-09 -4.15950E-09 -3.82524E-09 -3.49547E-09 -3.17116E-09 -2.85331E-09 -2.54287E-09 -2.24088E-09
  -1.94827E-09 -1.66612E-09 -1.39537E-09 -1.13706E-09 -8.91841E-10 -6.59582E-10 -4.40051E-10 -2.33010E-10 -3.82272E-11  1.44545E-10
