 LCModel (Version 6.3-1R) Copyright: S.W. Provencher.          Ref.: Magn. Reson. Med. 30:672-679 (1993).                
 onepulse 28x25_ftSpec_smooth_lcm
 26 lines in following concentration table = NCONC+1
    Conc.  %SD   /Cr    Metabolite                                         
 1.17E-10 309%   0.000 Ala                                                 
 9.58E-10  75%   0.000 Asp                                                 
    0.000 999%   0.000 Cr                                                  
 2.65E-09  19%   0.000 GABA                                                
 2.42E-09  24%   0.000 Glc                                                 
    0.000 999%   0.000 Gln                                                 
    0.000 999%   0.000 Glu                                                 
    0.000 999%   0.000 Glyc                                                
 1.77E-10  57%   0.000 GPC                                                 
 4.39E-10  92%   0.000 GSH                                                 
 5.94E-10  67%   0.000 Ins                                                 
    0.000 999%   0.000 Lac                                                 
    0.000 999%   0.000 NAAG                                                
 1.07E-09  27%   0.000 NAA                                                 
    0.000 999%   0.000 PCh                                                 
    0.000 999%   0.000 PCr                                                 
    0.000 999%   0.000 PE                                                  
    0.000 999%   0.000 Scyllo                                              
    0.000 999%   0.000 Ser                                                 
    0.000 999%   0.000 Tau                                                 
 1.77E-10  57%   0.000 GPC+PCh                                             
 1.07E-09  27%   0.000 NAA+NAAG                                            
 5.94E-10  67%   0.000 Ins+Glyc                                            
    0.000 999%   0.000 Cr+PCr                                              
    0.000 999%   0.000 Glu+Gln                                             
   6 lines in following misc. output table
  FWHM = 0.089 ppm    S/N =   2                                            
  Data shift = 0.324 ppm                                                   
  Ph:  29 deg      22.7 deg/ppm                                            
  alphaB,S = 1.4E-01,   9.0E+01                                            
   16 spline knots.   Ns = 5(1)                                            
  (12) 2 infls.   ( 9) 1 extrs.                                            
  363 points on ppm-axis = NY
      4.250000     4.238821     4.227641     4.216462     4.205282     4.194103     4.182923     4.171744     4.160564     4.149385
      4.138206     4.127026     4.115847     4.104667     4.093488     4.082308     4.071129     4.059949     4.048770     4.037591
      4.026411     4.015232     4.004052     3.992873     3.981693     3.970514     3.959334     3.948155     3.936975     3.925796
      3.914617     3.903437     3.892258     3.881078     3.869899     3.858719     3.847540     3.836360     3.825181     3.814002
      3.802822     3.791643     3.780463     3.769284     3.758104     3.746925     3.735745     3.724566     3.713387     3.702207
      3.691028     3.679848     3.668669     3.657489     3.646310     3.635130     3.623951     3.612772     3.601592     3.590413
      3.579233     3.568054     3.556874     3.545695     3.534515     3.523336     3.512156     3.500977     3.489798     3.478618
      3.467439     3.456259     3.445080     3.433900     3.422721     3.411541     3.400362     3.389183     3.378003     3.366824
      3.355644     3.344465     3.333285     3.322106     3.310926     3.299747     3.288568     3.277388     3.266209     3.255029
      3.243850     3.232670     3.221491     3.210311     3.199132     3.187953     3.176773     3.165594     3.154414     3.143235
      3.132055     3.120876     3.109696     3.098517     3.087337     3.076158     3.064979     3.053799     3.042620     3.031440
      3.020261     3.009081     2.997902     2.986722     2.975543     2.964364     2.953184     2.942005     2.930825     2.919646
      2.908466     2.897287     2.886107     2.874928     2.863749     2.852569     2.841390     2.830210     2.819031     2.807851
      2.796672     2.785492     2.774313     2.763134     2.751954     2.740775     2.729595     2.718416     2.707236     2.696057
      2.684877     2.673698     2.662519     2.651339     2.640160     2.628980     2.617801     2.606621     2.595442     2.584262
      2.573083     2.561903     2.550724     2.539545     2.528365     2.517186     2.506006     2.494827     2.483647     2.472468
      2.461288     2.450109     2.438930     2.427750     2.416571     2.405391     2.394212     2.383032     2.371853     2.360673
      2.349494     2.338315     2.327135     2.315956     2.304776     2.293597     2.282417     2.271238     2.260058     2.248879
      2.237700     2.226520     2.215341     2.204161     2.192982     2.181802     2.170623     2.159443     2.148264     2.137084
      2.125905     2.114726     2.103546     2.092367     2.081187     2.070008     2.058828     2.047649     2.036469     2.025290
      2.014111     2.002931     1.991752     1.980572     1.969393     1.958213     1.947034     1.935854     1.924675     1.913496
      1.902316     1.891137     1.879957     1.868778     1.857598     1.846419     1.835239     1.824060     1.812881     1.801701
      1.790522     1.779342     1.768163     1.756983     1.745804     1.734624     1.723445     1.712265     1.701086     1.689907
      1.678727     1.667548     1.656368     1.645189     1.634009     1.622830     1.611650     1.600471     1.589292     1.578112
      1.566933     1.555753     1.544574     1.533394     1.522215     1.511035     1.499856     1.488677     1.477497     1.466318
      1.455138     1.443959     1.432779     1.421600     1.410420     1.399241     1.388062     1.376882     1.365703     1.354523
      1.343344     1.332164     1.320985     1.309805     1.298626     1.287446     1.276267     1.265088     1.253908     1.242729
      1.231549     1.220370     1.209190     1.198011     1.186831     1.175652     1.164473     1.153293     1.142114     1.130934
      1.119755     1.108575     1.097396     1.086216     1.075037     1.063858     1.052678     1.041499     1.030319     1.019140
      1.007960     0.996781     0.985601     0.974422     0.963243     0.952063     0.940884     0.929704     0.918525     0.907345
      0.896166     0.884986     0.873807     0.862628     0.851448     0.840269     0.829089     0.817910     0.806730     0.795551
      0.784371     0.773192     0.762012     0.750833     0.739654     0.728474     0.717295     0.706115     0.694936     0.683756
      0.672577     0.661397     0.650218     0.639039     0.627859     0.616680     0.605500     0.594321     0.583141     0.571962
      0.560782     0.549603     0.538424     0.527244     0.516065     0.504885     0.493706     0.482526     0.471347     0.460167
      0.448988     0.437809     0.426629     0.415450     0.404270     0.393091     0.381911     0.370732     0.359552     0.348373
      0.337193     0.326014     0.314835     0.303655     0.292476     0.281296     0.270117     0.258937     0.247758     0.236578
      0.225399     0.214220     0.203040
 NY phased data points follow
   1.09769E-08  1.16014E-08  1.38659E-08  1.53387E-08  1.79463E-08  1.78823E-08  1.73825E-08  1.64212E-08  1.59272E-08  1.47566E-08
   1.51711E-08  1.46128E-08  1.48738E-08  1.47741E-08  1.50662E-08  1.44635E-08  1.54449E-08  1.55067E-08  1.59310E-08  1.55819E-08
   1.61763E-08  1.59686E-08  1.57878E-08  1.49044E-08  1.50116E-08  1.41842E-08  1.47282E-08  1.41293E-08  1.57258E-08  1.47231E-08
   1.45084E-08  1.41529E-08  1.38517E-08  1.36985E-08  1.54219E-08  1.58126E-08  1.66233E-08  1.56511E-08  1.60385E-08  1.45703E-08
   1.43010E-08  1.28181E-08  1.30870E-08  1.23852E-08  1.31193E-08  1.17743E-08  1.18751E-08  1.07726E-08  1.13489E-08  9.86758E-09
   1.03060E-08  9.56263E-09  1.01646E-08  9.10947E-09  1.04822E-08  9.44391E-09  1.00967E-08  8.87147E-09  9.19588E-09  9.05161E-09
   9.23046E-09  9.21559E-09  9.91430E-09  9.57513E-09  1.03878E-08  1.09664E-08  1.29770E-08  1.33356E-08  1.31921E-08  1.22249E-08
   1.11417E-08  1.05118E-08  9.95136E-09  9.35879E-09  8.06445E-09  8.56413E-09  8.44249E-09  8.01701E-09  8.32286E-09  8.24608E-09
   9.08940E-09  1.14914E-08  1.40593E-08  1.57095E-08  1.63432E-08  1.53562E-08  1.42500E-08  1.32842E-08  1.25731E-08  1.18062E-08
   1.14270E-08  1.10109E-08  1.13485E-08  9.98845E-09  1.00791E-08  9.23491E-09  8.90511E-09  8.72630E-09  8.14311E-09  7.72497E-09
   7.88399E-09  7.10216E-09  7.32112E-09  6.68527E-09  7.31882E-09  6.88239E-09  7.24494E-09  6.66412E-09  6.36515E-09  6.18418E-09
   6.24105E-09  4.87801E-09  5.07736E-09  4.15774E-09  3.97353E-09  4.70341E-09  4.92518E-09  4.76570E-09  4.26359E-09  4.25482E-09
   4.38501E-09  3.94286E-09  4.26034E-09  3.38832E-09  3.42655E-09  2.74132E-09  2.75248E-09  1.60904E-09  2.42421E-09  1.74991E-09
   2.97025E-09  2.80909E-09  2.91201E-09  3.10608E-09  3.53332E-09  3.20257E-09  4.09279E-09  3.61194E-09  3.63676E-09  3.74507E-09
   4.45396E-09  4.65385E-09  5.58503E-09  6.09082E-09  6.68061E-09  5.70387E-09  5.65437E-09  6.04878E-09  6.66719E-09  6.52915E-09
   6.92246E-09  6.56167E-09  6.38597E-09  7.11190E-09  6.91844E-09  6.82591E-09  6.93931E-09  7.45859E-09  7.62114E-09  7.34301E-09
   7.72134E-09  7.42198E-09  8.38802E-09  8.23959E-09  8.60686E-09  8.46415E-09  8.70941E-09  9.03231E-09  9.42808E-09  9.97117E-09
   9.99636E-09  1.07993E-08  1.32765E-08  1.44407E-08  1.37947E-08  1.21059E-08  8.23509E-09  5.86494E-09  3.76393E-09  1.86017E-09
   1.04426E-09 -6.71211E-10 -1.30529E-09 -2.64719E-09 -3.63720E-09 -4.25703E-09 -6.09898E-09 -6.68157E-09 -7.75441E-09 -8.94388E-09
  -9.68989E-09 -1.07590E-08 -1.18988E-08 -1.36230E-08 -1.45228E-08 -1.53634E-08 -1.64428E-08 -1.82600E-08 -1.91698E-08 -2.06939E-08
  -2.15951E-08 -2.25230E-08 -2.28922E-08 -2.29231E-08 -2.26047E-08 -2.20471E-08 -2.11555E-08 -2.03310E-08 -1.92456E-08 -1.85713E-08
  -1.75874E-08 -1.66907E-08 -1.45789E-08 -1.32725E-08 -1.17481E-08 -1.02881E-08 -8.33185E-09 -6.02737E-09 -4.00744E-09 -1.56948E-09
   4.82801E-10  2.03220E-09  3.29460E-09  2.76659E-09  3.71904E-09  2.97346E-09  2.20395E-09  8.65022E-10  5.07969E-10  4.64337E-10
   4.73643E-10  7.93604E-10  8.65877E-10  8.99100E-10  1.20149E-09  4.08927E-10  6.86462E-11 -1.60584E-10  1.06464E-10  1.54195E-10
  -7.80591E-11  6.57161E-10  5.67745E-10  1.16855E-09  1.55713E-09  9.81898E-10  1.59876E-09  1.29033E-09  1.08996E-09  8.92551E-10
   4.91038E-10  8.45875E-10  9.27278E-10  1.37487E-09  1.84490E-09  1.57828E-09  2.11066E-09  2.26504E-09  1.61793E-09  1.67833E-09
   1.80632E-09  1.19568E-09  9.43659E-10  6.12466E-10  4.85166E-10  9.36222E-11  5.11426E-10  1.01166E-09  5.14639E-10  9.76212E-10
   9.63399E-10  1.00286E-09  1.16045E-09  1.01087E-09  1.52171E-09  1.32079E-09  9.31565E-10  1.01781E-09  8.95908E-10  8.64657E-10
   9.40097E-10  1.16130E-09  6.83145E-10  7.75646E-11  3.82690E-10  6.71451E-10  5.04319E-10  5.51613E-10  2.55182E-11  4.98738E-10
   5.77655E-11  1.10571E-09  2.95250E-10  6.89377E-10  4.01225E-10  3.04249E-10  4.25464E-10  6.86268E-10  6.91533E-12  6.63536E-10
   7.04578E-10  1.97454E-10  6.14266E-10  4.70805E-10  1.15264E-09  1.11387E-09  9.10574E-10  7.20047E-10  1.14103E-09  7.38472E-10
   7.72774E-10  1.47189E-09  1.33846E-09  1.27973E-09  1.67107E-09  1.50135E-09  1.23223E-09  1.73860E-09  1.57693E-09  1.44195E-09
   1.86690E-09  1.82634E-09  1.57597E-09  1.66265E-09  1.40481E-09  1.83561E-09  1.76079E-09  1.92307E-09  1.64851E-09  2.21421E-09
   1.92164E-09  2.13770E-09  1.84110E-09  1.98415E-09  1.82549E-09  2.11018E-09  2.04003E-09  2.12436E-09  1.92990E-09  1.87437E-09
   2.22564E-09  2.20834E-09  2.25969E-09  2.30877E-09  2.49769E-09  2.30806E-09  2.05949E-09  2.61217E-09  2.16813E-09  2.59264E-09
   2.43564E-09  2.32842E-09  2.33706E-09  2.67045E-09  2.45303E-09  2.36741E-09  2.68483E-09  2.39562E-09  2.39483E-09  2.56266E-09
   2.56539E-09  2.28897E-09  2.57329E-09
 NY points of the fit to the data follow
   1.21481E-08  1.32091E-08  1.41779E-08  1.51152E-08  1.59147E-08  1.64896E-08  1.66083E-08  1.61984E-08  1.55573E-08  1.47234E-08
   1.41436E-08  1.39700E-08  1.39650E-08  1.41448E-08  1.44925E-08  1.50084E-08  1.56162E-08  1.61908E-08  1.65009E-08  1.65827E-08
   1.66992E-08  1.66776E-08  1.62635E-08  1.56501E-08  1.49579E-08  1.42160E-08  1.37165E-08  1.37270E-08  1.40861E-08  1.47194E-08
   1.51121E-08  1.51363E-08  1.51974E-08  1.50639E-08  1.47252E-08  1.47839E-08  1.51724E-08  1.55077E-08  1.56060E-08  1.54582E-08
   1.51198E-08  1.46570E-08  1.37358E-08  1.27401E-08  1.20947E-08  1.14270E-08  1.07072E-08  1.01960E-08  9.93510E-09  9.91377E-09
   1.00133E-08  1.01058E-08  1.01006E-08  9.96164E-09  9.76023E-09  9.60970E-09  9.55840E-09  9.63236E-09  9.61253E-09  9.44448E-09
   9.27560E-09  9.32058E-09  9.57399E-09  9.87644E-09  1.04641E-08  1.11978E-08  1.17443E-08  1.21353E-08  1.24474E-08  1.25853E-08
   1.24915E-08  1.20406E-08  1.13394E-08  1.06195E-08  9.80151E-09  8.92491E-09  8.59164E-09  9.07960E-09  9.89126E-09  1.08838E-08
   1.18951E-08  1.27947E-08  1.37340E-08  1.46062E-08  1.50216E-08  1.48404E-08  1.40305E-08  1.26628E-08  1.12326E-08  1.05936E-08
   1.03649E-08  1.02353E-08  9.99803E-09  9.54249E-09  9.15065E-09  8.79969E-09  8.26181E-09  7.79080E-09  7.47093E-09  7.16357E-09
   6.93693E-09  6.77959E-09  6.66101E-09  6.60080E-09  6.57214E-09  6.54950E-09  6.51581E-09  6.46114E-09  6.37966E-09  6.26938E-09
   6.13854E-09  6.01098E-09  5.90656E-09  5.77876E-09  5.65585E-09  5.58428E-09  5.53164E-09  5.48775E-09  5.44885E-09  5.41302E-09
   5.37917E-09  5.34647E-09  5.31432E-09  5.28220E-09  5.24967E-09  5.21636E-09  5.18191E-09  5.14602E-09  5.10841E-09  5.06876E-09
   5.02680E-09  4.98229E-09  4.93498E-09  4.88461E-09  4.83097E-09  4.77381E-09  4.71293E-09  4.64810E-09  4.57913E-09  4.50582E-09
   4.42796E-09  4.34547E-09  4.25818E-09  4.16600E-09  4.06884E-09  3.96664E-09  3.85934E-09  3.74692E-09  3.62938E-09  3.50674E-09
   3.37910E-09  3.24661E-09  3.10950E-09  2.96809E-09  2.82285E-09  2.67444E-09  2.52378E-09  2.37217E-09  2.22153E-09  2.07462E-09
   1.93572E-09  1.81165E-09  1.71406E-09  1.66474E-09  1.71089E-09  1.98212E-09  3.00310E-09  5.58477E-09  8.58828E-09  1.11511E-08
   1.31544E-08  1.47068E-08  1.57062E-08  1.57390E-08  1.43093E-08  1.11432E-08  6.45972E-09  1.22197E-09 -2.79797E-09 -4.34139E-09
  -4.98660E-09 -5.42236E-09 -5.78212E-09 -6.10478E-09 -6.40460E-09 -6.68740E-09 -6.95546E-09 -7.20947E-09 -7.44927E-09 -7.67433E-09
  -7.88386E-09 -8.07693E-09 -8.25253E-09 -8.40959E-09 -8.54705E-09 -8.66383E-09 -8.75919E-09 -8.83361E-09 -8.88782E-09 -8.92252E-09
  -8.93843E-09 -8.93623E-09 -8.91666E-09 -8.88042E-09 -8.82820E-09 -8.76073E-09 -8.67871E-09 -8.58284E-09 -8.47384E-09 -8.35240E-09
  -8.21924E-09 -8.07506E-09 -7.92055E-09 -7.75643E-09 -7.58340E-09 -7.40215E-09 -7.21338E-09 -7.01778E-09 -6.81607E-09 -6.60891E-09
  -6.39701E-09 -6.18105E-09 -5.96172E-09 -5.73970E-09 -5.51560E-09 -5.28984E-09 -5.06282E-09 -4.83494E-09 -4.60661E-09 -4.37824E-09
  -4.15022E-09 -3.92294E-09 -3.69682E-09 -3.47224E-09 -3.24957E-09 -3.02923E-09 -2.81160E-09 -2.59707E-09 -2.38599E-09 -2.17879E-09
  -1.97584E-09 -1.77749E-09 -1.58414E-09 -1.39617E-09 -1.21391E-09 -1.03776E-09 -8.68064E-10 -7.05196E-10 -5.49527E-10 -4.01419E-10
  -2.61171E-10 -1.29213E-10 -5.56220E-12  1.10041E-10  2.17886E-10  3.18267E-10  4.11490E-10  4.97839E-10  5.77617E-10  6.51110E-10
   7.18603E-10  7.80401E-10  8.36773E-10  8.88022E-10  9.34418E-10  9.76253E-10  1.01383E-09  1.04738E-09  1.07721E-09  1.10361E-09
   1.12684E-09  1.14717E-09  1.16490E-09  1.18027E-09  1.19356E-09  1.20505E-09  1.21498E-09  1.22364E-09  1.23126E-09  1.23814E-09
   1.24440E-09  1.25012E-09  1.25535E-09  1.26015E-09  1.26460E-09  1.26874E-09  1.27263E-09  1.27633E-09  1.27991E-09  1.28342E-09
   1.28691E-09  1.29044E-09  1.29408E-09  1.29786E-09  1.30186E-09  1.30612E-09  1.31071E-09  1.31566E-09  1.32104E-09  1.32689E-09
   1.33328E-09  1.34024E-09  1.34784E-09  1.35613E-09  1.36514E-09  1.37494E-09  1.38557E-09  1.39706E-09  1.40943E-09  1.42263E-09
   1.43662E-09  1.45137E-09  1.46685E-09  1.48300E-09  1.49981E-09  1.51724E-09  1.53524E-09  1.55379E-09  1.57286E-09  1.59239E-09
   1.61238E-09  1.63277E-09  1.65353E-09  1.67464E-09  1.69605E-09  1.71774E-09  1.73968E-09  1.76182E-09  1.78415E-09  1.80663E-09
   1.82921E-09  1.85189E-09  1.87462E-09  1.89737E-09  1.92012E-09  1.94284E-09  1.96550E-09  1.98811E-09  2.01065E-09  2.03312E-09
   2.05550E-09  2.07779E-09  2.09998E-09  2.12205E-09  2.14401E-09  2.16583E-09  2.18752E-09  2.20906E-09  2.23045E-09  2.25168E-09
   2.27273E-09  2.29361E-09  2.31430E-09  2.33480E-09  2.35509E-09  2.37518E-09  2.39504E-09  2.41468E-09  2.43409E-09  2.45326E-09
   2.47218E-09  2.49085E-09  2.50925E-09
 NY background values follow
     6.785E-09    6.749E-09    6.713E-09    6.676E-09    6.639E-09    6.602E-09    6.565E-09    6.527E-09    6.489E-09    6.451E-09
     6.412E-09    6.374E-09    6.335E-09    6.296E-09    6.257E-09    6.218E-09    6.179E-09    6.140E-09    6.100E-09    6.061E-09
     6.022E-09    5.982E-09    5.943E-09    5.904E-09    5.865E-09    5.826E-09    5.787E-09    5.748E-09    5.710E-09    5.671E-09
     5.633E-09    5.595E-09    5.558E-09    5.520E-09    5.483E-09    5.447E-09    5.411E-09    5.375E-09    5.339E-09    5.305E-09
     5.270E-09    5.236E-09    5.203E-09    5.170E-09    5.138E-09    5.107E-09    5.076E-09    5.046E-09    5.017E-09    4.989E-09
     4.961E-09    4.934E-09    4.908E-09    4.883E-09    4.859E-09    4.836E-09    4.814E-09    4.792E-09    4.772E-09    4.753E-09
     4.734E-09    4.717E-09    4.700E-09    4.684E-09    4.669E-09    4.654E-09    4.640E-09    4.627E-09    4.614E-09    4.602E-09
     4.590E-09    4.579E-09    4.568E-09    4.558E-09    4.548E-09    4.538E-09    4.529E-09    4.520E-09    4.511E-09    4.502E-09
     4.493E-09    4.485E-09    4.476E-09    4.467E-09    4.459E-09    4.450E-09    4.441E-09    4.433E-09    4.424E-09    4.415E-09
     4.406E-09    4.398E-09    4.389E-09    4.381E-09    4.373E-09    4.364E-09    4.356E-09    4.349E-09    4.341E-09    4.334E-09
     4.327E-09    4.320E-09    4.314E-09    4.307E-09    4.302E-09    4.296E-09    4.291E-09    4.286E-09    4.282E-09    4.278E-09
     4.275E-09    4.272E-09    4.270E-09    4.268E-09    4.266E-09    4.265E-09    4.263E-09    4.260E-09    4.257E-09    4.253E-09
     4.248E-09    4.241E-09    4.233E-09    4.223E-09    4.211E-09    4.197E-09    4.180E-09    4.161E-09    4.139E-09    4.114E-09
     4.085E-09    4.053E-09    4.018E-09    3.978E-09    3.934E-09    3.886E-09    3.833E-09    3.775E-09    3.713E-09    3.645E-09
     3.572E-09    3.493E-09    3.408E-09    3.317E-09    3.220E-09    3.117E-09    3.008E-09    2.891E-09    2.769E-09    2.639E-09
     2.502E-09    2.358E-09    2.206E-09    2.047E-09    1.880E-09    1.706E-09    1.523E-09    1.332E-09    1.133E-09    9.255E-10
     7.093E-10    4.844E-10    2.505E-10    7.536E-12   -2.446E-10   -5.062E-10   -7.772E-10   -1.058E-09   -1.348E-09   -1.647E-09
    -1.954E-09   -2.267E-09   -2.585E-09   -2.907E-09   -3.232E-09   -3.559E-09   -3.886E-09   -4.213E-09   -4.538E-09   -4.860E-09
    -5.177E-09   -5.490E-09   -5.796E-09   -6.095E-09   -6.385E-09   -6.665E-09   -6.934E-09   -7.191E-09   -7.435E-09   -7.664E-09
    -7.878E-09   -8.076E-09   -8.255E-09   -8.416E-09   -8.557E-09   -8.677E-09   -8.776E-09   -8.853E-09   -8.909E-09   -8.946E-09
    -8.964E-09   -8.963E-09   -8.945E-09   -8.910E-09   -8.859E-09   -8.792E-09   -8.710E-09   -8.615E-09   -8.506E-09   -8.385E-09
    -8.252E-09   -8.108E-09   -7.953E-09   -7.789E-09   -7.616E-09   -7.434E-09   -7.245E-09   -7.049E-09   -6.847E-09   -6.639E-09
    -6.426E-09   -6.210E-09   -5.989E-09   -5.767E-09   -5.542E-09   -5.315E-09   -5.087E-09   -4.858E-09   -4.629E-09   -4.400E-09
    -4.170E-09   -3.942E-09   -3.715E-09   -3.489E-09   -3.265E-09   -3.044E-09   -2.825E-09   -2.610E-09   -2.397E-09   -2.189E-09
    -1.985E-09   -1.785E-09   -1.591E-09   -1.402E-09   -1.218E-09   -1.041E-09   -8.698E-10   -7.057E-10   -5.488E-10   -3.994E-10
    -2.579E-10   -1.247E-10    1.580E-13    1.170E-10    2.261E-10    3.277E-10    4.222E-10    5.098E-10    5.908E-10    6.655E-10
     7.343E-10    7.973E-10    8.549E-10    9.074E-10    9.550E-10    9.981E-10    1.037E-09    1.072E-09    1.103E-09    1.130E-09
     1.155E-09    1.176E-09    1.195E-09    1.212E-09    1.226E-09    1.239E-09    1.250E-09    1.260E-09    1.269E-09    1.277E-09
     1.284E-09    1.291E-09    1.298E-09    1.304E-09    1.309E-09    1.314E-09    1.319E-09    1.324E-09    1.329E-09    1.334E-09
     1.338E-09    1.343E-09    1.348E-09    1.353E-09    1.358E-09    1.363E-09    1.369E-09    1.375E-09    1.381E-09    1.388E-09
     1.396E-09    1.404E-09    1.412E-09    1.422E-09    1.432E-09    1.443E-09    1.454E-09    1.467E-09    1.480E-09    1.494E-09
     1.509E-09    1.525E-09    1.542E-09    1.559E-09    1.577E-09    1.595E-09    1.614E-09    1.634E-09    1.654E-09    1.674E-09
     1.695E-09    1.717E-09    1.738E-09    1.760E-09    1.783E-09    1.805E-09    1.828E-09    1.851E-09    1.875E-09    1.898E-09
     1.922E-09    1.945E-09    1.969E-09    1.993E-09    2.016E-09    2.040E-09    2.063E-09    2.087E-09    2.110E-09    2.134E-09
     2.157E-09    2.180E-09    2.203E-09    2.226E-09    2.249E-09    2.272E-09    2.294E-09    2.317E-09    2.339E-09    2.361E-09
     2.383E-09    2.405E-09    2.426E-09    2.447E-09    2.468E-09    2.489E-09    2.510E-09    2.531E-09    2.551E-09    2.571E-09
     2.590E-09    2.610E-09    2.629E-09
 Ala      Conc. = 1.17E-10
   6.82613E-09  6.80397E-09  6.77891E-09  6.75184E-09  6.72250E-09  6.69082E-09  6.65558E-09  6.61332E-09  6.56985E-09  6.52911E-09
   6.48043E-09  6.42935E-09  6.38441E-09  6.33829E-09  6.29126E-09  6.24647E-09  6.20309E-09  6.16061E-09  6.11874E-09  6.07730E-09
   6.03622E-09  5.99541E-09  5.95488E-09  5.91456E-09  5.87445E-09  5.83458E-09  5.79493E-09  5.75548E-09  5.71628E-09  5.67734E-09
   5.63867E-09  5.60028E-09  5.56221E-09  5.52448E-09  5.48712E-09  5.45014E-09  5.41358E-09  5.37747E-09  5.34182E-09  5.30666E-09
   5.27205E-09  5.23796E-09  5.20447E-09  5.17157E-09  5.13933E-09  5.10773E-09  5.07684E-09  5.04668E-09  5.01725E-09  4.98861E-09
   4.96080E-09  4.93380E-09  4.90768E-09  4.88246E-09  4.85823E-09  4.83488E-09  4.81252E-09  4.79117E-09  4.77078E-09  4.75131E-09
   4.73274E-09  4.71502E-09  4.69811E-09  4.68197E-09  4.66658E-09  4.65189E-09  4.63786E-09  4.62446E-09  4.61165E-09  4.59938E-09
   4.58763E-09  4.57635E-09  4.56550E-09  4.55506E-09  4.54495E-09  4.53518E-09  4.52569E-09  4.51643E-09  4.50738E-09  4.49850E-09
   4.48972E-09  4.48105E-09  4.47240E-09  4.46379E-09  4.45513E-09  4.44646E-09  4.43779E-09  4.42915E-09  4.42058E-09  4.41211E-09
   4.40381E-09  4.39572E-09  4.38795E-09  4.38060E-09  4.37386E-09  4.36802E-09  4.36363E-09  4.36180E-09  4.36530E-09  4.38396E-09
   4.43946E-09  4.49396E-09  4.54146E-09  4.61632E-09  4.70070E-09  4.77473E-09  4.82481E-09  4.84354E-09  4.82704E-09  4.77487E-09
   4.69669E-09  4.61716E-09  4.55667E-09  4.46916E-09  4.38325E-09  4.34576E-09  4.32475E-09  4.31034E-09  4.29896E-09  4.28887E-09
   4.27909E-09  4.26893E-09  4.25791E-09  4.24563E-09  4.23174E-09  4.21595E-09  4.19797E-09  4.17753E-09  4.15440E-09  4.12831E-09
   4.09903E-09  4.06633E-09  4.02998E-09  3.98974E-09  3.94541E-09  3.89675E-09  3.84354E-09  3.78556E-09  3.72260E-09  3.65444E-09
   3.58082E-09  3.50164E-09  3.41669E-09  3.32581E-09  3.22885E-09  3.12564E-09  3.01602E-09  2.89983E-09  2.77691E-09  2.64710E-09
   2.51026E-09  2.36622E-09  2.21484E-09  2.05595E-09  1.88943E-09  1.71511E-09  1.53286E-09  1.34255E-09  1.14405E-09  9.37249E-10
   7.22052E-10  4.98403E-10  2.66339E-10  2.59734E-11 -2.22154E-10 -4.76398E-10 -7.29477E-10 -9.66043E-10 -1.20887E-09 -1.46801E-09
  -1.74256E-09 -2.02926E-09 -2.32867E-09 -2.64617E-09 -2.98799E-09 -3.35681E-09 -3.74801E-09 -4.14593E-09 -4.52267E-09 -4.85633E-09
  -5.17778E-09 -5.49184E-09 -5.79869E-09 -6.09765E-09 -6.38772E-09 -6.66788E-09 -6.93703E-09 -7.19406E-09 -7.43783E-09 -7.66725E-09
  -7.88120E-09 -8.07857E-09 -8.25824E-09 -8.41910E-09 -8.56006E-09 -8.68002E-09 -8.77825E-09 -8.85526E-09 -8.91176E-09 -8.94850E-09
  -8.96618E-09 -8.96554E-09 -8.94730E-09 -8.91218E-09 -8.86092E-09 -8.79422E-09 -8.71281E-09 -8.61742E-09 -8.50875E-09 -8.38752E-09
  -8.25445E-09 -8.11025E-09 -7.95563E-09 -7.79131E-09 -7.61798E-09 -7.43637E-09 -7.24716E-09 -7.05105E-09 -6.84877E-09 -6.64099E-09
  -6.42840E-09 -6.21172E-09 -5.99161E-09 -5.76878E-09 -5.54382E-09 -5.31717E-09 -5.08923E-09 -4.86040E-09 -4.63109E-09 -4.40171E-09
  -4.17266E-09 -3.94433E-09 -3.71714E-09 -3.49146E-09 -3.26768E-09 -3.04622E-09 -2.82745E-09 -2.61177E-09 -2.39952E-09 -2.19116E-09
  -1.98702E-09 -1.78748E-09 -1.59293E-09 -1.40375E-09 -1.22028E-09 -1.04290E-09 -8.71989E-10 -7.07894E-10 -5.50995E-10 -4.01653E-10
  -2.60169E-10 -1.26972E-10 -2.08259E-12  1.14760E-10  2.23847E-10  3.25468E-10  4.19933E-10  5.07522E-10  5.88539E-10  6.63270E-10
   7.32000E-10  7.95032E-10  8.52638E-10  9.05117E-10  9.52741E-10  9.95801E-10  1.03460E-09  1.06937E-09  1.10042E-09  1.12803E-09
   1.15247E-09  1.17401E-09  1.19294E-09  1.20951E-09  1.22399E-09  1.23668E-09  1.24779E-09  1.25763E-09  1.26644E-09  1.27448E-09
   1.28191E-09  1.28880E-09  1.29519E-09  1.30115E-09  1.30674E-09  1.31203E-09  1.31706E-09  1.32191E-09  1.32661E-09  1.33125E-09
   1.33586E-09  1.34051E-09  1.34526E-09  1.35015E-09  1.35525E-09  1.36061E-09  1.36628E-09  1.37232E-09  1.37879E-09  1.38572E-09
   1.39318E-09  1.40121E-09  1.40987E-09  1.41921E-09  1.42928E-09  1.44012E-09  1.45179E-09  1.46433E-09  1.47773E-09  1.49195E-09
   1.50697E-09  1.52274E-09  1.53922E-09  1.55639E-09  1.57420E-09  1.59262E-09  1.61162E-09  1.63116E-09  1.65121E-09  1.67172E-09
   1.69268E-09  1.71404E-09  1.73576E-09  1.75783E-09  1.78020E-09  1.80284E-09  1.82573E-09  1.84881E-09  1.87207E-09  1.89548E-09
   1.91900E-09  1.94259E-09  1.96624E-09  1.98991E-09  2.01357E-09  2.03719E-09  2.06075E-09  2.08426E-09  2.10769E-09  2.13105E-09
   2.15431E-09  2.17748E-09  2.20054E-09  2.22348E-09  2.24630E-09  2.26899E-09  2.29153E-09  2.31393E-09  2.33617E-09  2.35824E-09
   2.38014E-09  2.40185E-09  2.42337E-09  2.44470E-09  2.46582E-09  2.48672E-09  2.50741E-09  2.52786E-09  2.54807E-09  2.56805E-09
   2.58777E-09  2.60724E-09  2.62643E-09
 Asp      Conc. = 9.58E-10
   7.88583E-09  7.79389E-09  7.67806E-09  7.55124E-09  7.40119E-09  7.22065E-09  7.04887E-09  6.87892E-09  6.76061E-09  6.66816E-09
   6.59020E-09  6.52153E-09  6.45940E-09  6.40193E-09  6.34739E-09  6.29465E-09  6.24346E-09  6.19360E-09  6.14482E-09  6.09694E-09
   6.04985E-09  6.00344E-09  5.95767E-09  5.91245E-09  5.86778E-09  5.82367E-09  5.78011E-09  5.73712E-09  5.69481E-09  5.65328E-09
   5.61272E-09  5.57341E-09  5.53585E-09  5.50093E-09  5.47042E-09  5.44864E-09  5.44931E-09  5.46593E-09  5.50321E-09  5.53687E-09
   5.55413E-09  5.55672E-09  5.55917E-09  5.60392E-09  5.66995E-09  5.81335E-09  5.94884E-09  6.04646E-09  6.18422E-09  6.37530E-09
   6.57596E-09  6.70029E-09  6.69961E-09  6.54875E-09  6.28585E-09  6.03955E-09  5.84220E-09  5.76586E-09  5.65785E-09  5.50370E-09
   5.38970E-09  5.32020E-09  5.26490E-09  5.22906E-09  5.19762E-09  5.13452E-09  5.04317E-09  4.97582E-09  4.92426E-09  4.88225E-09
   4.84664E-09  4.81566E-09  4.78819E-09  4.76349E-09  4.74100E-09  4.72035E-09  4.70121E-09  4.68332E-09  4.66651E-09  4.65061E-09
   4.63543E-09  4.62092E-09  4.60689E-09  4.59332E-09  4.58004E-09  4.56707E-09  4.55436E-09  4.54190E-09  4.52970E-09  4.51773E-09
   4.50603E-09  4.49456E-09  4.48336E-09  4.47242E-09  4.46176E-09  4.45137E-09  4.44129E-09  4.43151E-09  4.42205E-09  4.41294E-09
   4.40416E-09  4.39576E-09  4.38773E-09  4.38011E-09  4.37290E-09  4.36612E-09  4.35981E-09  4.35395E-09  4.34858E-09  4.34372E-09
   4.33940E-09  4.33561E-09  4.33237E-09  4.32957E-09  4.32700E-09  4.32442E-09  4.32164E-09  4.31842E-09  4.31455E-09  4.30981E-09
   4.30399E-09  4.29685E-09  4.28820E-09  4.27781E-09  4.26546E-09  4.25094E-09  4.23403E-09  4.21451E-09  4.19217E-09  4.16679E-09
   4.13814E-09  4.10603E-09  4.07023E-09  4.03052E-09  3.98671E-09  3.93856E-09  3.88588E-09  3.82844E-09  3.76604E-09  3.69847E-09
   3.62550E-09  3.54699E-09  3.46278E-09  3.37271E-09  3.27663E-09  3.17438E-09  3.06584E-09  2.95084E-09  2.82924E-09  2.70092E-09
   2.56575E-09  2.42359E-09  2.27435E-09  2.11791E-09  1.95420E-09  1.78314E-09  1.60471E-09  1.41892E-09  1.22584E-09  1.02564E-09
   8.18661E-10  6.05497E-10  3.87290E-10  1.66157E-10 -5.32051E-11 -2.58528E-10 -4.03788E-10 -3.34747E-10 -2.28791E-10 -1.90075E-10
  -2.26763E-10 -3.18947E-10 -4.74270E-10 -7.42114E-10 -1.18375E-09 -1.83532E-09 -2.67668E-09 -3.60032E-09 -4.39442E-09 -4.83630E-09
  -5.18691E-09 -5.51147E-09 -5.82241E-09 -6.12276E-09 -6.41298E-09 -6.69268E-09 -6.96108E-09 -7.21722E-09 -7.46006E-09 -7.68855E-09
  -7.90159E-09 -8.09810E-09 -8.27696E-09 -8.43705E-09 -8.57729E-09 -8.69658E-09 -8.79418E-09 -8.87060E-09 -8.92656E-09 -8.96279E-09
  -8.98000E-09 -8.97891E-09 -8.96026E-09 -8.92476E-09 -8.87314E-09 -8.80611E-09 -8.72439E-09 -8.62870E-09 -8.51975E-09 -8.39827E-09
  -8.26496E-09 -8.12054E-09 -7.96571E-09 -7.80119E-09 -7.62768E-09 -7.44589E-09 -7.25652E-09 -7.06027E-09 -6.85784E-09 -6.64993E-09
  -6.43722E-09 -6.22042E-09 -6.00021E-09 -5.77728E-09 -5.55223E-09 -5.32549E-09 -5.09746E-09 -4.86855E-09 -4.63917E-09 -4.40973E-09
