 LCModel (Version 6.3-1R) Copyright: S.W. Provencher.          Ref.: Magn. Reson. Med. 30:672-679 (1993).                
 onepulse 28x27_ftSpec_smooth_lcm
 26 lines in following concentration table = NCONC+1
    Conc.  %SD /Cr+PCr  Metabolite                                         
 2.36E-11 999%   0.263 Ala                                                 
 1.70E-09  43%  18.888 Asp                                                 
    0.000 999%   0.000 Cr                                                  
 1.02E-09  65%  11.377 GABA                                                
    0.000 999%   0.000 Glc                                                 
    0.000 999%   0.000 Gln                                                 
    0.000 999%   0.000 Glu                                                 
 9.19E-10 280%  10.218 Glyc                                                
    0.000 999%   0.000 GPC                                                 
    0.000 999%   0.000 GSH                                                 
    0.000 999%   0.000 Ins                                                 
    0.000 999%   0.000 Lac                                                 
 3.54E-11 591%   0.394 NAAG                                                
    0.000 999%   0.000 NAA                                                 
 7.80E-11 254%   0.868 PCh                                                 
 8.99E-11 409%   1.000 PCr                                                 
    0.000 999%   0.000 PE                                                  
 3.13E-11 999%   0.348 Scyllo                                              
    0.000 999%   0.000 Ser                                                 
 7.57E-10 172%   8.420 Tau                                                 
 7.80E-11 254%   0.868 GPC+PCh                                             
 3.54E-11 591%   0.394 NAA+NAAG                                            
 9.19E-10  88%  10.218 Ins+Glyc                                            
 8.99E-11 409%   1.000 Cr+PCr                                              
    0.000 999%   0.000 Glu+Gln                                             
   6 lines in following misc. output table
  FWHM = 0.101 ppm    S/N =   1                                            
  Data shift = 0.224 ppm                                                   
  Ph:  67 deg      47.0 deg/ppm                                            
  alphaB,S = 7.0E-01,   4.6E+01                                            
    9 spline knots.   Ns = 5(1)                                            
  (10) 2 infls.   ( 9) 1 extrs.                                            
  363 points on ppm-axis = NY
      4.250000     4.238821     4.227641     4.216462     4.205282     4.194103     4.182923     4.171744     4.160564     4.149385
      4.138206     4.127026     4.115847     4.104667     4.093488     4.082308     4.071129     4.059949     4.048770     4.037591
      4.026411     4.015232     4.004052     3.992873     3.981693     3.970514     3.959334     3.948155     3.936975     3.925796
      3.914617     3.903437     3.892258     3.881078     3.869899     3.858719     3.847540     3.836360     3.825181     3.814002
      3.802822     3.791643     3.780463     3.769284     3.758104     3.746925     3.735745     3.724566     3.713387     3.702207
      3.691028     3.679848     3.668669     3.657489     3.646310     3.635130     3.623951     3.612772     3.601592     3.590413
      3.579233     3.568054     3.556874     3.545695     3.534515     3.523336     3.512156     3.500977     3.489798     3.478618
      3.467439     3.456259     3.445080     3.433900     3.422721     3.411541     3.400362     3.389183     3.378003     3.366824
      3.355644     3.344465     3.333285     3.322106     3.310926     3.299747     3.288568     3.277388     3.266209     3.255029
      3.243850     3.232670     3.221491     3.210311     3.199132     3.187953     3.176773     3.165594     3.154414     3.143235
      3.132055     3.120876     3.109696     3.098517     3.087337     3.076158     3.064979     3.053799     3.042620     3.031440
      3.020261     3.009081     2.997902     2.986722     2.975543     2.964364     2.953184     2.942005     2.930825     2.919646
      2.908466     2.897287     2.886107     2.874928     2.863749     2.852569     2.841390     2.830210     2.819031     2.807851
      2.796672     2.785492     2.774313     2.763134     2.751954     2.740775     2.729595     2.718416     2.707236     2.696057
      2.684877     2.673698     2.662519     2.651339     2.640160     2.628980     2.617801     2.606621     2.595442     2.584262
      2.573083     2.561903     2.550724     2.539545     2.528365     2.517186     2.506006     2.494827     2.483647     2.472468
      2.461288     2.450109     2.438930     2.427750     2.416571     2.405391     2.394212     2.383032     2.371853     2.360673
      2.349494     2.338315     2.327135     2.315956     2.304776     2.293597     2.282417     2.271238     2.260058     2.248879
      2.237700     2.226520     2.215341     2.204161     2.192982     2.181802     2.170623     2.159443     2.148264     2.137084
      2.125905     2.114726     2.103546     2.092367     2.081187     2.070008     2.058828     2.047649     2.036469     2.025290
      2.014111     2.002931     1.991752     1.980572     1.969393     1.958213     1.947034     1.935854     1.924675     1.913496
      1.902316     1.891137     1.879957     1.868778     1.857598     1.846419     1.835239     1.824060     1.812881     1.801701
      1.790522     1.779342     1.768163     1.756983     1.745804     1.734624     1.723445     1.712265     1.701086     1.689907
      1.678727     1.667548     1.656368     1.645189     1.634009     1.622830     1.611650     1.600471     1.589292     1.578112
      1.566933     1.555753     1.544574     1.533394     1.522215     1.511035     1.499856     1.488677     1.477497     1.466318
      1.455138     1.443959     1.432779     1.421600     1.410420     1.399241     1.388062     1.376882     1.365703     1.354523
      1.343344     1.332164     1.320985     1.309805     1.298626     1.287446     1.276267     1.265088     1.253908     1.242729
      1.231549     1.220370     1.209190     1.198011     1.186831     1.175652     1.164473     1.153293     1.142114     1.130934
      1.119755     1.108575     1.097396     1.086216     1.075037     1.063858     1.052678     1.041499     1.030319     1.019140
      1.007960     0.996781     0.985601     0.974422     0.963243     0.952063     0.940884     0.929704     0.918525     0.907345
      0.896166     0.884986     0.873807     0.862628     0.851448     0.840269     0.829089     0.817910     0.806730     0.795551
      0.784371     0.773192     0.762012     0.750833     0.739654     0.728474     0.717295     0.706115     0.694936     0.683756
      0.672577     0.661397     0.650218     0.639039     0.627859     0.616680     0.605500     0.594321     0.583141     0.571962
      0.560782     0.549603     0.538424     0.527244     0.516065     0.504885     0.493706     0.482526     0.471347     0.460167
      0.448988     0.437809     0.426629     0.415450     0.404270     0.393091     0.381911     0.370732     0.359552     0.348373
      0.337193     0.326014     0.314835     0.303655     0.292476     0.281296     0.270117     0.258937     0.247758     0.236578
      0.225399     0.214220     0.203040
 NY phased data points follow
   5.42226E-09  8.32738E-09  4.99792E-09  8.14220E-09  5.54063E-09  8.07503E-09  5.35553E-09  7.96885E-09  5.69940E-09  9.15253E-09
   7.49396E-09  1.17222E-08  1.06782E-08  1.40158E-08  1.15348E-08  1.31896E-08  1.03080E-08  1.21120E-08  9.44948E-09  1.16816E-08
   9.36939E-09  1.12405E-08  9.49434E-09  1.13757E-08  9.61511E-09  1.19454E-08  1.01089E-08  1.21633E-08  1.00920E-08  1.22978E-08
   1.04495E-08  1.18859E-08  9.50734E-09  1.12446E-08  8.94228E-09  1.10633E-08  9.26146E-09  1.20480E-08  9.47965E-09  1.11258E-08
   9.12436E-09  1.04311E-08  8.99110E-09  1.17033E-08  1.08088E-08  1.23554E-08  1.00304E-08  1.17000E-08  8.83670E-09  1.02088E-08
   7.86501E-09  9.35820E-09  7.97773E-09  9.48204E-09  7.02446E-09  8.67961E-09  6.57817E-09  8.31520E-09  5.70127E-09  7.52870E-09
   5.75651E-09  7.38830E-09  5.57688E-09  7.42246E-09  5.68042E-09  7.00184E-09  5.26448E-09  6.53840E-09  5.26383E-09  6.74731E-09
   5.58608E-09  7.03317E-09  5.87040E-09  7.26278E-09  6.95608E-09  9.25725E-09  8.21607E-09  8.81632E-09  6.93601E-09  7.19691E-09
   5.71287E-09  6.34242E-09  4.70696E-09  5.20102E-09  4.76372E-09  5.89800E-09  4.67299E-09  5.76313E-09  4.82656E-09  6.10780E-09
   7.77556E-09  1.02746E-08  1.01749E-08  1.11408E-08  8.70890E-09  8.86973E-09  6.89351E-09  7.53175E-09  6.08151E-09  6.94330E-09
   5.79319E-09  6.57798E-09  4.95313E-09  5.89192E-09  4.48492E-09  5.18012E-09  4.46664E-09  4.57421E-09  3.58720E-09  4.75359E-09
   3.40869E-09  4.24531E-09  3.42854E-09  4.52437E-09  3.44409E-09  4.31076E-09  3.14565E-09  3.73606E-09  2.79053E-09  3.57346E-09
   1.73477E-09  2.69158E-09  1.21154E-09  2.31554E-09  2.09220E-09  3.06480E-09  1.92839E-09  2.22991E-09  1.78948E-09  2.21055E-09
   1.51629E-09  2.17858E-09  8.58075E-10  1.73944E-09  4.78084E-10  7.52119E-10 -1.96956E-10  1.09425E-09 -2.62209E-10  1.28138E-09
   3.08434E-10  1.35445E-09  8.42770E-10  1.78083E-09  1.08891E-09  2.43909E-09  1.84394E-09  2.38202E-09  2.00601E-09  3.37736E-09
   3.21090E-09  4.66231E-09  4.22503E-09  5.14353E-09  3.94271E-09  4.39703E-09  4.38874E-09  5.32700E-09  4.34377E-09  5.01782E-09
   4.05727E-09  4.54646E-09  4.07377E-09  4.66920E-09  4.16678E-09  4.80247E-09  4.78227E-09  5.37186E-09  4.55473E-09  5.40215E-09
   5.07117E-09  5.98658E-09  5.21484E-09  5.75316E-09  4.76750E-09  5.14803E-09  4.09776E-09  4.99094E-09  4.15728E-09  4.39454E-09
   4.38436E-09  6.44380E-09  6.08664E-09  4.88920E-09  2.19545E-09 -5.40384E-10 -2.81537E-09 -4.07043E-09 -5.82514E-09 -6.06394E-09
  -7.81047E-09 -8.10253E-09 -9.15512E-09 -9.61677E-09 -1.07115E-08 -1.14455E-08 -1.21392E-08 -1.23941E-08 -1.34957E-08 -1.34611E-08
  -1.47466E-08 -1.47426E-08 -1.63287E-08 -1.60990E-08 -1.68729E-08 -1.71341E-08 -1.82003E-08 -1.79943E-08 -1.89593E-08 -1.80836E-08
  -1.77427E-08 -1.59545E-08 -1.46973E-08 -1.17916E-08 -9.52919E-09 -6.65952E-09 -4.41813E-09 -1.96770E-09 -9.42338E-10  4.38849E-10
   3.88065E-10  8.39319E-10 -4.65062E-10 -1.52871E-09 -3.23585E-09 -3.91315E-09 -4.38213E-09 -4.03397E-09 -3.77470E-09 -2.19743E-09
  -1.73285E-09 -1.75113E-11 -1.77504E-10  7.85731E-10 -4.51429E-10 -7.54576E-10 -2.11026E-09 -1.85630E-09 -1.71223E-09 -3.54240E-10
   3.61527E-10  1.73945E-09  1.51949E-09  1.77582E-09 -2.80497E-10 -9.13928E-10 -2.03322E-09 -1.49638E-09 -1.15452E-09 -1.46080E-10
   4.44643E-10  1.40933E-09  1.81457E-09  1.89627E-09  9.29392E-10  1.27244E-09  5.10102E-10  7.61893E-10  6.18522E-10  1.24541E-09
   1.57562E-09  1.99309E-09  2.19431E-09  2.80817E-09  1.86881E-09  2.20249E-09  1.55589E-09  1.29229E-09  9.41423E-10  1.11549E-09
   4.84853E-10  9.72891E-10  2.87350E-10  4.24636E-10  4.01409E-11  4.65819E-10  1.26308E-10  1.12772E-11 -1.51668E-10 -4.14902E-10
  -8.31281E-10 -2.10144E-10 -6.73425E-10 -5.34298E-11 -5.26647E-10 -3.95276E-10 -5.40744E-10 -4.85129E-10 -9.01488E-10 -5.59879E-10
  -8.71572E-10 -8.07139E-10 -1.19030E-09 -5.78365E-10 -6.71486E-10 -1.89214E-10 -5.17646E-10 -4.71395E-10 -2.45183E-10  4.20459E-12
  -1.44658E-10 -1.67900E-10 -6.35499E-11  5.71604E-12 -8.09815E-11  1.56675E-10 -6.55953E-11 -3.83855E-12  1.37337E-10  6.28043E-10
   3.68466E-11  6.13321E-10  4.76113E-10  1.07478E-09  6.68718E-10  5.15080E-10  4.59579E-10  8.82720E-10  2.97129E-10  7.19803E-10
   1.09528E-09  1.07865E-09  3.77318E-10  1.41427E-09  9.94682E-10  7.65010E-10  1.24638E-09  1.28403E-09  1.00211E-09  1.38278E-09
   1.21665E-09  1.32394E-09  9.97787E-10  1.33905E-09  1.24328E-09  1.54790E-09  1.13922E-09  1.44037E-09  1.61466E-09  1.40406E-09
   1.49993E-09  1.40621E-09  1.47092E-09  1.42673E-09  1.59082E-09  1.53043E-09  1.72311E-09  1.42419E-09  1.30584E-09  1.63771E-09
   1.61519E-09  1.62007E-09  1.96608E-09  1.82398E-09  1.45632E-09  1.52737E-09  1.81762E-09  1.55598E-09  1.98295E-09  1.21300E-09
   1.38669E-09  1.49534E-09  1.57166E-09
 NY points of the fit to the data follow
   8.70007E-09  8.36140E-09  8.08731E-09  7.84703E-09  7.65961E-09  7.50972E-09  7.41621E-09  7.51429E-09  8.05328E-09  8.91965E-09
   9.76696E-09  1.04694E-08  1.09965E-08  1.13966E-08  1.17573E-08  1.19706E-08  1.20005E-08  1.17280E-08  1.11491E-08  1.04661E-08
   1.01705E-08  1.01401E-08  1.02229E-08  1.04301E-08  1.06937E-08  1.09289E-08  1.11101E-08  1.11560E-08  1.11558E-08  1.11158E-08
   1.09526E-08  1.06628E-08  1.04718E-08  1.02676E-08  1.00613E-08  1.00110E-08  1.01356E-08  1.02528E-08  1.02539E-08  1.00804E-08
   9.76656E-09  9.40100E-09  9.02971E-09  8.73543E-09  8.82538E-09  8.99836E-09  9.00230E-09  8.98518E-09  9.10833E-09  9.24793E-09
   9.31506E-09  9.25742E-09  9.00617E-09  8.57130E-09  8.13454E-09  7.78012E-09  7.66174E-09  7.58158E-09  7.41511E-09  7.23742E-09
   7.20039E-09  7.25030E-09  7.42637E-09  7.61456E-09  7.76571E-09  7.98968E-09  8.18308E-09  8.28419E-09  8.33326E-09  8.30392E-09
   8.16919E-09  7.93029E-09  7.62001E-09  7.30203E-09  7.00855E-09  6.65587E-09  6.39841E-09  6.32544E-09  6.21785E-09  6.10608E-09
   6.10096E-09  6.09803E-09  6.09353E-09  6.19649E-09  6.29908E-09  6.34219E-09  6.42232E-09  6.52345E-09  6.60228E-09  6.63959E-09
   6.61931E-09  6.56638E-09  6.48409E-09  6.29861E-09  6.07851E-09  5.92777E-09  5.72471E-09  5.48761E-09  5.32744E-09  5.18712E-09
   5.05300E-09  4.94352E-09  4.84806E-09  4.76726E-09  4.69290E-09  4.61865E-09  4.54128E-09  4.45921E-09  4.37149E-09  4.27810E-09
   4.18110E-09  4.08511E-09  3.99337E-09  3.89628E-09  3.79878E-09  3.70908E-09  3.62108E-09  3.53295E-09  3.44405E-09  3.35407E-09
   3.26276E-09  3.17007E-09  3.07590E-09  2.98027E-09  2.88321E-09  2.78478E-09  2.68501E-09  2.58396E-09  2.48170E-09  2.37830E-09
   2.27381E-09  2.16830E-09  2.06184E-09  1.95452E-09  1.84638E-09  1.73754E-09  1.62803E-09  1.51795E-09  1.40738E-09  1.29640E-09
   1.18510E-09  1.07356E-09  9.61861E-10  8.50122E-10  7.38400E-10  6.26811E-10  5.15473E-10  4.04502E-10  2.93998E-10  1.84120E-10
   7.50150E-11 -3.31739E-11 -1.40222E-10 -2.45884E-10 -3.49904E-10 -4.51912E-10 -5.51416E-10 -6.47798E-10 -7.40175E-10 -8.27210E-10
  -9.06916E-10 -9.75914E-10 -1.02824E-09 -1.05195E-09 -1.01902E-09 -8.43769E-10 -1.25503E-10  1.79651E-09  3.94907E-09  5.67190E-09
   6.79199E-09  7.36335E-09  7.48938E-09  7.19929E-09  6.42558E-09  5.02330E-09  2.94225E-09  4.82432E-10 -1.46337E-09 -2.10960E-09
  -2.40041E-09 -2.58195E-09 -2.71504E-09 -2.82168E-09 -2.91180E-09 -2.99053E-09 -3.06080E-09 -3.12440E-09 -3.18250E-09 -3.23587E-09
  -3.28509E-09 -3.33054E-09 -3.37254E-09 -3.41130E-09 -3.44703E-09 -3.47987E-09 -3.50994E-09 -3.53735E-09 -3.56218E-09 -3.58451E-09
  -3.60442E-09 -3.62197E-09 -3.63721E-09 -3.65019E-09 -3.66097E-09 -3.66959E-09 -3.67610E-09 -3.68053E-09 -3.68294E-09 -3.68335E-09
  -3.68182E-09 -3.67835E-09 -3.67301E-09 -3.66582E-09 -3.65683E-09 -3.64606E-09 -3.63354E-09 -3.61932E-09 -3.60343E-09 -3.58589E-09
  -3.56674E-09 -3.54601E-09 -3.52375E-09 -3.49997E-09 -3.47472E-09 -3.44801E-09 -3.41989E-09 -3.39039E-09 -3.35953E-09 -3.32736E-09
  -3.29389E-09 -3.25917E-09 -3.22321E-09 -3.18607E-09 -3.14776E-09 -3.10831E-09 -3.06777E-09 -3.02616E-09 -2.98351E-09 -2.93984E-09
  -2.89521E-09 -2.84962E-09 -2.80312E-09 -2.75574E-09 -2.70751E-09 -2.65845E-09 -2.60861E-09 -2.55802E-09 -2.50671E-09 -2.45471E-09
  -2.40205E-09 -2.34876E-09 -2.29489E-09 -2.24045E-09 -2.18549E-09 -2.13004E-09 -2.07411E-09 -2.01776E-09 -1.96102E-09 -1.90390E-09
  -1.84646E-09 -1.78871E-09 -1.73069E-09 -1.67244E-09 -1.61397E-09 -1.55534E-09 -1.49657E-09 -1.43769E-09 -1.37874E-09 -1.31974E-09
  -1.26073E-09 -1.20174E-09 -1.14280E-09 -1.08396E-09 -1.02522E-09 -9.66639E-10 -9.08239E-10 -8.50054E-10 -7.92111E-10 -7.34454E-10
  -6.77110E-10 -6.20092E-10 -5.63461E-10 -5.07239E-10 -4.51458E-10 -3.96139E-10 -3.41338E-10 -2.87069E-10 -2.33356E-10 -1.80257E-10
  -1.27784E-10 -7.59879E-11 -2.48760E-11  2.54971E-11  7.51165E-11  1.23948E-10  1.71947E-10  2.19081E-10  2.65324E-10  3.10646E-10
   3.55025E-10  3.98425E-10  4.40780E-10  4.82118E-10  5.22444E-10  5.61788E-10  6.00174E-10  6.37620E-10  6.74157E-10  7.09802E-10
   7.44582E-10  7.78523E-10  8.11648E-10  8.43976E-10  8.75538E-10  9.06355E-10  9.36454E-10  9.65853E-10  9.94581E-10  1.02266E-09
   1.05011E-09  1.07697E-09  1.10324E-09  1.12896E-09  1.15415E-09  1.17884E-09  1.20305E-09  1.22680E-09  1.25012E-09  1.27303E-09
   1.29555E-09  1.31770E-09  1.33953E-09  1.36104E-09  1.38226E-09  1.40322E-09  1.42394E-09  1.44443E-09  1.46473E-09  1.48487E-09
   1.50485E-09  1.52473E-09  1.54449E-09  1.56419E-09  1.58383E-09  1.60345E-09  1.62307E-09  1.64271E-09  1.66240E-09  1.68217E-09
   1.70202E-09  1.72199E-09  1.74210E-09  1.76238E-09  1.78285E-09  1.80354E-09  1.82446E-09  1.84564E-09  1.86711E-09  1.88888E-09
   1.91100E-09  1.93347E-09  1.95633E-09
 NY background values follow
     6.253E-09    6.250E-09    6.248E-09    6.245E-09    6.242E-09    6.239E-09    6.236E-09    6.233E-09    6.229E-09    6.226E-09
     6.222E-09    6.218E-09    6.213E-09    6.209E-09    6.204E-09    6.199E-09    6.194E-09    6.188E-09    6.183E-09    6.177E-09
     6.171E-09    6.164E-09    6.158E-09    6.151E-09    6.144E-09    6.137E-09    6.129E-09    6.121E-09    6.113E-09    6.104E-09
     6.096E-09    6.087E-09    6.077E-09    6.068E-09    6.058E-09    6.048E-09    6.037E-09    6.026E-09    6.015E-09    6.004E-09
     5.992E-09    5.980E-09    5.967E-09    5.955E-09    5.941E-09    5.928E-09    5.914E-09    5.900E-09    5.885E-09    5.870E-09
     5.855E-09    5.840E-09    5.824E-09    5.807E-09    5.790E-09    5.773E-09    5.756E-09    5.738E-09    5.719E-09    5.700E-09
     5.681E-09    5.662E-09    5.642E-09    5.621E-09    5.600E-09    5.579E-09    5.556E-09    5.534E-09    5.511E-09    5.487E-09
     5.463E-09    5.438E-09    5.412E-09    5.385E-09    5.358E-09    5.330E-09    5.302E-09    5.272E-09    5.242E-09    5.211E-09
     5.179E-09    5.146E-09    5.112E-09    5.077E-09    5.041E-09    5.004E-09    4.967E-09    4.928E-09    4.888E-09    4.847E-09
     4.805E-09    4.762E-09    4.717E-09    4.671E-09    4.625E-09    4.577E-09    4.527E-09    4.477E-09    4.425E-09    4.371E-09
     4.317E-09    4.261E-09    4.203E-09    4.144E-09    4.084E-09    4.022E-09    3.959E-09    3.894E-09    3.828E-09    3.760E-09
     3.690E-09    3.619E-09    3.546E-09    3.471E-09    3.395E-09    3.317E-09    3.237E-09    3.156E-09    3.072E-09    2.987E-09
     2.900E-09    2.811E-09    2.721E-09    2.628E-09    2.534E-09    2.438E-09    2.340E-09    2.242E-09    2.141E-09    2.040E-09
     1.937E-09    1.833E-09    1.727E-09    1.621E-09    1.514E-09    1.406E-09    1.297E-09    1.188E-09    1.077E-09    9.668E-10
     8.556E-10    7.440E-10    6.320E-10    5.199E-10    4.075E-10    2.951E-10    1.826E-10    7.018E-11   -4.211E-11   -1.542E-10
    -2.660E-10   -3.774E-10   -4.884E-10   -5.988E-10   -7.087E-10   -8.179E-10   -9.263E-10   -1.034E-09   -1.141E-09   -1.246E-09
    -1.351E-09   -1.455E-09   -1.557E-09   -1.658E-09   -1.758E-09   -1.856E-09   -1.953E-09   -2.048E-09   -2.141E-09   -2.233E-09
    -2.323E-09   -2.411E-09   -2.497E-09   -2.581E-09   -2.663E-09   -2.743E-09   -2.820E-09   -2.895E-09   -2.967E-09   -3.037E-09
    -3.105E-09   -3.170E-09   -3.232E-09   -3.291E-09   -3.348E-09   -3.402E-09   -3.453E-09   -3.502E-09   -3.548E-09   -3.591E-09
    -3.633E-09   -3.671E-09   -3.708E-09   -3.741E-09   -3.773E-09   -3.802E-09   -3.829E-09   -3.853E-09   -3.875E-09   -3.895E-09
    -3.913E-09   -3.929E-09   -3.942E-09   -3.954E-09   -3.963E-09   -3.970E-09   -3.976E-09   -3.979E-09   -3.980E-09   -3.980E-09
    -3.977E-09   -3.973E-09   -3.967E-09   -3.959E-09   -3.949E-09   -3.938E-09   -3.925E-09   -3.910E-09   -3.893E-09   -3.875E-09
    -3.856E-09   -3.834E-09   -3.812E-09   -3.787E-09   -3.762E-09   -3.735E-09   -3.706E-09   -3.676E-09   -3.645E-09   -3.612E-09
    -3.579E-09   -3.544E-09   -3.507E-09   -3.470E-09   -3.431E-09   -3.391E-09   -3.351E-09   -3.309E-09   -3.266E-09   -3.222E-09
    -3.177E-09   -3.131E-09   -3.084E-09   -3.037E-09   -2.988E-09   -2.939E-09   -2.889E-09   -2.838E-09   -2.787E-09   -2.734E-09
    -2.681E-09   -2.628E-09   -2.574E-09   -2.519E-09   -2.464E-09   -2.408E-09   -2.352E-09   -2.296E-09   -2.239E-09   -2.182E-09
    -2.124E-09   -2.066E-09   -2.008E-09   -1.949E-09   -1.891E-09   -1.832E-09   -1.773E-09   -1.714E-09   -1.655E-09   -1.596E-09
    -1.537E-09   -1.477E-09   -1.418E-09   -1.359E-09   -1.300E-09   -1.242E-09   -1.183E-09   -1.125E-09   -1.067E-09   -1.009E-09
    -9.515E-10   -8.943E-10   -8.375E-10   -7.812E-10   -7.252E-10   -6.698E-10   -6.148E-10   -5.604E-10   -5.066E-10   -4.533E-10
    -4.007E-10   -3.488E-10   -2.975E-10   -2.470E-10   -1.973E-10   -1.483E-10   -1.002E-10   -5.291E-11   -6.534E-12    3.892E-11
     8.343E-11    1.270E-10    1.695E-10    2.109E-10    2.514E-10    2.909E-10    3.294E-10    3.669E-10    4.036E-10    4.394E-10
     4.743E-10    5.084E-10    5.416E-10    5.741E-10    6.058E-10    6.367E-10    6.670E-10    6.965E-10    7.253E-10    7.535E-10
     7.811E-10    8.081E-10    8.345E-10    8.604E-10    8.857E-10    9.105E-10    9.349E-10    9.587E-10    9.822E-10    1.005E-09
     1.028E-09    1.050E-09    1.072E-09    1.094E-09    1.115E-09    1.136E-09    1.157E-09    1.178E-09    1.198E-09    1.218E-09
     1.239E-09    1.259E-09    1.278E-09    1.298E-09    1.318E-09    1.338E-09    1.358E-09    1.377E-09    1.397E-09    1.417E-09
     1.437E-09    1.457E-09    1.477E-09    1.498E-09    1.518E-09    1.539E-09    1.560E-09    1.582E-09    1.603E-09    1.625E-09
     1.647E-09    1.670E-09    1.693E-09
 Ala      Conc. = 2.36E-11
   6.26997E-09  6.26945E-09  6.26800E-09  6.26593E-09  6.26318E-09  6.25973E-09  6.25535E-09  6.24985E-09  6.24454E-09  6.23932E-09
   6.23273E-09  6.22639E-09  6.22092E-09  6.21500E-09  6.20903E-09  6.20330E-09  6.19761E-09  6.19183E-09  6.18591E-09  6.17983E-09
   6.17354E-09  6.16705E-09  6.16033E-09  6.15338E-09  6.14619E-09  6.13876E-09  6.13106E-09  6.12311E-09  6.11489E-09  6.10640E-09
   6.09764E-09  6.08858E-09  6.07924E-09  6.06962E-09  6.05970E-09  6.04947E-09  6.03894E-09  6.02810E-09  6.01694E-09  6.00547E-09
   5.99367E-09  5.98154E-09  5.96908E-09  5.95628E-09  5.94314E-09  5.92966E-09  5.91583E-09  5.90163E-09  5.88709E-09  5.87218E-09
   5.85691E-09  5.84125E-09  5.82522E-09  5.80882E-09  5.79202E-09  5.77483E-09  5.75725E-09  5.73928E-09  5.72089E-09  5.70212E-09
   5.68293E-09  5.66332E-09  5.64327E-09  5.62278E-09  5.60179E-09  5.58030E-09  5.55828E-09  5.53571E-09  5.51256E-09  5.48880E-09
   5.46441E-09  5.43938E-09  5.41367E-09  5.38725E-09  5.36012E-09  5.33224E-09  5.30357E-09  5.27413E-09  5.24384E-09  5.21273E-09
   5.18074E-09  5.14786E-09  5.11406E-09  5.07933E-09  5.04365E-09  5.00697E-09  4.96930E-09  4.93060E-09  4.89085E-09  4.85005E-09
   4.80817E-09  4.76521E-09  4.72116E-09  4.67602E-09  4.62983E-09  4.58262E-09  4.53454E-09  4.48585E-09  4.43729E-09  4.39132E-09
   4.35238E-09  4.31072E-09  4.26472E-09  4.22170E-09  4.17709E-09  4.12699E-09  4.06962E-09  4.00436E-09  3.93091E-09  3.84977E-09
   3.76341E-09  3.67684E-09  3.59347E-09  3.50383E-09  3.41296E-09  3.32917E-09  3.24648E-09  3.16316E-09  3.07863E-09  2.99265E-09
   2.90499E-09  2.81562E-09  2.72449E-09  2.63164E-09  2.53714E-09  2.44105E-09  2.34342E-09  2.24435E-09  2.14389E-09  2.04212E-09
   1.93911E-09  1.83494E-09  1.72968E-09  1.62342E-09  1.51621E-09  1.40815E-09  1.29929E-09  1.18973E-09  1.07955E-09  9.68801E-10
   8.57582E-10  7.45955E-10  6.34003E-10  5.21821E-10  4.09447E-10  2.96975E-10  1.84489E-10  7.20689E-11 -4.02294E-11 -1.52305E-10
  -2.64081E-10 -3.75511E-10 -4.86489E-10 -5.96931E-10 -7.06789E-10 -8.15974E-10 -9.24389E-10 -1.03197E-09 -1.13865E-09 -1.24431E-09
  -1.34890E-09 -1.45230E-09 -1.55443E-09 -1.65514E-09 -1.75423E-09 -1.85126E-09 -1.94440E-09 -2.02915E-09 -2.11086E-09 -2.19301E-09
  -2.27647E-09 -2.36089E-09 -2.44562E-09 -2.53044E-09 -2.61556E-09 -2.70169E-09 -2.78917E-09 -2.87658E-09 -2.95937E-09 -3.03234E-09
  -3.10093E-09 -3.16632E-09 -3.22873E-09 -3.28830E-09 -3.34511E-09 -3.39922E-09 -3.45067E-09 -3.49950E-09 -3.54576E-09 -3.58947E-09
  -3.63068E-09 -3.66940E-09 -3.70568E-09 -3.73953E-09 -3.77101E-09 -3.80014E-09 -3.82694E-09 -3.85145E-09 -3.87371E-09 -3.89373E-09
  -3.91156E-09 -3.92722E-09 -3.94075E-09 -3.95217E-09 -3.96152E-09 -3.96883E-09 -3.97412E-09 -3.97743E-09 -3.97879E-09 -3.97823E-09
  -3.97578E-09 -3.97147E-09 -3.96533E-09 -3.95739E-09 -3.94769E-09 -3.93625E-09 -3.92310E-09 -3.90827E-09 -3.89182E-09 -3.87373E-09
  -3.85407E-09 -3.83284E-09 -3.81010E-09 -3.78587E-09 -3.76019E-09 -3.73306E-09 -3.70454E-09 -3.67466E-09 -3.64343E-09 -3.61089E-09
  -3.57708E-09 -3.54202E-09 -3.50574E-09 -3.46828E-09 -3.42967E-09 -3.38993E-09 -3.34910E-09 -3.30721E-09 -3.26429E-09 -3.22035E-09
  -3.17546E-09 -3.12962E-09 -3.08288E-09 -3.03525E-09 -2.98679E-09 -2.93750E-09 -2.88743E-09 -2.83662E-09 -2.78509E-09 -2.73288E-09
  -2.68001E-09 -2.62652E-09 -2.57245E-09 -2.51782E-09 -2.46266E-09 -2.40701E-09 -2.35091E-09 -2.29437E-09 -2.23744E-09 -2.18015E-09
  -2.12252E-09 -2.06460E-09 -2.00641E-09 -1.94798E-09 -1.88935E-09 -1.83056E-09 -1.77162E-09 -1.71258E-09 -1.65346E-09 -1.59431E-09
  -1.53514E-09 -1.47600E-09 -1.41690E-09 -1.35790E-09 -1.29902E-09 -1.24029E-09 -1.18174E-09 -1.12340E-09 -1.06531E-09 -1.00751E-09
  -9.50022E-10 -8.92860E-10 -8.36086E-10 -7.79723E-10 -7.23800E-10 -6.68341E-10 -6.13402E-10 -5.58994E-10 -5.05143E-10 -4.51907E-10
  -3.99297E-10 -3.47365E-10 -2.96118E-10 -2.45610E-10 -1.95856E-10 -1.46891E-10 -9.87594E-11 -5.14918E-11 -5.11677E-12  4.03372E-11
   8.48480E-11  1.28379E-10  1.70865E-10  2.12334E-10  2.52791E-10  2.92265E-10  3.30781E-10  3.68356E-10  4.05024E-10  4.40798E-10
   4.75707E-10  5.09778E-10  5.43032E-10  5.75489E-10  6.07180E-10  6.38126E-10  6.68354E-10  6.97882E-10  7.26739E-10  7.54944E-10
   7.82528E-10  8.09511E-10  8.35914E-10  8.61763E-10  8.87084E-10  9.11903E-10  9.36243E-10  9.60124E-10  9.83567E-10  1.00661E-09
   1.02926E-09  1.05155E-09  1.07351E-09  1.09515E-09  1.11649E-09  1.13758E-09  1.15844E-09  1.17906E-09  1.19950E-09  1.21977E-09
   1.23988E-09  1.25989E-09  1.27979E-09  1.29962E-09  1.31940E-09  1.33915E-09  1.35891E-09  1.37869E-09  1.39851E-09  1.41841E-09
   1.43840E-09  1.45851E-09  1.47876E-09  1.49918E-09  1.51979E-09  1.54062E-09  1.56167E-09  1.58300E-09  1.60461E-09  1.62653E-09
   1.64879E-09  1.67140E-09  1.69440E-09
 Asp      Conc. = 1.70E-09
   8.08213E-09  7.80886E-09  7.57887E-09  7.31698E-09  7.07359E-09  6.84572E-09  6.63475E-09  6.52407E-09  6.46370E-09  6.42547E-09
   6.39931E-09  6.38079E-09  6.36744E-09  6.35711E-09  6.34765E-09  6.33926E-09  6.33184E-09  6.32522E-09  6.31928E-09  6.31394E-09
   6.30914E-09  6.30488E-09  6.30117E-09  6.29807E-09  6.29566E-09  6.29408E-09  6.29349E-09  6.29416E-09  6.29646E-09  6.30089E-09
   6.30821E-09  6.31957E-09  6.33683E-09  6.36332E-09  6.40569E-09  6.48047E-09  6.60569E-09  6.74511E-09  6.87743E-09  6.95979E-09
   6.99465E-09  7.01808E-09  7.12879E-09  7.30278E-09  7.64958E-09  8.01883E-09  8.24734E-09  8.36993E-09  8.56390E-09  8.74470E-09
   8.83685E-09  8.79423E-09  8.55117E-09  8.11946E-09  7.67800E-09  7.31314E-09  7.17841E-09  7.07456E-09  6.87381E-09  6.64547E-09
   6.52320E-09  6.41601E-09  6.32404E-09  6.27423E-09  6.19223E-09  6.06278E-09  5.95142E-09  5.87236E-09  5.80957E-09  5.75612E-09
   5.70854E-09  5.66484E-09  5.62378E-09  5.58453E-09  5.54650E-09  5.50927E-09  5.47250E-09  5.43597E-09  5.39944E-09  5.36279E-09
   5.32586E-09  5.28854E-09  5.25073E-09  5.21237E-09  5.17337E-09  5.13366E-09  5.09319E-09  5.05189E-09  5.00973E-09  4.96665E-09
   4.92261E-09  4.87758E-09  4.83152E-09  4.78437E-09  4.73612E-09  4.68672E-09  4.63614E-09  4.58436E-09  4.53133E-09  4.47705E-09
   4.42145E-09  4.36452E-09  4.30624E-09  4.24657E-09  4.18549E-09  4.12297E-09  4.05897E-09  3.99348E-09  3.92648E-09  3.85792E-09
   3.78779E-09  3.71604E-09  3.64269E-09  3.56766E-09  3.49096E-09  3.41256E-09  3.33243E-09  3.25054E-09  3.16687E-09  3.08142E-09
   2.99410E-09  2.90494E-09  2.81394E-09  2.72117E-09  2.62670E-09  2.53062E-09  2.43300E-09  2.33391E-09  2.23344E-09  2.13166E-09
   2.02865E-09  1.92450E-09  1.81926E-09  1.71303E-09  1.60587E-09  1.49789E-09  1.38913E-09  1.27969E-09  1.16966E-09  1.05910E-09
   9.48106E-10  8.36747E-10  7.25111E-10  6.13300E-10  5.01362E-10  3.89399E-10  2.77509E-10  1.65786E-10  5.43043E-11 -5.68121E-11
  -1.67459E-10 -2.77551E-10 -3.86937E-10 -4.95467E-10 -6.03014E-10 -7.09375E-10 -8.14294E-10 -9.17486E-10 -1.01854E-09 -1.11685E-09
  -1.21156E-09 -1.30113E-09 -1.38293E-09 -1.45147E-09 -1.49334E-09 -1.46433E-09 -1.13838E-09 -4.66581E-10  2.05139E-10  6.98051E-10
   9.80499E-10  1.08096E-09  1.03008E-09  8.28748E-10  4.42227E-10 -1.77519E-10 -1.02178E-09 -1.92620E-09 -2.52110E-09 -2.74320E-09
  -2.87802E-09 -2.98035E-09 -3.06609E-09 -3.14157E-09 -3.20984E-09 -3.27253E-09 -3.33060E-09 -3.38468E-09 -3.43517E-09 -3.48235E-09
  -3.52645E-09 -3.56761E-09 -3.60597E-09 -3.64162E-09 -3.67465E-09 -3.70514E-09 -3.73314E-09 -3.75872E-09 -3.78192E-09 -3.80280E-09
  -3.82139E-09 -3.83775E-09 -3.85191E-09 -3.86390E-09 -3.87378E-09 -3.88157E-09 -3.88732E-09 -3.89104E-09 -3.89278E-09 -3.89258E-09
  -3.89046E-09 -3.88646E-09 -3.88062E-09 -3.87295E-09 -3.86351E-09 -3.85231E-09 -3.83939E-09 -3.82479E-09 -3.80853E-09 -3.79065E-09
  -3.77117E-09 -3.75012E-09 -3.72755E-09 -3.70349E-09 -3.67796E-09 -3.65098E-09 -3.62260E-09 -3.59286E-09 -3.56176E-09 -3.52935E-09
