 LCModel (Version 6.3-1R) Copyright: S.W. Provencher.          Ref.: Magn. Reson. Med. 30:672-679 (1993).                
 onepulse 28x28_ftSpec_smooth_lcm
 26 lines in following concentration table = NCONC+1
    Conc.  %SD   /Cr    Metabolite                                         
    0.000 999%   0.000 Ala                                                 
    0.000 999%   0.000 Asp                                                 
    0.000 999%   0.000 Cr                                                  
    0.000 999%   0.000 GABA                                                
    0.000 999%   0.000 Glc                                                 
    0.000 999%   0.000 Gln                                                 
    0.000 999%   0.000 Glu                                                 
    0.000 999%   0.000 Glyc                                                
    0.000 999%   0.000 GPC                                                 
    0.000 999%   0.000 GSH                                                 
    0.000 999%   0.000 Ins                                                 
    0.000 999%   0.000 Lac                                                 
    0.000 999%   0.000 NAAG                                                
    0.000 999%   0.000 NAA                                                 
    0.000 999%   0.000 PCh                                                 
    0.000 999%   0.000 PCr                                                 
    0.000 999%   0.000 PE                                                  
    0.000 999%   0.000 Scyllo                                              
    0.000 999%   0.000 Ser                                                 
    0.000 999%   0.000 Tau                                                 
    0.000 999%   0.000 GPC+PCh                                             
    0.000 999%   0.000 NAA+NAAG                                            
    0.000 999%   0.000 Ins+Glyc                                            
    0.000 999%   0.000 Cr+PCr                                              
    0.000 999%   0.000 Glu+Gln                                             
   6 lines in following misc. output table
  FWHM = 0.078 ppm    S/N =   0                                            
  Data shift = 0.168 ppm                                                   
  Ph:-177 deg      28.5 deg/ppm                                            
  alphaB,S = 1.5E+00,   4.2E-01                                            
    9 spline knots.   Ns = 5(1)                                            
   2 inflections.     1 extrema                                            
  363 points on ppm-axis = NY
      4.250000     4.238821     4.227641     4.216462     4.205282     4.194103     4.182923     4.171744     4.160564     4.149385
      4.138206     4.127026     4.115847     4.104667     4.093488     4.082308     4.071129     4.059949     4.048770     4.037591
      4.026411     4.015232     4.004052     3.992873     3.981693     3.970514     3.959334     3.948155     3.936975     3.925796
      3.914617     3.903437     3.892258     3.881078     3.869899     3.858719     3.847540     3.836360     3.825181     3.814002
      3.802822     3.791643     3.780463     3.769284     3.758104     3.746925     3.735745     3.724566     3.713387     3.702207
      3.691028     3.679848     3.668669     3.657489     3.646310     3.635130     3.623951     3.612772     3.601592     3.590413
      3.579233     3.568054     3.556874     3.545695     3.534515     3.523336     3.512156     3.500977     3.489798     3.478618
      3.467439     3.456259     3.445080     3.433900     3.422721     3.411541     3.400362     3.389183     3.378003     3.366824
      3.355644     3.344465     3.333285     3.322106     3.310926     3.299747     3.288568     3.277388     3.266209     3.255029
      3.243850     3.232670     3.221491     3.210311     3.199132     3.187953     3.176773     3.165594     3.154414     3.143235
      3.132055     3.120876     3.109696     3.098517     3.087337     3.076158     3.064979     3.053799     3.042620     3.031440
      3.020261     3.009081     2.997902     2.986722     2.975543     2.964364     2.953184     2.942005     2.930825     2.919646
      2.908466     2.897287     2.886107     2.874928     2.863749     2.852569     2.841390     2.830210     2.819031     2.807851
      2.796672     2.785492     2.774313     2.763134     2.751954     2.740775     2.729595     2.718416     2.707236     2.696057
      2.684877     2.673698     2.662519     2.651339     2.640160     2.628980     2.617801     2.606621     2.595442     2.584262
      2.573083     2.561903     2.550724     2.539545     2.528365     2.517186     2.506006     2.494827     2.483647     2.472468
      2.461288     2.450109     2.438930     2.427750     2.416571     2.405391     2.394212     2.383032     2.371853     2.360673
      2.349494     2.338315     2.327135     2.315956     2.304776     2.293597     2.282417     2.271238     2.260058     2.248879
      2.237700     2.226520     2.215341     2.204161     2.192982     2.181802     2.170623     2.159443     2.148264     2.137084
      2.125905     2.114726     2.103546     2.092367     2.081187     2.070008     2.058828     2.047649     2.036469     2.025290
      2.014111     2.002931     1.991752     1.980572     1.969393     1.958213     1.947034     1.935854     1.924675     1.913496
      1.902316     1.891137     1.879957     1.868778     1.857598     1.846419     1.835239     1.824060     1.812881     1.801701
      1.790522     1.779342     1.768163     1.756983     1.745804     1.734624     1.723445     1.712265     1.701086     1.689907
      1.678727     1.667548     1.656368     1.645189     1.634009     1.622830     1.611650     1.600471     1.589292     1.578112
      1.566933     1.555753     1.544574     1.533394     1.522215     1.511035     1.499856     1.488677     1.477497     1.466318
      1.455138     1.443959     1.432779     1.421600     1.410420     1.399241     1.388062     1.376882     1.365703     1.354523
      1.343344     1.332164     1.320985     1.309805     1.298626     1.287446     1.276267     1.265088     1.253908     1.242729
      1.231549     1.220370     1.209190     1.198011     1.186831     1.175652     1.164473     1.153293     1.142114     1.130934
      1.119755     1.108575     1.097396     1.086216     1.075037     1.063858     1.052678     1.041499     1.030319     1.019140
      1.007960     0.996781     0.985601     0.974422     0.963243     0.952063     0.940884     0.929704     0.918525     0.907345
      0.896166     0.884986     0.873807     0.862628     0.851448     0.840269     0.829089     0.817910     0.806730     0.795551
      0.784371     0.773192     0.762012     0.750833     0.739654     0.728474     0.717295     0.706115     0.694936     0.683756
      0.672577     0.661397     0.650218     0.639039     0.627859     0.616680     0.605500     0.594321     0.583141     0.571962
      0.560782     0.549603     0.538424     0.527244     0.516065     0.504885     0.493706     0.482526     0.471347     0.460167
      0.448988     0.437809     0.426629     0.415450     0.404270     0.393091     0.381911     0.370732     0.359552     0.348373
      0.337193     0.326014     0.314835     0.303655     0.292476     0.281296     0.270117     0.258937     0.247758     0.236578
      0.225399     0.214220     0.203040
 NY phased data points follow
  -7.74952E-09 -6.58893E-09 -7.90727E-09 -6.93548E-09 -7.74955E-09 -6.81751E-09 -7.68381E-09 -6.62418E-09 -8.02207E-09 -6.89821E-09
  -7.95998E-09 -7.06110E-09 -8.40844E-09 -7.90250E-09 -9.48338E-09 -9.09967E-09 -1.08514E-08 -9.72405E-09 -1.01698E-08 -8.25365E-09
  -8.64831E-09 -7.13906E-09 -7.98401E-09 -6.77127E-09 -7.68724E-09 -6.44045E-09 -7.38583E-09 -6.60268E-09 -7.33295E-09 -6.79859E-09
  -7.43872E-09 -6.67805E-09 -7.24287E-09 -6.25312E-09 -6.96355E-09 -5.89671E-09 -6.15453E-09 -5.25242E-09 -5.86220E-09 -4.94950E-09
  -5.97755E-09 -5.40057E-09 -6.16501E-09 -4.67283E-09 -5.58359E-09 -4.49160E-09 -5.30890E-09 -4.96837E-09 -6.08476E-09 -5.29094E-09
  -5.12733E-09 -4.01431E-09 -4.24817E-09 -2.85024E-09 -3.58049E-09 -2.52251E-09 -3.47100E-09 -2.80823E-09 -2.99248E-09 -1.99984E-09
  -2.81542E-09 -1.89642E-09 -2.51308E-09 -1.32391E-09 -2.53507E-09 -1.57963E-09 -2.60657E-09 -1.70279E-09 -2.61668E-09 -1.61913E-09
  -2.36682E-09 -1.50540E-09 -2.28578E-09 -1.82944E-09 -2.71283E-09 -2.14595E-09 -2.93249E-09 -2.34274E-09 -3.22676E-09 -3.28976E-09
  -3.98875E-09 -2.94139E-09 -2.76734E-09 -1.66430E-09 -1.78783E-09 -1.25673E-09 -1.37821E-09 -6.88755E-10 -1.43814E-09 -1.42471E-09
  -1.88049E-09 -1.48633E-09 -2.17369E-09 -1.94483E-09 -3.05832E-09 -4.50351E-09 -4.75219E-09 -4.28120E-09 -3.60068E-09 -2.07306E-09
  -1.90432E-09 -9.42396E-10 -1.26207E-09 -7.53709E-10 -1.19114E-09 -5.74824E-10 -7.11188E-10 -6.73510E-11 -5.28786E-10  1.67496E-10
  -3.47422E-10  4.16873E-12  1.98656E-10  1.99593E-10 -2.71705E-10  2.49260E-10 -1.83639E-10 -1.57527E-10 -4.01748E-10 -5.36087E-11
  -1.38500E-10  2.56776E-10  1.73963E-10  3.92724E-10  3.39960E-10  1.06298E-09  6.25096E-10  1.15376E-09  2.25975E-10  3.51411E-10
   6.81636E-11  7.98202E-10  5.38872E-10  7.14576E-10  7.34796E-10  7.31640E-10  8.33779E-10  1.21208E-09  8.53480E-10  1.57760E-09
   1.45920E-09  1.32509E-09  1.02225E-09  1.51260E-09  5.96832E-10  1.13807E-09  3.68794E-10  6.06490E-10  8.28134E-11  1.90807E-10
  -5.76138E-10 -3.28838E-10 -4.76805E-10 -6.53658E-10 -1.37795E-09 -1.52624E-09 -2.15368E-09 -1.81122E-09 -2.09256E-09 -1.33547E-09
  -1.69362E-09 -1.81967E-09 -2.05350E-09 -1.44352E-09 -1.67182E-09 -1.03113E-09 -1.24507E-09 -9.85504E-10 -1.44865E-09 -1.24350E-09
  -1.52683E-09 -1.65585E-09 -1.74604E-09 -1.36026E-09 -1.76379E-09 -1.68533E-09 -1.79696E-09 -1.30141E-09 -1.21442E-09 -5.09475E-10
  -3.59678E-10  4.02923E-10 -7.39943E-11  6.42357E-10  6.20995E-10  5.16540E-10 -3.19849E-10  6.56882E-10  2.23423E-09  4.26333E-09
   6.17052E-09  7.27676E-09  8.17963E-09  8.95662E-09  9.18474E-09  1.01896E-08  1.03466E-08  1.05758E-08  1.09580E-08  1.13909E-08
   1.16523E-08  1.17163E-08  1.17998E-08  1.21093E-08  1.20659E-08  1.26418E-08  1.25052E-08  1.33015E-08  1.28820E-08  1.32344E-08
   1.34323E-08  1.38160E-08  1.35645E-08  1.38330E-08  1.28256E-08  1.19823E-08  1.04238E-08  8.87146E-09  6.29947E-09  4.09588E-09
   1.71888E-09 -3.85014E-10 -2.19382E-09 -3.11515E-09 -3.97858E-09 -3.66058E-09 -3.34963E-09 -1.85662E-09 -3.25832E-10  1.32459E-09
   2.32867E-09  2.77981E-09  2.92355E-09  2.86074E-09  1.90131E-09  1.76531E-09  6.32555E-10  7.54399E-10  3.90276E-10  1.42673E-09
   1.67897E-09  2.50093E-09  2.04024E-09  1.56089E-09  1.99180E-10 -7.23579E-10 -1.77398E-09 -1.59400E-09 -1.31424E-09  5.20817E-10
   1.28170E-09  2.22929E-09  1.78701E-09  1.17251E-09  1.44573E-10 -3.34213E-10 -1.32004E-09 -1.57746E-09 -1.34888E-09 -6.10903E-10
  -5.98771E-10 -9.25325E-12 -3.54171E-10 -4.14743E-10 -1.06259E-09 -1.31554E-09 -1.57935E-09 -1.66117E-09 -1.91970E-09 -1.05627E-09
  -1.16153E-09 -5.80143E-10 -4.53411E-10 -1.45712E-10 -3.81446E-10 -7.80114E-11 -6.85754E-10 -1.42808E-10 -2.43478E-10 -1.74056E-11
  -1.45157E-10  2.84409E-10  3.95188E-10  7.25808E-10  9.95983E-10  1.40212E-09  8.37339E-10  1.32767E-09  7.72027E-10  1.10567E-09
   8.34402E-10  9.47562E-10  9.18158E-10  1.30997E-09  9.34999E-10  1.38912E-09  1.14030E-09  1.34539E-09  8.38694E-10  9.55665E-10
   3.68011E-10  6.45500E-10  5.57868E-10  4.12251E-10  7.73820E-11  5.45935E-10  2.77121E-10  3.18458E-10  1.06376E-10  2.35460E-10
   1.72817E-12  3.40644E-10  3.72580E-11  1.83605E-10 -3.30190E-10  8.49491E-11 -2.75400E-10 -1.84208E-10 -6.16360E-10 -2.01248E-10
  -1.90262E-10 -8.49639E-11 -3.96170E-10  1.38167E-10 -2.70148E-10 -4.64044E-10 -5.47275E-10  1.63640E-10 -7.41438E-10 -4.14292E-10
  -2.49250E-10 -5.07631E-10 -7.37307E-10 -4.71875E-10 -7.62167E-10 -6.35487E-10 -8.36567E-10 -4.52036E-10 -8.51924E-10 -6.92089E-10
  -1.06000E-09 -6.28530E-10 -9.74361E-10 -9.89418E-10 -9.86719E-10 -1.04734E-09 -1.07953E-09 -9.63470E-10 -1.07487E-09 -1.08401E-09
  -1.15911E-09 -1.24354E-09 -1.19599E-09 -8.91141E-10 -1.20194E-09 -1.04065E-09 -1.23879E-09 -1.45974E-09 -1.42257E-09 -1.16049E-09
  -1.18305E-09 -1.34756E-09 -1.27646E-09
 NY points of the fit to the data follow
  -7.94742E-09 -7.87744E-09 -7.80741E-09 -7.73732E-09 -7.66717E-09 -7.59698E-09 -7.52674E-09 -7.45646E-09 -7.38616E-09 -7.31583E-09
  -7.24547E-09 -7.17508E-09 -7.10469E-09 -7.03428E-09 -6.96386E-09 -6.89343E-09 -6.82301E-09 -6.75259E-09 -6.68220E-09 -6.61182E-09
  -6.54144E-09 -6.47109E-09 -6.40076E-09 -6.33047E-09 -6.26022E-09 -6.19002E-09 -6.11984E-09 -6.04972E-09 -5.97967E-09 -5.90965E-09
  -5.83972E-09 -5.76983E-09 -5.70001E-09 -5.63030E-09 -5.56064E-09 -5.49106E-09 -5.42159E-09 -5.35220E-09 -5.28291E-09 -5.21373E-09
  -5.14464E-09 -5.07566E-09 -5.00680E-09 -4.93807E-09 -4.86944E-09 -4.80097E-09 -4.73261E-09 -4.66438E-09 -4.59631E-09 -4.52839E-09
  -4.46060E-09 -4.39296E-09 -4.32550E-09 -4.25820E-09 -4.19104E-09 -4.12405E-09 -4.05725E-09 -3.99064E-09 -3.92420E-09 -3.85798E-09
  -3.79193E-09 -3.72607E-09 -3.66042E-09 -3.59497E-09 -3.52972E-09 -3.46467E-09 -3.39983E-09 -3.33520E-09 -3.27077E-09 -3.20655E-09
  -3.14254E-09 -3.07874E-09 -3.01516E-09 -2.95178E-09 -2.88862E-09 -2.82568E-09 -2.76294E-09 -2.70045E-09 -2.63815E-09 -2.57609E-09
  -2.51424E-09 -2.45262E-09 -2.39121E-09 -2.33004E-09 -2.26911E-09 -2.20838E-09 -2.14790E-09 -2.08764E-09 -2.02761E-09 -1.96782E-09
  -1.90825E-09 -1.84894E-09 -1.78986E-09 -1.73101E-09 -1.67240E-09 -1.61403E-09 -1.55591E-09 -1.49802E-09 -1.44038E-09 -1.38300E-09
  -1.32585E-09 -1.26895E-09 -1.21231E-09 -1.15590E-09 -1.09976E-09 -1.04387E-09 -9.88217E-10 -9.32835E-10 -8.77718E-10 -8.22844E-10
  -7.68243E-10 -7.13880E-10 -6.59798E-10 -6.05961E-10 -5.52401E-10 -4.99101E-10 -4.46072E-10 -3.93313E-10 -3.40820E-10 -2.88633E-10
  -2.36660E-10 -1.84982E-10 -1.33577E-10 -8.24604E-11 -3.16344E-11  1.88897E-11  6.91101E-11  1.19014E-10  1.68591E-10  2.17838E-10
   2.66746E-10  3.15302E-10  3.63508E-10  4.11346E-10  4.58817E-10  5.05904E-10  5.52608E-10  5.98916E-10  6.44817E-10  6.90311E-10
   7.35381E-10  7.80028E-10  8.24240E-10  8.67997E-10  9.11315E-10  9.54177E-10  9.96569E-10  1.03848E-09  1.07992E-09  1.12086E-09
   1.16130E-09  1.20124E-09  1.24067E-09  1.27956E-09  1.31793E-09  1.35577E-09  1.39305E-09  1.42978E-09  1.46596E-09  1.50155E-09
   1.53658E-09  1.57101E-09  1.60485E-09  1.63809E-09  1.67072E-09  1.70273E-09  1.73412E-09  1.76487E-09  1.79499E-09  1.82445E-09
   1.85325E-09  1.88139E-09  1.90886E-09  1.93565E-09  1.96175E-09  1.98714E-09  2.01184E-09  2.03582E-09  2.05907E-09  2.08161E-09
   2.10340E-09  2.12445E-09  2.14475E-09  2.16431E-09  2.18311E-09  2.20118E-09  2.21852E-09  2.23512E-09  2.25100E-09  2.26616E-09
   2.28060E-09  2.29433E-09  2.30735E-09  2.31967E-09  2.33129E-09  2.34221E-09  2.35245E-09  2.36200E-09  2.37087E-09  2.37906E-09
   2.38658E-09  2.39344E-09  2.39963E-09  2.40516E-09  2.41004E-09  2.41427E-09  2.41786E-09  2.42080E-09  2.42312E-09  2.42480E-09
   2.42585E-09  2.42628E-09  2.42609E-09  2.42529E-09  2.42388E-09  2.42187E-09  2.41925E-09  2.41604E-09  2.41224E-09  2.40786E-09
   2.40289E-09  2.39735E-09  2.39123E-09  2.38454E-09  2.37729E-09  2.36948E-09  2.36112E-09  2.35221E-09  2.34275E-09  2.33275E-09
   2.32221E-09  2.31114E-09  2.29954E-09  2.28742E-09  2.27478E-09  2.26162E-09  2.24796E-09  2.23379E-09  2.21912E-09  2.20395E-09
   2.18829E-09  2.17215E-09  2.15552E-09  2.13842E-09  2.12084E-09  2.10281E-09  2.08433E-09  2.06541E-09  2.04605E-09  2.02627E-09
   2.00606E-09  1.98545E-09  1.96444E-09  1.94304E-09  1.92125E-09  1.89909E-09  1.87656E-09  1.85368E-09  1.83044E-09  1.80686E-09
   1.78294E-09  1.75870E-09  1.73415E-09  1.70928E-09  1.68412E-09  1.65866E-09  1.63292E-09  1.60690E-09  1.58062E-09  1.55408E-09
   1.52728E-09  1.50025E-09  1.47298E-09  1.44549E-09  1.41778E-09  1.38987E-09  1.36175E-09  1.33344E-09  1.30495E-09  1.27628E-09
   1.24745E-09  1.21845E-09  1.18931E-09  1.16003E-09  1.13061E-09  1.10107E-09  1.07141E-09  1.04165E-09  1.01178E-09  9.81822E-10
   9.51779E-10  9.21668E-10  8.91484E-10  8.61246E-10  8.30955E-10  8.00619E-10  7.70254E-10  7.39868E-10  7.09466E-10  6.79055E-10
   6.48638E-10  6.18226E-10  5.87844E-10  5.57478E-10  5.27136E-10  4.96812E-10  4.66508E-10  4.36225E-10  4.05957E-10  3.75711E-10
   3.45480E-10  3.15266E-10  2.85065E-10  2.54883E-10  2.24712E-10  1.94555E-10  1.64408E-10  1.34275E-10  1.04150E-10  7.40387E-11
   4.39338E-11  1.38372E-11 -1.62500E-11 -4.63296E-11 -7.64029E-11 -1.06473E-10 -1.36541E-10 -1.66603E-10 -1.96659E-10 -2.26718E-10
  -2.56772E-10 -2.86821E-10 -3.16878E-10 -3.46934E-10 -3.76984E-10 -4.07044E-10 -4.37110E-10 -4.67173E-10 -4.97242E-10 -5.27320E-10
  -5.57398E-10 -5.87492E-10 -6.17586E-10 -6.47692E-10 -6.77803E-10 -7.07927E-10 -7.38064E-10 -7.68210E-10 -7.98369E-10 -8.28545E-10
  -8.58730E-10 -8.88932E-10 -9.19148E-10 -9.49379E-10 -9.79634E-10 -1.00990E-09 -1.04019E-09 -1.07049E-09 -1.10082E-09 -1.13116E-09
  -1.16153E-09 -1.19192E-09 -1.22234E-09
 NY background values follow
    -7.947E-09   -7.877E-09   -7.807E-09   -7.737E-09   -7.667E-09   -7.597E-09   -7.527E-09   -7.456E-09   -7.386E-09   -7.316E-09
    -7.245E-09   -7.175E-09   -7.105E-09   -7.034E-09   -6.964E-09   -6.893E-09   -6.823E-09   -6.753E-09   -6.682E-09   -6.612E-09
    -6.541E-09   -6.471E-09   -6.401E-09   -6.330E-09   -6.260E-09   -6.190E-09   -6.120E-09   -6.050E-09   -5.980E-09   -5.910E-09
    -5.840E-09   -5.770E-09   -5.700E-09   -5.630E-09   -5.561E-09   -5.491E-09   -5.422E-09   -5.352E-09   -5.283E-09   -5.214E-09
    -5.145E-09   -5.076E-09   -5.007E-09   -4.938E-09   -4.869E-09   -4.801E-09   -4.733E-09   -4.664E-09   -4.596E-09   -4.528E-09
    -4.461E-09   -4.393E-09   -4.325E-09   -4.258E-09   -4.191E-09   -4.124E-09   -4.057E-09   -3.991E-09   -3.924E-09   -3.858E-09
    -3.792E-09   -3.726E-09   -3.660E-09   -3.595E-09   -3.530E-09   -3.465E-09   -3.400E-09   -3.335E-09   -3.271E-09   -3.207E-09
    -3.143E-09   -3.079E-09   -3.015E-09   -2.952E-09   -2.889E-09   -2.826E-09   -2.763E-09   -2.700E-09   -2.638E-09   -2.576E-09
    -2.514E-09   -2.453E-09   -2.391E-09   -2.330E-09   -2.269E-09   -2.208E-09   -2.148E-09   -2.088E-09   -2.028E-09   -1.968E-09
    -1.908E-09   -1.849E-09   -1.790E-09   -1.731E-09   -1.672E-09   -1.614E-09   -1.556E-09   -1.498E-09   -1.440E-09   -1.383E-09
    -1.326E-09   -1.269E-09   -1.212E-09   -1.156E-09   -1.100E-09   -1.044E-09   -9.882E-10   -9.328E-10   -8.777E-10   -8.228E-10
    -7.682E-10   -7.139E-10   -6.598E-10   -6.060E-10   -5.524E-10   -4.991E-10   -4.461E-10   -3.933E-10   -3.408E-10   -2.886E-10
    -2.367E-10   -1.850E-10   -1.336E-10   -8.246E-11   -3.163E-11    1.889E-11    6.911E-11    1.190E-10    1.686E-10    2.178E-10
     2.667E-10    3.153E-10    3.635E-10    4.113E-10    4.588E-10    5.059E-10    5.526E-10    5.989E-10    6.448E-10    6.903E-10
     7.354E-10    7.800E-10    8.242E-10    8.680E-10    9.113E-10    9.542E-10    9.966E-10    1.038E-09    1.080E-09    1.121E-09
     1.161E-09    1.201E-09    1.241E-09    1.280E-09    1.318E-09    1.356E-09    1.393E-09    1.430E-09    1.466E-09    1.502E-09
     1.537E-09    1.571E-09    1.605E-09    1.638E-09    1.671E-09    1.703E-09    1.734E-09    1.765E-09    1.795E-09    1.824E-09
     1.853E-09    1.881E-09    1.909E-09    1.936E-09    1.962E-09    1.987E-09    2.012E-09    2.036E-09    2.059E-09    2.082E-09
     2.103E-09    2.124E-09    2.145E-09    2.164E-09    2.183E-09    2.201E-09    2.219E-09    2.235E-09    2.251E-09    2.266E-09
     2.281E-09    2.294E-09    2.307E-09    2.320E-09    2.331E-09    2.342E-09    2.352E-09    2.362E-09    2.371E-09    2.379E-09
     2.387E-09    2.393E-09    2.400E-09    2.405E-09    2.410E-09    2.414E-09    2.418E-09    2.421E-09    2.423E-09    2.425E-09
     2.426E-09    2.426E-09    2.426E-09    2.425E-09    2.424E-09    2.422E-09    2.419E-09    2.416E-09    2.412E-09    2.408E-09
     2.403E-09    2.397E-09    2.391E-09    2.385E-09    2.377E-09    2.369E-09    2.361E-09    2.352E-09    2.343E-09    2.333E-09
     2.322E-09    2.311E-09    2.300E-09    2.287E-09    2.275E-09    2.262E-09    2.248E-09    2.234E-09    2.219E-09    2.204E-09
     2.188E-09    2.172E-09    2.156E-09    2.138E-09    2.121E-09    2.103E-09    2.084E-09    2.065E-09    2.046E-09    2.026E-09
     2.006E-09    1.985E-09    1.964E-09    1.943E-09    1.921E-09    1.899E-09    1.877E-09    1.854E-09    1.830E-09    1.807E-09
     1.783E-09    1.759E-09    1.734E-09    1.709E-09    1.684E-09    1.659E-09    1.633E-09    1.607E-09    1.581E-09    1.554E-09
     1.527E-09    1.500E-09    1.473E-09    1.445E-09    1.418E-09    1.390E-09    1.362E-09    1.333E-09    1.305E-09    1.276E-09
     1.247E-09    1.218E-09    1.189E-09    1.160E-09    1.131E-09    1.101E-09    1.071E-09    1.042E-09    1.012E-09    9.818E-10
     9.518E-10    9.217E-10    8.915E-10    8.612E-10    8.310E-10    8.006E-10    7.703E-10    7.399E-10    7.095E-10    6.791E-10
     6.486E-10    6.182E-10    5.878E-10    5.575E-10    5.271E-10    4.968E-10    4.665E-10    4.362E-10    4.060E-10    3.757E-10
     3.455E-10    3.153E-10    2.851E-10    2.549E-10    2.247E-10    1.946E-10    1.644E-10    1.343E-10    1.042E-10    7.404E-11
     4.393E-11    1.384E-11   -1.625E-11   -4.633E-11   -7.640E-11   -1.065E-10   -1.365E-10   -1.666E-10   -1.967E-10   -2.267E-10
    -2.568E-10   -2.868E-10   -3.169E-10   -3.469E-10   -3.770E-10   -4.070E-10   -4.371E-10   -4.672E-10   -4.972E-10   -5.273E-10
    -5.574E-10   -5.875E-10   -6.176E-10   -6.477E-10   -6.778E-10   -7.079E-10   -7.381E-10   -7.682E-10   -7.984E-10   -8.285E-10
    -8.587E-10   -8.889E-10   -9.191E-10   -9.494E-10   -9.796E-10   -1.010E-09   -1.040E-09   -1.070E-09   -1.101E-09   -1.131E-09
    -1.162E-09   -1.192E-09   -1.222E-09
   6 lines in following diagnostic table:
   1 ERROR     MYBASI 10                                                  
   4 ERRORS    AREABA  3                                                  
   1 info      STARTV 13                                                  
   1 warning   STARTV 25                                                  
   1 info      STARTV 20                                                  
   2 warnings  RBASOL  3                                                  
  79 lines in following table of input changes:
ATTH2O=1.0                                                                
FILH2O='/mnt/c/Users/divya/Downloads/Lexar/DataFo                         
   rDivya/meas_MID01415_FID95676_lb_RosetteSpinEc                         
   ho_ek_v1a_lcm/28x28_ftSpec_smooth_lcm_w'                               
DOWS=T                                                                    
DOECC=T                                                                   
CHRATO(8)='MM9/MM1 = 1.40 +- 0.7'                                         
CHRATO(7)='MM8/MM1 = 0.33 +- 0.17'                                        
CHRATO(6)='MM7/MM1 = 0.54 +- 0.27'                                        
CHRATO(5)='MM6/MM1 = 0.63 +- 0.16'                                        
CHRATO(4)='MM5/MM1 = 3.16 +- 0.79'                                        
CHRATO(3)='MM4/MM1 = 1.29 +- 1.03'                                        
CHRATO(2)='MM3/MM1 = 1.05 +- 0.63'                                        
CHRATO(1)='MM2/MM1 = 0.51 +- 0.17'                                        
NRATIO=8                                                                  
NORATO(7)='-CrCH2/totCr'                                                  
NORATO(6)='MM17/MM09*'                                                    
NORATO(5)='MM14/MM09*'                                                    
NORATO(4)='MM12/MM09*'                                                    
NORATO(3)='MM20/MM09*'                                                    
NORATO(2)='Lip20/Lip13*'                                                  
NORATO(1)='Lip09/Lip13*'                                                  
NNORAT=7                                                                  
CHOMIT(14)='-CrCH2'                                                       
CHOMIT(13)='MM17'                                                         
CHOMIT(12)='MM14'                                                         
CHOMIT(11)='MM12'                                                         
CHOMIT(10)='MM20'                                                         
CHOMIT(9)='Lip20'                                                         
CHOMIT(8)='MM09'                                                          
CHOMIT(7)='Lip09'                                                         
CHOMIT(6)='Lip13d'                                                        
CHOMIT(5)='Lip13c'                                                        
CHOMIT(4)='Lip13b'                                                        
CHOMIT(3)='Lip13a'                                                        
CHOMIT(2)='bHG'                                                           
CHOMIT(1)='bHB'                                                           
NOMIT=14                                                                  
NEACH=999                                                                 
DKNTMN=0.3                                                                
WDLINE(1)=0.025                                                           
RFWHM=0.15                                                                
PPMEND=0.2                                                                
PPMST=4.25                                                                
LPS=8                                                                     
DOREFS(1)=T                                                               
FILPRI='/mnt/c/Users/divya/Downloads/Lexar/DataFo                         
   rDivya/meas_MID01415_FID95676_lb_RosetteSpinEc                         
   ho_ek_v1a_lcm/28x28_ftSpec_smooth_lcm_out/28x2                         
   8_ftSpec_smooth_lcm.print'                                             
LCSV=11                                                                   
LCOORD=9                                                                  
LTABLE=7                                                                  
LPRINT=6                                                                  
ECHOT=20                                                                  
NUNFIL=576                                                                
DELTAT=0.00063000                                                         
HZPPPM=123.25                                                             
FILBAS='/mnt/c/Users/divya/Downloads/linux-send/f                         
   ida2/new/3T_SpinEchoRosetteMRSI_TE20.basis'                            
FILCSV='/mnt/c/Users/divya/Downloads/Lexar/DataFo                         
   rDivya/meas_MID01415_FID95676_lb_RosetteSpinEc                         
   ho_ek_v1a_lcm/28x28_ftSpec_smooth_lcm_out/28x2                         
   8_ftSpec_smooth_lcm.csv'                                               
FILCOO='/mnt/c/Users/divya/Downloads/Lexar/DataFo                         
   rDivya/meas_MID01415_FID95676_lb_RosetteSpinEc                         
   ho_ek_v1a_lcm/28x28_ftSpec_smooth_lcm_out/28x2                         
   8_ftSpec_smooth_lcm.coord'                                             
FILTAB='/mnt/c/Users/divya/Downloads/Lexar/DataFo                         
   rDivya/meas_MID01415_FID95676_lb_RosetteSpinEc                         
   ho_ek_v1a_lcm/28x28_ftSpec_smooth_lcm_out/28x2                         
   8_ftSpec_smooth_lcm.table'                                             
FILPS='/mnt/c/Users/divya/Downloads/Lexar/DataFor                         
   Divya/meas_MID01415_FID95676_lb_RosetteSpinEch                         
   o_ek_v1a_lcm/28x28_ftSpec_smooth_lcm_out/28x28                         
   _ftSpec_smooth_lcm.ps'                                                 
FILRAW='/mnt/c/Users/divya/Downloads/Lexar/DataFo                         
   rDivya/meas_MID01415_FID95676_lb_RosetteSpinEc                         
   ho_ek_v1a_lcm/28x28_ftSpec_smooth_lcm'                                 
