 LCModel (Version 6.3-1R) Copyright: S.W. Provencher.          Ref.: Magn. Reson. Med. 30:672-679 (1993).                
 onepulse 28x21_ftSpec_smooth_lcm
 26 lines in following concentration table = NCONC+1
    Conc.  %SD   /Cr    Metabolite                                         
 7.21E-10  91%   0.000 Ala                                                 
 1.38E-10 880%   0.000 Asp                                                 
    0.000 999%   0.000 Cr                                                  
 1.55E-09  55%   0.000 GABA                                                
    0.000 999%   0.000 Glc                                                 
    0.000 999%   0.000 Gln                                                 
    0.000 999%   0.000 Glu                                                 
 1.34E-09 253%   0.000 Glyc                                                
    0.000 999%   0.000 GPC                                                 
    0.000 999%   0.000 GSH                                                 
 2.05E-10 999%   0.000 Ins                                                 
 1.24E-10 510%   0.000 Lac                                                 
 4.48E-10  75%   0.000 NAAG                                                
    0.000 999%   0.000 NAA                                                 
 6.39E-11 307%   0.000 PCh                                                 
    0.000 999%   0.000 PCr                                                 
    0.000 999%   0.000 PE                                                  
 1.70E-10 144%   0.000 Scyllo                                              
    0.000 999%   0.000 Ser                                                 
    0.000 999%   0.000 Tau                                                 
 6.39E-11 307%   0.000 GPC+PCh                                             
 4.48E-10  75%   0.000 NAA+NAAG                                            
 1.55E-09  50%   0.000 Ins+Glyc                                            
    0.000 999%   0.000 Cr+PCr                                              
    0.000 999%   0.000 Glu+Gln                                             
   6 lines in following misc. output table
  FWHM = 0.101 ppm    S/N =   1                                            
  Data shift = 0.212 ppm                                                   
  Ph: -24 deg      -5.1 deg/ppm                                            
  alphaB,S = 5.4E+01,   2.0E+01                                            
    8 spline knots.   Ns = 5(1)                                            
  ( 8) 2 infls.   ( 7) 1 extrs.                                            
  363 points on ppm-axis = NY
      4.250000     4.238821     4.227641     4.216462     4.205282     4.194103     4.182923     4.171744     4.160564     4.149385
      4.138206     4.127026     4.115847     4.104667     4.093488     4.082308     4.071129     4.059949     4.048770     4.037591
      4.026411     4.015232     4.004052     3.992873     3.981693     3.970514     3.959334     3.948155     3.936975     3.925796
      3.914617     3.903437     3.892258     3.881078     3.869899     3.858719     3.847540     3.836360     3.825181     3.814002
      3.802822     3.791643     3.780463     3.769284     3.758104     3.746925     3.735745     3.724566     3.713387     3.702207
      3.691028     3.679848     3.668669     3.657489     3.646310     3.635130     3.623951     3.612772     3.601592     3.590413
      3.579233     3.568054     3.556874     3.545695     3.534515     3.523336     3.512156     3.500977     3.489798     3.478618
      3.467439     3.456259     3.445080     3.433900     3.422721     3.411541     3.400362     3.389183     3.378003     3.366824
      3.355644     3.344465     3.333285     3.322106     3.310926     3.299747     3.288568     3.277388     3.266209     3.255029
      3.243850     3.232670     3.221491     3.210311     3.199132     3.187953     3.176773     3.165594     3.154414     3.143235
      3.132055     3.120876     3.109696     3.098517     3.087337     3.076158     3.064979     3.053799     3.042620     3.031440
      3.020261     3.009081     2.997902     2.986722     2.975543     2.964364     2.953184     2.942005     2.930825     2.919646
      2.908466     2.897287     2.886107     2.874928     2.863749     2.852569     2.841390     2.830210     2.819031     2.807851
      2.796672     2.785492     2.774313     2.763134     2.751954     2.740775     2.729595     2.718416     2.707236     2.696057
      2.684877     2.673698     2.662519     2.651339     2.640160     2.628980     2.617801     2.606621     2.595442     2.584262
      2.573083     2.561903     2.550724     2.539545     2.528365     2.517186     2.506006     2.494827     2.483647     2.472468
      2.461288     2.450109     2.438930     2.427750     2.416571     2.405391     2.394212     2.383032     2.371853     2.360673
      2.349494     2.338315     2.327135     2.315956     2.304776     2.293597     2.282417     2.271238     2.260058     2.248879
      2.237700     2.226520     2.215341     2.204161     2.192982     2.181802     2.170623     2.159443     2.148264     2.137084
      2.125905     2.114726     2.103546     2.092367     2.081187     2.070008     2.058828     2.047649     2.036469     2.025290
      2.014111     2.002931     1.991752     1.980572     1.969393     1.958213     1.947034     1.935854     1.924675     1.913496
      1.902316     1.891137     1.879957     1.868778     1.857598     1.846419     1.835239     1.824060     1.812881     1.801701
      1.790522     1.779342     1.768163     1.756983     1.745804     1.734624     1.723445     1.712265     1.701086     1.689907
      1.678727     1.667548     1.656368     1.645189     1.634009     1.622830     1.611650     1.600471     1.589292     1.578112
      1.566933     1.555753     1.544574     1.533394     1.522215     1.511035     1.499856     1.488677     1.477497     1.466318
      1.455138     1.443959     1.432779     1.421600     1.410420     1.399241     1.388062     1.376882     1.365703     1.354523
      1.343344     1.332164     1.320985     1.309805     1.298626     1.287446     1.276267     1.265088     1.253908     1.242729
      1.231549     1.220370     1.209190     1.198011     1.186831     1.175652     1.164473     1.153293     1.142114     1.130934
      1.119755     1.108575     1.097396     1.086216     1.075037     1.063858     1.052678     1.041499     1.030319     1.019140
      1.007960     0.996781     0.985601     0.974422     0.963243     0.952063     0.940884     0.929704     0.918525     0.907345
      0.896166     0.884986     0.873807     0.862628     0.851448     0.840269     0.829089     0.817910     0.806730     0.795551
      0.784371     0.773192     0.762012     0.750833     0.739654     0.728474     0.717295     0.706115     0.694936     0.683756
      0.672577     0.661397     0.650218     0.639039     0.627859     0.616680     0.605500     0.594321     0.583141     0.571962
      0.560782     0.549603     0.538424     0.527244     0.516065     0.504885     0.493706     0.482526     0.471347     0.460167
      0.448988     0.437809     0.426629     0.415450     0.404270     0.393091     0.381911     0.370732     0.359552     0.348373
      0.337193     0.326014     0.314835     0.303655     0.292476     0.281296     0.270117     0.258937     0.247758     0.236578
      0.225399     0.214220     0.203040
 NY phased data points follow
   1.20605E-08  1.16467E-08  1.21847E-08  1.17038E-08  1.18243E-08  1.08784E-08  1.13798E-08  1.04697E-08  1.06739E-08  1.01390E-08
   1.07345E-08  1.16682E-08  1.24211E-08  1.38327E-08  1.56841E-08  1.59980E-08  1.61743E-08  1.61060E-08  1.62918E-08  1.59317E-08
   1.56814E-08  1.52748E-08  1.45557E-08  1.46531E-08  1.45187E-08  1.41250E-08  1.42504E-08  1.47729E-08  1.46905E-08  1.52900E-08
   1.50420E-08  1.48798E-08  1.43279E-08  1.49910E-08  1.40007E-08  1.43925E-08  1.40814E-08  1.36048E-08  1.39248E-08  1.42755E-08
   1.41167E-08  1.38593E-08  1.35662E-08  1.43456E-08  1.39294E-08  1.51298E-08  1.51327E-08  1.63755E-08  1.58743E-08  1.59177E-08
   1.57759E-08  1.47930E-08  1.42900E-08  1.44808E-08  1.34081E-08  1.37626E-08  1.29777E-08  1.33961E-08  1.22115E-08  1.22907E-08
   1.13790E-08  1.11636E-08  1.05141E-08  1.06851E-08  1.06040E-08  1.06230E-08  1.02901E-08  9.66450E-09  9.32042E-09  9.53645E-09
   8.48233E-09  8.80543E-09  8.30018E-09  8.69501E-09  8.40763E-09  9.58181E-09  9.92293E-09  1.18167E-08  1.19432E-08  1.34146E-08
   1.26757E-08  1.25657E-08  1.17164E-08  1.16864E-08  1.03340E-08  1.07737E-08  9.43105E-09  9.22891E-09  8.25940E-09  8.73243E-09
   6.61477E-09  8.56561E-09  9.23084E-09  1.22151E-08  1.22770E-08  1.42304E-08  1.37853E-08  1.57547E-08  1.44415E-08  1.50757E-08
   1.46890E-08  1.48448E-08  1.46173E-08  1.51305E-08  1.45471E-08  1.49510E-08  1.40547E-08  1.40014E-08  1.34571E-08  1.35794E-08
   1.24642E-08  1.30226E-08  1.22638E-08  1.24617E-08  1.18973E-08  1.20747E-08  1.19704E-08  1.24831E-08  1.19192E-08  1.21106E-08
   1.19141E-08  1.20053E-08  1.12310E-08  1.13015E-08  9.86645E-09  1.06175E-08  9.40870E-09  1.00679E-08  9.85069E-09  9.96387E-09
   9.39630E-09  9.55013E-09  9.57520E-09  9.42214E-09  9.33198E-09  9.38401E-09  8.95692E-09  8.83671E-09  8.29399E-09  7.54950E-09
   7.26424E-09  7.58566E-09  7.35756E-09  7.06126E-09  7.33049E-09  7.09460E-09  7.23724E-09  6.79105E-09  6.33589E-09  6.48020E-09
   5.79373E-09  6.09113E-09  5.52723E-09  6.08875E-09  6.58004E-09  6.07573E-09  6.12727E-09  6.05694E-09  5.75036E-09  7.22917E-09
   6.64422E-09  7.57866E-09  6.67499E-09  7.16213E-09  7.50878E-09  7.80711E-09  7.57368E-09  8.11758E-09  7.86078E-09  7.85112E-09
   8.12326E-09  8.20372E-09  8.34046E-09  8.43328E-09  8.41386E-09  9.03153E-09  8.71512E-09  8.83817E-09  8.61198E-09  9.27490E-09
   9.34584E-09  1.05827E-08  1.08375E-08  1.38669E-08  1.53226E-08  1.81407E-08  1.99186E-08  2.15174E-08  2.20809E-08  2.24083E-08
   2.27579E-08  2.29067E-08  2.29058E-08  2.32415E-08  2.25291E-08  2.30141E-08  2.32420E-08  2.30923E-08  2.28278E-08  2.34125E-08
   2.38757E-08  2.40249E-08  2.38132E-08  2.43208E-08  2.33856E-08  2.37878E-08  2.37068E-08  2.35354E-08  2.18774E-08  2.18760E-08
   1.95947E-08  1.80936E-08  1.53074E-08  1.31737E-08  9.85819E-09  6.69767E-09  2.73643E-09  5.76166E-11 -4.50567E-09 -7.08404E-09
  -1.08377E-08 -1.31480E-08 -1.65393E-08 -1.66050E-08 -1.82008E-08 -1.82395E-08 -1.88989E-08 -1.73238E-08 -1.63777E-08 -1.39008E-08
  -1.26217E-08 -1.05716E-08 -8.63287E-09 -6.53060E-09 -6.10972E-09 -4.52324E-09 -3.99635E-09 -2.95585E-09 -3.55611E-09 -2.53921E-09
  -3.53555E-09 -2.54769E-09 -3.09827E-09 -2.83570E-09 -3.18883E-09 -1.75458E-09 -2.05093E-09 -1.46091E-09 -2.27608E-09 -1.12599E-09
  -2.41062E-09 -1.27569E-09 -2.45569E-09 -1.54408E-09 -2.50633E-09 -1.40092E-09 -2.23378E-09 -1.05524E-09 -1.32934E-09 -6.61758E-10
  -1.50201E-09 -7.08626E-10 -1.85194E-09 -1.04352E-09 -2.10361E-09 -9.03091E-10 -2.40818E-09 -9.58422E-10 -1.92038E-09 -1.11732E-09
  -1.34027E-09 -1.37720E-10 -7.39517E-10  6.55214E-11 -8.37813E-10 -4.78469E-10 -1.20214E-09 -6.85488E-10 -1.78938E-09 -1.06417E-09
  -1.94928E-09 -9.96116E-10 -1.97561E-09 -8.10776E-10 -1.93706E-09 -1.65306E-09 -1.89852E-09 -3.09177E-10 -1.47422E-09 -9.95483E-10
  -1.52258E-09 -3.92368E-11 -1.34965E-09 -3.01139E-10 -8.11502E-10 -1.85851E-10 -1.35431E-09 -2.51491E-10 -1.13074E-09  2.91894E-10
  -1.14238E-09 -8.74128E-10 -1.02110E-09 -2.09089E-10 -1.42757E-09 -8.24880E-10 -1.19853E-09 -5.14016E-10 -6.82241E-10 -6.78613E-10
  -6.63297E-10 -9.22150E-10 -8.04512E-10 -9.48106E-10 -1.03057E-09 -9.46431E-10 -1.38989E-09 -5.68365E-10 -1.39014E-09 -7.26854E-10
  -1.58429E-09 -1.11286E-09 -1.69547E-09 -1.00994E-09 -1.87842E-09 -9.85735E-10 -1.95927E-09 -1.43307E-09 -1.97772E-09 -1.16575E-09
  -2.24885E-09 -1.45459E-09 -2.06853E-09 -1.20042E-09 -2.07811E-09 -1.90802E-09 -2.25655E-09 -1.61838E-09 -2.29742E-09 -2.23955E-09
  -2.20828E-09 -2.28043E-09 -2.40404E-09 -1.92322E-09 -2.37811E-09 -2.00906E-09 -2.81746E-09 -2.06429E-09 -2.73921E-09 -2.08307E-09
  -3.08872E-09 -1.70917E-09 -3.19218E-09 -1.66836E-09 -2.88912E-09 -2.19583E-09 -2.95072E-09 -2.09778E-09 -2.97146E-09 -2.65839E-09
  -3.28573E-09 -2.72767E-09 -3.54094E-09
 NY points of the fit to the data follow
   1.29352E-08  1.27550E-08  1.25504E-08  1.23141E-08  1.20216E-08  1.16977E-08  1.12935E-08  1.06397E-08  9.94028E-09  1.00850E-08
   1.08062E-08  1.16739E-08  1.25581E-08  1.33979E-08  1.42001E-08  1.50409E-08  1.58978E-08  1.66121E-08  1.70540E-08  1.67158E-08
   1.57612E-08  1.52084E-08  1.48272E-08  1.45151E-08  1.44484E-08  1.46149E-08  1.48722E-08  1.50030E-08  1.47845E-08  1.42650E-08
   1.40801E-08  1.39942E-08  1.39511E-08  1.41276E-08  1.42835E-08  1.42763E-08  1.44539E-08  1.47749E-08  1.51407E-08  1.54391E-08
   1.56104E-08  1.57409E-08  1.58669E-08  1.56816E-08  1.53334E-08  1.51682E-08  1.49211E-08  1.45397E-08  1.42084E-08  1.39428E-08
   1.37163E-08  1.35201E-08  1.33280E-08  1.31201E-08  1.28776E-08  1.26537E-08  1.24212E-08  1.22073E-08  1.19735E-08  1.16821E-08
   1.13068E-08  1.09219E-08  1.07209E-08  1.06559E-08  1.05214E-08  1.05883E-08  1.08492E-08  1.11220E-08  1.14299E-08  1.18259E-08
   1.22411E-08  1.25949E-08  1.28203E-08  1.28873E-08  1.28871E-08  1.25244E-08  1.21361E-08  1.22386E-08  1.25348E-08  1.26635E-08
   1.27845E-08  1.29105E-08  1.29514E-08  1.31581E-08  1.35958E-08  1.38819E-08  1.37869E-08  1.33247E-08  1.30953E-08  1.30446E-08
   1.30338E-08  1.30298E-08  1.31152E-08  1.31511E-08  1.29850E-08  1.28481E-08  1.27299E-08  1.24022E-08  1.19977E-08  1.15754E-08
   1.13212E-08  1.12410E-08  1.10993E-08  1.10755E-08  1.12481E-08  1.15631E-08  1.19513E-08  1.24110E-08  1.28742E-08  1.32093E-08
   1.33571E-08  1.33247E-08  1.34284E-08  1.34618E-08  1.31428E-08  1.28315E-08  1.25910E-08  1.23688E-08  1.21453E-08  1.19662E-08
   1.17763E-08  1.15358E-08  1.13230E-08  1.11343E-08  1.09622E-08  1.08020E-08  1.06509E-08  1.05070E-08  1.03688E-08  1.02353E-08
   1.01056E-08  9.97900E-09  9.85507E-09  9.73326E-09  9.61316E-09  9.49437E-09  9.37669E-09  9.25968E-09  9.14310E-09  9.02664E-09
   8.91006E-09  8.79308E-09  8.67542E-09  8.55673E-09  8.43674E-09  8.31508E-09  8.19136E-09  8.06516E-09  7.93599E-09  7.80328E-09
   7.66637E-09  7.52449E-09  7.37669E-09  7.22185E-09  7.05856E-09  6.88507E-09  6.69916E-09  6.49793E-09  6.27754E-09  6.03277E-09
   5.75622E-09  5.43718E-09  5.05913E-09  4.59513E-09  3.99726E-09  3.17139E-09  1.95555E-09  1.45800E-09  2.14582E-09  3.51996E-09
   5.06680E-09  6.54299E-09  7.97601E-09  9.51603E-09  1.12726E-08  1.31276E-08  1.45737E-08  1.47961E-08  1.33586E-08  1.18659E-08
   1.09252E-08  1.02636E-08  9.76054E-09  9.35739E-09  9.02200E-09  8.73503E-09  8.48407E-09  8.26074E-09  8.05903E-09  7.87468E-09
   7.70452E-09  7.54601E-09  7.39732E-09  7.25689E-09  7.12359E-09  6.99638E-09  6.87444E-09  6.75718E-09  6.64401E-09  6.53441E-09
   6.42804E-09  6.32453E-09  6.22362E-09  6.12501E-09  6.02849E-09  5.93391E-09  5.84105E-09  5.74977E-09  5.65992E-09  5.57147E-09
   5.48418E-09  5.39805E-09  5.31298E-09  5.22888E-09  5.14564E-09  5.06328E-09  4.98170E-09  4.90082E-09  4.82065E-09  4.74111E-09
   4.66218E-09  4.58380E-09  4.50595E-09  4.42860E-09  4.35173E-09  4.27528E-09  4.19926E-09  4.12364E-09  4.04839E-09  3.97350E-09
   3.89893E-09  3.82469E-09  3.75075E-09  3.67710E-09  3.60372E-09  3.53060E-09  3.45772E-09  3.38509E-09  3.31267E-09  3.24047E-09
   3.16849E-09  3.09668E-09  3.02506E-09  2.95363E-09  2.88237E-09  2.81127E-09  2.74032E-09  2.66953E-09  2.59887E-09  2.52836E-09
   2.45796E-09  2.38771E-09  2.31755E-09  2.24754E-09  2.17763E-09  2.10781E-09  2.03810E-09  1.96849E-09  1.89898E-09  1.82956E-09
   1.76023E-09  1.69097E-09  1.62179E-09  1.55267E-09  1.48365E-09  1.41470E-09  1.34579E-09  1.27698E-09  1.20821E-09  1.13950E-09
   1.07085E-09  1.00226E-09  9.33714E-10  8.65236E-10  7.96785E-10  7.28394E-10  6.60035E-10  5.91726E-10  5.23466E-10  4.55240E-10
   3.87038E-10  3.18882E-10  2.50753E-10  1.82664E-10  1.14604E-10  4.65712E-11 -2.14437E-11 -8.94067E-11 -1.57355E-10 -2.25287E-10
  -2.93182E-10 -3.61061E-10 -4.28921E-10 -4.96761E-10 -5.64586E-10 -6.32386E-10 -7.00178E-10 -7.67949E-10 -8.35708E-10 -9.03454E-10
  -9.71185E-10 -1.03891E-09 -1.10661E-09 -1.17431E-09 -1.24201E-09 -1.30969E-09 -1.37736E-09 -1.44503E-09 -1.51269E-09 -1.58035E-09
  -1.64800E-09 -1.71565E-09 -1.78328E-09 -1.85093E-09 -1.91856E-09 -1.98620E-09 -2.05384E-09 -2.12147E-09 -2.18911E-09 -2.25674E-09
  -2.32438E-09 -2.39203E-09 -2.45967E-09 -2.52731E-09 -2.59496E-09 -2.66262E-09 -2.73027E-09 -2.79793E-09 -2.86559E-09 -2.93327E-09
  -3.00094E-09 -3.06862E-09 -3.13632E-09 -3.20402E-09 -3.27172E-09 -3.33944E-09 -3.40716E-09 -3.47489E-09 -3.54263E-09 -3.61039E-09
  -3.67814E-09 -3.74591E-09 -3.81369E-09 -3.88148E-09 -3.94930E-09 -4.01710E-09 -4.08493E-09 -4.15277E-09 -4.22062E-09 -4.28849E-09
  -4.35636E-09 -4.42425E-09 -4.49216E-09 -4.56008E-09 -4.62801E-09 -4.69596E-09 -4.76391E-09 -4.83189E-09 -4.89989E-09 -4.96789E-09
  -5.03592E-09 -5.10396E-09 -5.17200E-09
 NY background values follow
     1.597E-08    1.591E-08    1.586E-08    1.581E-08    1.575E-08    1.570E-08    1.564E-08    1.559E-08    1.554E-08    1.548E-08
     1.543E-08    1.537E-08    1.532E-08    1.527E-08    1.521E-08    1.516E-08    1.510E-08    1.505E-08    1.499E-08    1.494E-08
     1.489E-08    1.483E-08    1.478E-08    1.472E-08    1.467E-08    1.461E-08    1.456E-08    1.450E-08    1.445E-08    1.439E-08
     1.434E-08    1.428E-08    1.423E-08    1.417E-08    1.412E-08    1.406E-08    1.401E-08    1.395E-08    1.390E-08    1.384E-08
     1.379E-08    1.373E-08    1.368E-08    1.362E-08    1.357E-08    1.351E-08    1.346E-08    1.340E-08    1.335E-08    1.329E-08
     1.324E-08    1.318E-08    1.313E-08    1.307E-08    1.302E-08    1.296E-08    1.290E-08    1.285E-08    1.279E-08    1.274E-08
     1.268E-08    1.263E-08    1.257E-08    1.251E-08    1.246E-08    1.240E-08    1.235E-08    1.229E-08    1.223E-08    1.218E-08
     1.212E-08    1.207E-08    1.201E-08    1.195E-08    1.190E-08    1.184E-08    1.178E-08    1.173E-08    1.167E-08    1.162E-08
     1.156E-08    1.150E-08    1.145E-08    1.139E-08    1.133E-08    1.128E-08    1.122E-08    1.116E-08    1.111E-08    1.105E-08
     1.099E-08    1.094E-08    1.088E-08    1.082E-08    1.077E-08    1.071E-08    1.065E-08    1.060E-08    1.054E-08    1.048E-08
     1.042E-08    1.037E-08    1.031E-08    1.025E-08    1.020E-08    1.014E-08    1.008E-08    1.002E-08    9.967E-09    9.910E-09
     9.852E-09    9.795E-09    9.738E-09    9.680E-09    9.623E-09    9.565E-09    9.507E-09    9.450E-09    9.392E-09    9.335E-09
     9.277E-09    9.219E-09    9.161E-09    9.104E-09    9.046E-09    8.988E-09    8.930E-09    8.872E-09    8.814E-09    8.756E-09
     8.698E-09    8.640E-09    8.582E-09    8.524E-09    8.466E-09    8.407E-09    8.349E-09    8.291E-09    8.233E-09    8.174E-09
     8.116E-09    8.057E-09    7.999E-09    7.941E-09    7.882E-09    7.824E-09    7.765E-09    7.706E-09    7.648E-09    7.589E-09
     7.530E-09    7.472E-09    7.413E-09    7.354E-09    7.295E-09    7.237E-09    7.178E-09    7.119E-09    7.060E-09    7.001E-09
     6.942E-09    6.883E-09    6.824E-09    6.765E-09    6.705E-09    6.646E-09    6.587E-09    6.528E-09    6.468E-09    6.409E-09
     6.350E-09    6.290E-09    6.231E-09    6.172E-09    6.112E-09    6.053E-09    5.993E-09    5.934E-09    5.874E-09    5.814E-09
     5.755E-09    5.695E-09    5.635E-09    5.575E-09    5.516E-09    5.456E-09    5.396E-09    5.336E-09    5.276E-09    5.216E-09
     5.156E-09    5.096E-09    5.036E-09    4.976E-09    4.916E-09    4.856E-09    4.795E-09    4.735E-09    4.675E-09    4.615E-09
     4.554E-09    4.494E-09    4.434E-09    4.373E-09    4.313E-09    4.252E-09    4.192E-09    4.131E-09    4.071E-09    4.010E-09
     3.949E-09    3.889E-09    3.828E-09    3.767E-09    3.706E-09    3.646E-09    3.585E-09    3.524E-09    3.463E-09    3.402E-09
     3.341E-09    3.280E-09    3.219E-09    3.158E-09    3.097E-09    3.036E-09    2.974E-09    2.913E-09    2.852E-09    2.791E-09
     2.729E-09    2.668E-09    2.607E-09    2.545E-09    2.484E-09    2.422E-09    2.361E-09    2.299E-09    2.238E-09    2.176E-09
     2.115E-09    2.053E-09    1.991E-09    1.929E-09    1.868E-09    1.806E-09    1.744E-09    1.682E-09    1.620E-09    1.558E-09
     1.496E-09    1.434E-09    1.372E-09    1.310E-09    1.248E-09    1.186E-09    1.124E-09    1.062E-09    9.995E-10    9.373E-10
     8.750E-10    8.127E-10    7.503E-10    6.879E-10    6.255E-10    5.630E-10    5.005E-10    4.380E-10    3.755E-10    3.129E-10
     2.503E-10    1.877E-10    1.250E-10    6.226E-11   -4.933E-13   -6.327E-11   -1.261E-10   -1.889E-10   -2.518E-10   -3.147E-10
    -3.777E-10   -4.406E-10   -5.036E-10   -5.667E-10   -6.297E-10   -6.929E-10   -7.560E-10   -8.192E-10   -8.824E-10   -9.456E-10
    -1.009E-09   -1.072E-09   -1.136E-09   -1.199E-09   -1.262E-09   -1.326E-09   -1.389E-09   -1.453E-09   -1.516E-09   -1.580E-09
    -1.643E-09   -1.707E-09   -1.771E-09   -1.834E-09   -1.898E-09   -1.962E-09   -2.026E-09   -2.089E-09   -2.153E-09   -2.217E-09
    -2.281E-09   -2.345E-09   -2.409E-09   -2.473E-09   -2.537E-09   -2.601E-09   -2.665E-09   -2.729E-09   -2.794E-09   -2.858E-09
    -2.922E-09   -2.986E-09   -3.051E-09   -3.115E-09   -3.179E-09   -3.244E-09   -3.308E-09   -3.373E-09   -3.437E-09   -3.502E-09
    -3.566E-09   -3.631E-09   -3.696E-09   -3.760E-09   -3.825E-09   -3.890E-09   -3.955E-09   -4.019E-09   -4.084E-09   -4.149E-09
    -4.214E-09   -4.279E-09   -4.344E-09   -4.409E-09   -4.474E-09   -4.539E-09   -4.604E-09   -4.669E-09   -4.734E-09   -4.800E-09
    -4.865E-09   -4.930E-09   -4.995E-09   -5.061E-09   -5.126E-09   -5.191E-09   -5.257E-09   -5.322E-09   -5.388E-09   -5.453E-09
    -5.519E-09   -5.585E-09   -5.650E-09
 Ala      Conc. = 7.21E-10
   1.56205E-08  1.56446E-08  1.56658E-08  1.56879E-08  1.57109E-08  1.57376E-08  1.57727E-08  1.57653E-08  1.57175E-08  1.57219E-08
   1.56975E-08  1.55957E-08  1.55270E-08  1.54680E-08  1.53815E-08  1.52960E-08  1.52151E-08  1.51380E-08  1.50641E-08  1.49926E-08
   1.49231E-08  1.48552E-08  1.47885E-08  1.47229E-08  1.46582E-08  1.45942E-08  1.45308E-08  1.44680E-08  1.44056E-08  1.43436E-08
   1.42819E-08  1.42205E-08  1.41592E-08  1.40983E-08  1.40374E-08  1.39767E-08  1.39161E-08  1.38556E-08  1.37952E-08  1.37347E-08
   1.36744E-08  1.36140E-08  1.35537E-08  1.34933E-08  1.34329E-08  1.33725E-08  1.33121E-08  1.32515E-08  1.31909E-08  1.31303E-08
   1.30695E-08  1.30087E-08  1.29477E-08  1.28866E-08  1.28254E-08  1.27640E-08  1.27024E-08  1.26408E-08  1.25788E-08  1.25167E-08
   1.24544E-08  1.23918E-08  1.23290E-08  1.22658E-08  1.22025E-08  1.21388E-08  1.20748E-08  1.20103E-08  1.19455E-08  1.18803E-08
   1.18146E-08  1.17484E-08  1.16817E-08  1.16143E-08  1.15463E-08  1.14776E-08  1.14081E-08  1.13378E-08  1.12665E-08  1.11941E-08
   1.11205E-08  1.10457E-08  1.09693E-08  1.08912E-08  1.08112E-08  1.07291E-08  1.06443E-08  1.05567E-08  1.04655E-08  1.03703E-08
   1.02701E-08  1.01639E-08  1.00503E-08  9.92748E-09  9.79267E-09  9.64204E-09  9.46983E-09  9.26687E-09  9.01867E-09  8.71647E-09
   8.62445E-09  8.70964E-09  8.72089E-09  8.84686E-09  9.16415E-09  9.62182E-09  1.01537E-08  1.07098E-08  1.12373E-08  1.16447E-08
   1.18267E-08  1.17883E-08  1.18594E-08  1.18461E-08  1.14741E-08  1.11115E-08  1.08371E-08  1.06178E-08  1.04338E-08  1.02743E-08
   1.01323E-08  1.00034E-08  9.88453E-09  9.77361E-09  9.66905E-09  9.56963E-09  9.47445E-09  9.38288E-09  9.29427E-09  9.20819E-09
   9.12428E-09  9.04220E-09  8.96174E-09  8.88265E-09  8.80474E-09  8.72781E-09  8.65184E-09  8.57658E-09  8.50198E-09  8.42787E-09
   8.35424E-09  8.28096E-09  8.20796E-09  8.13511E-09  8.06240E-09  7.98970E-09  7.91694E-09  7.84404E-09  7.77088E-09  7.69738E-09
   7.62341E-09  7.54885E-09  7.47351E-09  7.39724E-09  7.31978E-09  7.24088E-09  7.16018E-09  7.07721E-09  6.99140E-09  6.90191E-09
   6.80758E-09  6.70678E-09  6.59691E-09  6.47376E-09  6.32982E-09  6.15021E-09  5.91025E-09  5.79514E-09  5.85847E-09  6.02058E-09
   6.20483E-09  6.37696E-09  6.54337E-09  6.72742E-09  6.94497E-09  7.17531E-09  7.33734E-09  7.30518E-09  7.01938E-09  6.74733E-09
   6.55608E-09  6.40582E-09  6.27895E-09  6.16694E-09  6.06502E-09  5.97032E-09  5.88101E-09  5.79587E-09  5.71393E-09  5.63459E-09
   5.55741E-09  5.48194E-09  5.40795E-09  5.33517E-09  5.26349E-09  5.19270E-09  5.12267E-09  5.05337E-09  4.98468E-09  4.91649E-09
   4.84877E-09  4.78147E-09  4.71456E-09  4.64799E-09  4.58168E-09  4.51569E-09  4.44993E-09  4.38439E-09  4.31903E-09  4.25391E-09
   4.18890E-09  4.12407E-09  4.05938E-09  3.99482E-09  3.93034E-09  3.86601E-09  3.80177E-09  3.73759E-09  3.67353E-09  3.60953E-09
   3.54561E-09  3.48173E-09  3.41793E-09  3.35417E-09  3.29048E-09  3.22681E-09  3.16320E-09  3.09962E-09  3.03607E-09  2.97256E-09
   2.90907E-09  2.84561E-09  2.78217E-09  2.71875E-09  2.65535E-09  2.59196E-09  2.52859E-09  2.46523E-09  2.40188E-09  2.33854E-09
   2.27521E-09  2.21187E-09  2.14854E-09  2.08522E-09  2.02190E-09  1.95858E-09  1.89526E-09  1.83193E-09  1.76860E-09  1.70527E-09
   1.64192E-09  1.57859E-09  1.51521E-09  1.45187E-09  1.38851E-09  1.32513E-09  1.26174E-09  1.19834E-09  1.13493E-09  1.07152E-09
   1.00809E-09  9.44641E-10  8.81178E-10  8.17692E-10  7.54209E-10  6.90708E-10  6.27170E-10  5.63649E-10  5.00092E-10  4.36515E-10
   3.72926E-10  3.09331E-10  2.45698E-10  1.82067E-10  1.18396E-10  5.47204E-11 -8.98709E-12 -7.27075E-11 -1.36440E-10 -2.00198E-10
  -2.63989E-10 -3.27791E-10 -3.91622E-10 -4.55465E-10 -5.19333E-10 -5.83226E-10 -6.47152E-10 -7.11075E-10 -7.75031E-10 -8.39018E-10
  -9.03015E-10 -9.67041E-10 -1.03109E-09 -1.09517E-09 -1.15927E-09 -1.22339E-09 -1.28754E-09 -1.35171E-09 -1.41591E-09 -1.48013E-09
  -1.54438E-09 -1.60865E-09 -1.67295E-09 -1.73727E-09 -1.80162E-09 -1.86600E-09 -1.93040E-09 -1.99482E-09 -2.05927E-09 -2.12375E-09
  -2.18826E-09 -2.25279E-09 -2.31735E-09 -2.38193E-09 -2.44654E-09 -2.51118E-09 -2.57585E-09 -2.64054E-09 -2.70526E-09 -2.77001E-09
  -2.83478E-09 -2.89959E-09 -2.96442E-09 -3.02927E-09 -3.09416E-09 -3.15908E-09 -3.22401E-09 -3.28898E-09 -3.35398E-09 -3.41900E-09
  -3.48406E-09 -3.54913E-09 -3.61425E-09 -3.67939E-09 -3.74455E-09 -3.80975E-09 -3.87497E-09 -3.94022E-09 -4.00550E-09 -4.07082E-09
  -4.13615E-09 -4.20152E-09 -4.26692E-09 -4.33234E-09 -4.39781E-09 -4.46329E-09 -4.52880E-09 -4.59434E-09 -4.65992E-09 -4.72552E-09
  -4.79114E-09 -4.85681E-09 -4.92250E-09 -4.98822E-09 -5.05397E-09 -5.11975E-09 -5.18555E-09 -5.25139E-09 -5.31727E-09 -5.38316E-09
  -5.44910E-09 -5.51505E-09 -5.58104E-09
 Asp      Conc. = 1.38E-10
   1.60204E-08  1.59802E-08  1.59321E-08  1.58841E-08  1.58322E-08  1.57744E-08  1.57141E-08  1.56452E-08  1.55791E-08  1.55155E-08
   1.54536E-08  1.53930E-08  1.53332E-08  1.52741E-08  1.52156E-08  1.51575E-08  1.50995E-08  1.50418E-08  1.49841E-08  1.49266E-08
   1.48691E-08  1.48116E-08  1.47541E-08  1.46965E-08  1.46388E-08  1.45810E-08  1.45230E-08  1.44649E-08  1.44066E-08  1.43479E-08
   1.42889E-08  1.42295E-08  1.41695E-08  1.41089E-08  1.40475E-08  1.39853E-08  1.39244E-08  1.38666E-08  1.38132E-08  1.37617E-08
   1.37079E-08  1.36489E-08  1.35835E-08  1.35227E-08  1.34631E-08  1.34231E-08  1.33940E-08  1.33584E-08  1.33155E-08  1.32789E-08
   1.32541E-08  1.32385E-08  1.32272E-08  1.32065E-08  1.31613E-08  1.31010E-08  1.30257E-08  1.29690E-08  1.29194E-08  1.28613E-08
   1.27958E-08  1.27335E-08  1.26713E-08  1.26101E-08  1.25554E-08  1.25012E-08  1.24397E-08  1.23772E-08  1.23154E-08  1.22543E-08
   1.21936E-08  1.21335E-08  1.20738E-08  1.20144E-08  1.19552E-08  1.18963E-08  1.18375E-08  1.17790E-08  1.17205E-08  1.16622E-08
   1.16039E-08  1.15458E-08  1.14877E-08  1.14296E-08  1.13717E-08  1.13137E-08  1.12558E-08  1.11980E-08  1.11401E-08  1.10823E-08
   1.10245E-08  1.09667E-08  1.09089E-08  1.08512E-08  1.07934E-08  1.07356E-08  1.06778E-08  1.06200E-08  1.05622E-08  1.05044E-08
   1.04466E-08  1.03887E-08  1.03309E-08  1.02730E-08  1.02151E-08  1.01572E-08  1.00993E-08  1.00413E-08  9.98338E-09  9.92534E-09
   9.86736E-09  9.80931E-09  9.75122E-09  9.69311E-09  9.63497E-09  9.57680E-09  9.51862E-09  9.46040E-09  9.40212E-09  9.34386E-09
   9.28551E-09  9.22716E-09  9.16875E-09  9.11032E-09  9.05186E-09  8.99334E-09  8.93474E-09  8.87617E-09  8.81752E-09  8.75882E-09
   8.70009E-09  8.64127E-09  8.58244E-09  8.52355E-09  8.46461E-09  8.40556E-09  8.34653E-09  8.28739E-09  8.22820E-09  8.16890E-09
   8.10956E-09  8.05013E-09  7.99063E-09  7.93101E-09  7.87131E-09  7.81150E-09  7.75157E-09  7.69152E-09  7.63132E-09  7.57098E-09
   7.51046E-09  7.44975E-09  7.38881E-09  7.32763E-09  7.26614E-09  7.20431E-09  7.14208E-09  7.07935E-09  7.01603E-09  6.95195E-09
   6.88687E-09  6.82053E-09  6.75239E-09  6.68168E-09  6.60697E-09  6.52543E-09  6.43232E-09  6.36243E-09  6.32670E-09  6.31005E-09
   6.29773E-09  6.28310E-09  6.26730E-09  6.25476E-09  6.24858E-09  6.24490E-09  6.22837E-09  6.17498E-09  6.07306E-09  5.97287E-09
   5.88827E-09  5.81153E-09  5.73922E-09  5.66975E-09  5.60218E-09  5.53595E-09  5.47073E-09  5.40630E-09  5.34242E-09  5.27900E-09
   5.21599E-09  5.15325E-09  5.09076E-09  5.02846E-09  4.96637E-09  4.90440E-09  4.84251E-09  4.78078E-09  4.71913E-09  4.65752E-09
   4.59598E-09  4.53448E-09  4.47304E-09  4.41163E-09  4.35022E-09  4.28887E-09  4.22753E-09  4.16619E-09  4.10484E-09  4.04355E-09
   3.98220E-09  3.92088E-09  3.85957E-09  3.79824E-09  3.73687E-09  3.67554E-09  3.61419E-09  3.55279E-09  3.49142E-09  3.43002E-09
   3.36861E-09  3.30718E-09  3.24573E-09  3.18426E-09  3.12278E-09  3.06127E-09  2.99974E-09  2.93819E-09  2.87662E-09  2.81503E-09
