 LCModel (Version 6.3-1R) Copyright: S.W. Provencher.          Ref.: Magn. Reson. Med. 30:672-679 (1993).                
 onepulse 28x20_ftSpec_smooth_lcm
 26 lines in following concentration table = NCONC+1
    Conc.  %SD   /Cr    Metabolite                                         
 7.36E-10  80%   0.000 Ala                                                 
 9.02E-10 173%   0.000 Asp                                                 
    0.000 999%   0.000 Cr                                                  
 2.97E-09  35%   0.000 GABA                                                
 4.52E-10 296%   0.000 Glc                                                 
    0.000 999%   0.000 Gln                                                 
    0.000 999%   0.000 Glu                                                 
    0.000 999%   0.000 Glyc                                                
    0.000 999%   0.000 GPC                                                 
    0.000 999%   0.000 GSH                                                 
 1.04E-09  71%   0.000 Ins                                                 
 2.09E-10 282%   0.000 Lac                                                 
    0.000 999%   0.000 NAAG                                                
 5.29E-10  78%   0.000 NAA                                                 
 2.45E-11 999%   0.000 PCh                                                 
    0.000 999%   0.000 PCr                                                 
 2.45E-10 999%   0.000 PE                                                  
 2.40E-10 143%   0.000 Scyllo                                              
    0.000 999%   0.000 Ser                                                 
    0.000 999%   0.000 Tau                                                 
 2.45E-11 999%   0.000 GPC+PCh                                             
 5.29E-10  78%   0.000 NAA+NAAG                                            
 1.04E-09  71%   0.000 Ins+Glyc                                            
    0.000 999%   0.000 Cr+PCr                                              
    0.000 999%   0.000 Glu+Gln                                             
   6 lines in following misc. output table
  FWHM = 0.089 ppm    S/N =   1                                            
  Data shift = 0.313 ppm                                                   
  Ph:  75 deg      31.5 deg/ppm                                            
  alphaB,S = 1.3E+00,   4.0E+01                                            
    7 spline knots.   Ns = 5(1)                                            
  (10) 2 infls.   ( 5) 1 extrs.                                            
  363 points on ppm-axis = NY
      4.250000     4.238821     4.227641     4.216462     4.205282     4.194103     4.182923     4.171744     4.160564     4.149385
      4.138206     4.127026     4.115847     4.104667     4.093488     4.082308     4.071129     4.059949     4.048770     4.037591
      4.026411     4.015232     4.004052     3.992873     3.981693     3.970514     3.959334     3.948155     3.936975     3.925796
      3.914617     3.903437     3.892258     3.881078     3.869899     3.858719     3.847540     3.836360     3.825181     3.814002
      3.802822     3.791643     3.780463     3.769284     3.758104     3.746925     3.735745     3.724566     3.713387     3.702207
      3.691028     3.679848     3.668669     3.657489     3.646310     3.635130     3.623951     3.612772     3.601592     3.590413
      3.579233     3.568054     3.556874     3.545695     3.534515     3.523336     3.512156     3.500977     3.489798     3.478618
      3.467439     3.456259     3.445080     3.433900     3.422721     3.411541     3.400362     3.389183     3.378003     3.366824
      3.355644     3.344465     3.333285     3.322106     3.310926     3.299747     3.288568     3.277388     3.266209     3.255029
      3.243850     3.232670     3.221491     3.210311     3.199132     3.187953     3.176773     3.165594     3.154414     3.143235
      3.132055     3.120876     3.109696     3.098517     3.087337     3.076158     3.064979     3.053799     3.042620     3.031440
      3.020261     3.009081     2.997902     2.986722     2.975543     2.964364     2.953184     2.942005     2.930825     2.919646
      2.908466     2.897287     2.886107     2.874928     2.863749     2.852569     2.841390     2.830210     2.819031     2.807851
      2.796672     2.785492     2.774313     2.763134     2.751954     2.740775     2.729595     2.718416     2.707236     2.696057
      2.684877     2.673698     2.662519     2.651339     2.640160     2.628980     2.617801     2.606621     2.595442     2.584262
      2.573083     2.561903     2.550724     2.539545     2.528365     2.517186     2.506006     2.494827     2.483647     2.472468
      2.461288     2.450109     2.438930     2.427750     2.416571     2.405391     2.394212     2.383032     2.371853     2.360673
      2.349494     2.338315     2.327135     2.315956     2.304776     2.293597     2.282417     2.271238     2.260058     2.248879
      2.237700     2.226520     2.215341     2.204161     2.192982     2.181802     2.170623     2.159443     2.148264     2.137084
      2.125905     2.114726     2.103546     2.092367     2.081187     2.070008     2.058828     2.047649     2.036469     2.025290
      2.014111     2.002931     1.991752     1.980572     1.969393     1.958213     1.947034     1.935854     1.924675     1.913496
      1.902316     1.891137     1.879957     1.868778     1.857598     1.846419     1.835239     1.824060     1.812881     1.801701
      1.790522     1.779342     1.768163     1.756983     1.745804     1.734624     1.723445     1.712265     1.701086     1.689907
      1.678727     1.667548     1.656368     1.645189     1.634009     1.622830     1.611650     1.600471     1.589292     1.578112
      1.566933     1.555753     1.544574     1.533394     1.522215     1.511035     1.499856     1.488677     1.477497     1.466318
      1.455138     1.443959     1.432779     1.421600     1.410420     1.399241     1.388062     1.376882     1.365703     1.354523
      1.343344     1.332164     1.320985     1.309805     1.298626     1.287446     1.276267     1.265088     1.253908     1.242729
      1.231549     1.220370     1.209190     1.198011     1.186831     1.175652     1.164473     1.153293     1.142114     1.130934
      1.119755     1.108575     1.097396     1.086216     1.075037     1.063858     1.052678     1.041499     1.030319     1.019140
      1.007960     0.996781     0.985601     0.974422     0.963243     0.952063     0.940884     0.929704     0.918525     0.907345
      0.896166     0.884986     0.873807     0.862628     0.851448     0.840269     0.829089     0.817910     0.806730     0.795551
      0.784371     0.773192     0.762012     0.750833     0.739654     0.728474     0.717295     0.706115     0.694936     0.683756
      0.672577     0.661397     0.650218     0.639039     0.627859     0.616680     0.605500     0.594321     0.583141     0.571962
      0.560782     0.549603     0.538424     0.527244     0.516065     0.504885     0.493706     0.482526     0.471347     0.460167
      0.448988     0.437809     0.426629     0.415450     0.404270     0.393091     0.381911     0.370732     0.359552     0.348373
      0.337193     0.326014     0.314835     0.303655     0.292476     0.281296     0.270117     0.258937     0.247758     0.236578
      0.225399     0.214220     0.203040
 NY phased data points follow
   9.56860E-09  1.05293E-08  1.15338E-08  1.24675E-08  1.38700E-08  1.56589E-08  1.61343E-08  1.60928E-08  1.62526E-08  1.64332E-08
   1.59735E-08  1.61455E-08  1.54104E-08  1.48037E-08  1.49551E-08  1.47809E-08  1.43127E-08  1.49442E-08  1.50590E-08  1.51714E-08
   1.55831E-08  1.54813E-08  1.50767E-08  1.50375E-08  1.52928E-08  1.45621E-08  1.48861E-08  1.45798E-08  1.39055E-08  1.47701E-08
   1.47132E-08  1.49748E-08  1.41332E-08  1.47563E-08  1.49545E-08  1.50762E-08  1.59457E-08  1.62001E-08  1.69137E-08  1.62887E-08
   1.59724E-08  1.59984E-08  1.44421E-08  1.46116E-08  1.41143E-08  1.33869E-08  1.33208E-08  1.31582E-08  1.28541E-08  1.22303E-08
   1.18292E-08  1.13836E-08  1.12173E-08  1.07723E-08  1.08417E-08  1.09033E-08  1.04656E-08  1.06029E-08  9.58821E-09  1.01242E-08
   9.69017E-09  9.48210E-09  9.46467E-09  9.57986E-09  9.99112E-09  1.04022E-08  1.12838E-08  1.24572E-08  1.35880E-08  1.39046E-08
   1.43544E-08  1.34889E-08  1.26243E-08  1.22750E-08  1.16049E-08  1.09816E-08  1.06095E-08  1.00355E-08  9.57537E-09  9.87633E-09
   9.23023E-09  9.36224E-09  1.16216E-08  1.32232E-08  1.51168E-08  1.51407E-08  1.62587E-08  1.59127E-08  1.65723E-08  1.48862E-08
   1.51565E-08  1.45111E-08  1.41744E-08  1.39553E-08  1.37048E-08  1.30948E-08  1.28222E-08  1.20800E-08  1.14920E-08  1.13427E-08
   1.06218E-08  1.01535E-08  1.04428E-08  9.60456E-09  9.83690E-09  9.25082E-09  9.37327E-09  9.38606E-09  9.26601E-09  8.93004E-09
   8.77702E-09  8.45555E-09  7.89014E-09  7.63610E-09  6.70047E-09  6.45419E-09  6.77126E-09  6.09557E-09  6.76327E-09  6.25928E-09
   6.38568E-09  5.96406E-09  6.54132E-09  6.25449E-09  6.12123E-09  5.87745E-09  5.63822E-09  5.18503E-09  5.06889E-09  4.36499E-09
   4.23238E-09  4.41542E-09  4.70925E-09  4.56007E-09  4.44088E-09  4.67601E-09  4.47168E-09  4.90786E-09  3.76351E-09  4.58846E-09
   4.13849E-09  4.51278E-09  4.65040E-09  5.03808E-09  5.53037E-09  5.79564E-09  5.39305E-09  6.40218E-09  5.67264E-09  7.11673E-09
   7.13475E-09  7.10721E-09  6.88649E-09  6.84400E-09  7.48015E-09  7.71320E-09  7.13336E-09  7.60318E-09  7.51436E-09  7.21264E-09
   7.56472E-09  8.12939E-09  7.56428E-09  8.43468E-09  7.43662E-09  8.63108E-09  8.09235E-09  8.62681E-09  8.22061E-09  9.68560E-09
   9.55362E-09  1.12187E-08  1.17182E-08  1.35230E-08  1.46443E-08  1.50756E-08  1.52619E-08  1.46324E-08  1.32412E-08  1.16956E-08
   9.82677E-09  8.91102E-09  6.93773E-09  6.43964E-09  4.54630E-09  3.78381E-09  2.64578E-09  2.06287E-09 -1.76070E-10 -2.61460E-10
  -1.54901E-09 -2.40520E-09 -5.18448E-09 -5.40904E-09 -8.07907E-09 -9.30250E-09 -1.11369E-08 -1.24487E-08 -1.59215E-08 -1.70454E-08
  -2.00802E-08 -2.20462E-08 -2.45243E-08 -2.57146E-08 -2.79885E-08 -2.88670E-08 -3.01958E-08 -2.93188E-08 -2.96420E-08 -2.76953E-08
  -2.66494E-08 -2.39078E-08 -2.20007E-08 -1.78961E-08 -1.50046E-08 -1.18263E-08 -9.21017E-09 -5.42674E-09 -3.19050E-09 -2.51422E-10
   9.19858E-10  2.27721E-09  2.37293E-09  3.42949E-09  1.95441E-09  2.41097E-09  1.43495E-09  2.02689E-09  3.45786E-10  1.16887E-09
  -1.17571E-10  6.66218E-10  2.66145E-10  7.27302E-10  2.61670E-11  1.40849E-09  6.57268E-10  1.09914E-09 -1.59453E-10  8.59286E-10
  -2.63777E-10  9.42008E-10  7.62300E-11  8.07622E-10  1.68647E-10  1.02981E-09  4.85521E-10  1.28149E-09  8.36201E-10  9.34493E-10
   1.38317E-10  1.15808E-09 -2.18493E-11  9.60674E-10  1.57288E-10  1.62894E-09  5.27723E-10  1.44320E-09  8.73829E-10  1.20047E-09
   1.54487E-09  1.77937E-09  8.07573E-10  1.17198E-09  3.33489E-10  6.47606E-10  7.41250E-12  8.90217E-10  9.44516E-11  8.94990E-10
   6.72619E-10  1.70091E-09  9.23188E-10  1.87496E-09  1.26133E-09  1.39755E-09  1.62651E-09  2.76145E-09  1.14617E-09  1.79439E-09
   1.61879E-09  2.56040E-09  9.75783E-10  1.64927E-09  1.41670E-09  1.56603E-09  4.61734E-10  1.66541E-09  6.95819E-10  1.78364E-09
   6.94548E-10  9.86106E-10  1.17251E-09  1.51576E-09  5.94969E-10  1.21550E-09  1.53095E-09  1.37276E-09  1.57111E-09  1.16956E-09
   1.16445E-09  1.13660E-09  1.15894E-09  1.34626E-09  9.08383E-10  1.52126E-09  8.32263E-10  1.96935E-09  7.72438E-10  1.56551E-09
   9.91230E-10  1.65360E-09  1.16034E-09  2.10729E-09  9.77736E-10  1.90893E-09  1.10372E-09  1.90879E-09  1.45670E-09  2.27602E-09
   1.23934E-09  2.34464E-09  1.42650E-09  2.13922E-09  1.34017E-09  2.17858E-09  1.72044E-09  2.23603E-09  1.90319E-09  2.29187E-09
   2.35709E-09  2.60626E-09  2.30061E-09  2.72334E-09  1.87400E-09  3.02155E-09  1.87102E-09  3.15579E-09  2.05545E-09  3.21711E-09
   2.27232E-09  3.38970E-09  2.02206E-09  3.38388E-09  2.41002E-09  2.90163E-09  2.53184E-09  3.17833E-09  2.50875E-09  3.21409E-09
   2.95076E-09  3.58169E-09  3.12415E-09  3.78875E-09  3.14442E-09  3.04154E-09  3.00229E-09  3.63357E-09  3.49028E-09  3.52834E-09
   2.83407E-09  3.89004E-09  2.74091E-09
 NY points of the fit to the data follow
   1.31369E-08  1.31749E-08  1.32367E-08  1.32569E-08  1.33391E-08  1.34615E-08  1.35328E-08  1.36302E-08  1.39797E-08  1.45386E-08
   1.50458E-08  1.54856E-08  1.59237E-08  1.63008E-08  1.64531E-08  1.63768E-08  1.61851E-08  1.59063E-08  1.54580E-08  1.50063E-08
   1.49081E-08  1.50523E-08  1.51633E-08  1.52494E-08  1.53162E-08  1.53202E-08  1.51604E-08  1.47401E-08  1.42353E-08  1.41644E-08
   1.44427E-08  1.46033E-08  1.50008E-08  1.56144E-08  1.60632E-08  1.65051E-08  1.69580E-08  1.72670E-08  1.72984E-08  1.69960E-08
   1.64624E-08  1.58604E-08  1.48930E-08  1.37437E-08  1.31764E-08  1.27837E-08  1.21675E-08  1.17869E-08  1.17152E-08  1.17783E-08
   1.18990E-08  1.19553E-08  1.18894E-08  1.16731E-08  1.13906E-08  1.11804E-08  1.11134E-08  1.11530E-08  1.11182E-08  1.10288E-08
   1.10588E-08  1.12742E-08  1.18089E-08  1.23820E-08  1.30099E-08  1.38763E-08  1.46279E-08  1.51675E-08  1.55988E-08  1.58148E-08
   1.57138E-08  1.52106E-08  1.43847E-08  1.34885E-08  1.26553E-08  1.15167E-08  1.06941E-08  1.08897E-08  1.11135E-08  1.12729E-08
   1.16936E-08  1.21174E-08  1.25230E-08  1.30987E-08  1.35299E-08  1.35601E-08  1.32949E-08  1.27492E-08  1.21855E-08  1.21433E-08
   1.21469E-08  1.21298E-08  1.20592E-08  1.16237E-08  1.10655E-08  1.07691E-08  1.02638E-08  9.61937E-09  9.28234E-09  9.08683E-09
   9.07276E-09  9.13918E-09  9.22786E-09  9.49849E-09  9.84363E-09  1.01595E-08  1.03871E-08  1.04891E-08  1.03629E-08  1.00093E-08
   9.52379E-09  9.06433E-09  8.73928E-09  8.14599E-09  7.48705E-09  7.11482E-09  6.78300E-09  6.44215E-09  6.12310E-09  5.84469E-09
   5.52724E-09  5.25668E-09  5.07206E-09  4.91528E-09  4.77106E-09  4.63384E-09  4.50098E-09  4.37109E-09  4.24335E-09  4.11724E-09
   3.99236E-09  3.86853E-09  3.74556E-09  3.62335E-09  3.50184E-09  3.38098E-09  3.26071E-09  3.14105E-09  3.02200E-09  2.90356E-09
   2.78577E-09  2.66866E-09  2.55227E-09  2.43663E-09  2.32178E-09  2.20781E-09  2.09480E-09  1.98283E-09  1.87200E-09  1.76239E-09
   1.65419E-09  1.54752E-09  1.44259E-09  1.33966E-09  1.23905E-09  1.14114E-09  1.04649E-09  9.55849E-10  8.70268E-10  7.91292E-10
   7.21280E-10  6.64116E-10  6.26547E-10  6.21562E-10  6.78246E-10  8.78261E-10  1.56585E-09  3.86509E-09  6.65973E-09  9.17541E-09
   1.12452E-08  1.30092E-08  1.45261E-08  1.55753E-08  1.56358E-08  1.40877E-08  1.06139E-08  5.76659E-09  1.45327E-09  8.57965E-11
  -4.52050E-10 -7.53689E-10 -9.57382E-10 -1.11089E-09 -1.23498E-09 -1.34011E-09 -1.43209E-09 -1.51441E-09 -1.58927E-09 -1.65814E-09
  -1.72199E-09 -1.78158E-09 -1.83742E-09 -1.88990E-09 -1.93930E-09 -1.98586E-09 -2.02978E-09 -2.07120E-09 -2.11023E-09 -2.14700E-09
  -2.18158E-09 -2.21406E-09 -2.24446E-09 -2.27288E-09 -2.29937E-09 -2.32395E-09 -2.34668E-09 -2.36759E-09 -2.38674E-09 -2.40412E-09
  -2.41978E-09 -2.43376E-09 -2.44608E-09 -2.45677E-09 -2.46586E-09 -2.47335E-09 -2.47929E-09 -2.48370E-09 -2.48659E-09 -2.48799E-09
  -2.48792E-09 -2.48640E-09 -2.48347E-09 -2.47911E-09 -2.47338E-09 -2.46627E-09 -2.45786E-09 -2.44806E-09 -2.43700E-09 -2.42464E-09
  -2.41104E-09 -2.39617E-09 -2.38009E-09 -2.36279E-09 -2.34429E-09 -2.32465E-09 -2.30385E-09 -2.28192E-09 -2.25888E-09 -2.23473E-09
  -2.20953E-09 -2.18325E-09 -2.15596E-09 -2.12764E-09 -2.09833E-09 -2.06804E-09 -2.03677E-09 -2.00456E-09 -1.97144E-09 -1.93739E-09
  -1.90247E-09 -1.86667E-09 -1.83001E-09 -1.79256E-09 -1.75425E-09 -1.71517E-09 -1.67530E-09 -1.63467E-09 -1.59330E-09 -1.55123E-09
  -1.50842E-09 -1.46495E-09 -1.42081E-09 -1.37598E-09 -1.33056E-09 -1.28452E-09 -1.23790E-09 -1.19069E-09 -1.14294E-09 -1.09458E-09
  -1.04580E-09 -9.96433E-10 -9.46624E-10 -8.96333E-10 -8.45582E-10 -7.94387E-10 -7.42749E-10 -6.90694E-10 -6.38220E-10 -5.85340E-10
  -5.32071E-10 -4.78422E-10 -4.24401E-10 -3.70025E-10 -3.15298E-10 -2.60235E-10 -2.04847E-10 -1.49151E-10 -9.31438E-11 -3.68491E-11
   1.97272E-11  7.65710E-11  1.33672E-10  1.91023E-10  2.48609E-10  3.06423E-10  3.64443E-10  4.22666E-10  4.81088E-10  5.39680E-10
   5.98445E-10  6.57375E-10  7.16443E-10  7.75651E-10  8.34978E-10  8.94424E-10  9.53967E-10  1.01361E-09  1.07333E-09  1.13311E-09
   1.19295E-09  1.25284E-09  1.31277E-09  1.37272E-09  1.43268E-09  1.49264E-09  1.55259E-09  1.61253E-09  1.67244E-09  1.73229E-09
   1.79209E-09  1.85184E-09  1.91150E-09  1.97109E-09  2.03057E-09  2.08994E-09  2.14919E-09  2.20831E-09  2.26728E-09  2.32610E-09
   2.38477E-09  2.44325E-09  2.50154E-09  2.55964E-09  2.61753E-09  2.67519E-09  2.73263E-09  2.78982E-09  2.84676E-09  2.90343E-09
   2.95983E-09  3.01594E-09  3.07175E-09  3.12725E-09  3.18244E-09  3.23729E-09  3.29179E-09  3.34594E-09  3.39973E-09  3.45315E-09
   3.50618E-09  3.55879E-09  3.61101E-09  3.66281E-09  3.71417E-09  3.76509E-09  3.81556E-09  3.86556E-09  3.91508E-09  3.96413E-09
   4.01266E-09  4.06070E-09  4.10821E-09
 NY background values follow
     8.931E-09    8.917E-09    8.903E-09    8.890E-09    8.877E-09    8.866E-09    8.855E-09    8.844E-09    8.835E-09    8.826E-09
     8.817E-09    8.809E-09    8.802E-09    8.795E-09    8.789E-09    8.783E-09    8.777E-09    8.772E-09    8.767E-09    8.762E-09
     8.758E-09    8.754E-09    8.750E-09    8.746E-09    8.742E-09    8.739E-09    8.735E-09    8.732E-09    8.728E-09    8.725E-09
     8.721E-09    8.717E-09    8.713E-09    8.709E-09    8.705E-09    8.701E-09    8.696E-09    8.691E-09    8.686E-09    8.680E-09
     8.674E-09    8.668E-09    8.661E-09    8.653E-09    8.645E-09    8.637E-09    8.628E-09    8.618E-09    8.607E-09    8.596E-09
     8.585E-09    8.572E-09    8.559E-09    8.545E-09    8.530E-09    8.514E-09    8.497E-09    8.479E-09    8.461E-09    8.441E-09
     8.420E-09    8.398E-09    8.376E-09    8.352E-09    8.326E-09    8.300E-09    8.272E-09    8.243E-09    8.213E-09    8.182E-09
     8.149E-09    8.114E-09    8.079E-09    8.041E-09    8.003E-09    7.962E-09    7.921E-09    7.877E-09    7.832E-09    7.786E-09
     7.737E-09    7.687E-09    7.635E-09    7.582E-09    7.526E-09    7.469E-09    7.410E-09    7.349E-09    7.286E-09    7.221E-09
     7.154E-09    7.085E-09    7.013E-09    6.940E-09    6.865E-09    6.788E-09    6.710E-09    6.629E-09    6.547E-09    6.463E-09
     6.377E-09    6.289E-09    6.200E-09    6.110E-09    6.018E-09    5.925E-09    5.830E-09    5.734E-09    5.636E-09    5.537E-09
     5.437E-09    5.336E-09    5.234E-09    5.131E-09    5.027E-09    4.921E-09    4.815E-09    4.708E-09    4.600E-09    4.491E-09
     4.382E-09    4.272E-09    4.161E-09    4.049E-09    3.937E-09    3.825E-09    3.712E-09    3.598E-09    3.485E-09    3.371E-09
     3.256E-09    3.141E-09    3.027E-09    2.912E-09    2.796E-09    2.681E-09    2.566E-09    2.451E-09    2.336E-09    2.221E-09
     2.106E-09    1.992E-09    1.878E-09    1.764E-09    1.650E-09    1.537E-09    1.424E-09    1.312E-09    1.200E-09    1.089E-09
     9.786E-10    8.689E-10    7.598E-10    6.515E-10    5.441E-10    4.375E-10    3.318E-10    2.271E-10    1.234E-10    2.071E-11
    -8.086E-11   -1.813E-10   -2.805E-10   -3.785E-10   -4.752E-10   -5.706E-10   -6.646E-10   -7.572E-10   -8.484E-10   -9.380E-10
    -1.026E-09   -1.112E-09   -1.197E-09   -1.280E-09   -1.362E-09   -1.441E-09   -1.519E-09   -1.595E-09   -1.669E-09   -1.741E-09
    -1.811E-09   -1.879E-09   -1.944E-09   -2.008E-09   -2.070E-09   -2.129E-09   -2.187E-09   -2.242E-09   -2.296E-09   -2.347E-09
    -2.397E-09   -2.444E-09   -2.490E-09   -2.534E-09   -2.576E-09   -2.615E-09   -2.654E-09   -2.690E-09   -2.724E-09   -2.757E-09
    -2.788E-09   -2.817E-09   -2.844E-09   -2.870E-09   -2.894E-09   -2.916E-09   -2.936E-09   -2.955E-09   -2.973E-09   -2.988E-09
    -3.002E-09   -3.015E-09   -3.025E-09   -3.035E-09   -3.042E-09   -3.049E-09   -3.053E-09   -3.057E-09   -3.058E-09   -3.059E-09
    -3.058E-09   -3.055E-09   -3.051E-09   -3.046E-09   -3.040E-09   -3.032E-09   -3.023E-09   -3.012E-09   -3.000E-09   -2.987E-09
    -2.973E-09   -2.957E-09   -2.941E-09   -2.923E-09   -2.904E-09   -2.883E-09   -2.862E-09   -2.840E-09   -2.816E-09   -2.791E-09
    -2.766E-09   -2.739E-09   -2.711E-09   -2.682E-09   -2.652E-09   -2.622E-09   -2.590E-09   -2.557E-09   -2.524E-09   -2.489E-09
    -2.454E-09   -2.418E-09   -2.381E-09   -2.343E-09   -2.304E-09   -2.265E-09   -2.224E-09   -2.183E-09   -2.142E-09   -2.099E-09
    -2.056E-09   -2.012E-09   -1.968E-09   -1.922E-09   -1.877E-09   -1.830E-09   -1.783E-09   -1.736E-09   -1.688E-09   -1.639E-09
    -1.590E-09   -1.540E-09   -1.490E-09   -1.439E-09   -1.388E-09   -1.337E-09   -1.285E-09   -1.233E-09   -1.180E-09   -1.127E-09
    -1.073E-09   -1.019E-09   -9.648E-10   -9.101E-10   -8.551E-10   -7.997E-10   -7.440E-10   -6.881E-10   -6.318E-10   -5.752E-10
    -5.183E-10   -4.612E-10   -4.038E-10   -3.462E-10   -2.883E-10   -2.302E-10   -1.719E-10   -1.134E-10   -5.475E-11    4.110E-12
     6.315E-11    1.223E-10    1.817E-10    2.412E-10    3.008E-10    3.605E-10    4.203E-10    4.802E-10    5.402E-10    6.002E-10
     6.603E-10    7.205E-10    7.807E-10    8.409E-10    9.011E-10    9.613E-10    1.022E-09    1.082E-09    1.142E-09    1.202E-09
     1.262E-09    1.322E-09    1.382E-09    1.442E-09    1.502E-09    1.561E-09    1.621E-09    1.680E-09    1.739E-09    1.799E-09
     1.857E-09    1.916E-09    1.975E-09    2.033E-09    2.091E-09    2.149E-09    2.207E-09    2.264E-09    2.322E-09    2.379E-09
     2.435E-09    2.492E-09    2.548E-09    2.603E-09    2.659E-09    2.714E-09    2.769E-09    2.823E-09    2.877E-09    2.931E-09
     2.984E-09    3.037E-09    3.090E-09    3.142E-09    3.193E-09    3.245E-09    3.295E-09    3.346E-09    3.395E-09    3.445E-09
     3.494E-09    3.542E-09    3.590E-09
 Ala      Conc. = 7.36E-10
   9.43506E-09  9.48198E-09  9.51070E-09  9.52661E-09  9.52876E-09  9.51642E-09  9.47881E-09  9.40496E-09  9.34524E-09  9.29762E-09
   9.19801E-09  9.11140E-09  9.06767E-09  9.01199E-09  8.95954E-09  8.92572E-09  8.90164E-09  8.88322E-09  8.86848E-09  8.85625E-09
   8.84587E-09  8.83687E-09  8.82893E-09  8.82180E-09  8.81531E-09  8.80934E-09  8.80376E-09  8.79850E-09  8.79345E-09  8.78856E-09
   8.78377E-09  8.77901E-09  8.77424E-09  8.76940E-09  8.76445E-09  8.75936E-09  8.75407E-09  8.74855E-09  8.74274E-09  8.73664E-09
   8.73019E-09  8.72333E-09  8.71608E-09  8.70837E-09  8.70016E-09  8.69142E-09  8.68213E-09  8.67225E-09  8.66174E-09  8.65055E-09
   8.63870E-09  8.62611E-09  8.61274E-09  8.59863E-09  8.58366E-09  8.56784E-09  8.55112E-09  8.53350E-09  8.51491E-09  8.49532E-09
   8.47473E-09  8.45309E-09  8.43038E-09  8.40656E-09  8.38158E-09  8.35545E-09  8.32812E-09  8.29954E-09  8.26971E-09  8.23859E-09
   8.20617E-09  8.17241E-09  8.13725E-09  8.10073E-09  8.06277E-09  8.02339E-09  7.98253E-09  7.94020E-09  7.89635E-09  7.85100E-09
   7.80413E-09  7.75573E-09  7.70584E-09  7.65441E-09  7.60150E-09  7.54714E-09  7.49134E-09  7.43422E-09  7.37593E-09  7.31656E-09
   7.25636E-09  7.19563E-09  7.13501E-09  7.07527E-09  7.01772E-09  6.96445E-09  6.91919E-09  6.88937E-09  6.89287E-09  6.98765E-09
   7.28561E-09  7.56977E-09  7.81001E-09  8.18987E-09  8.61322E-09  8.97890E-09  9.21314E-09  9.25921E-09  9.07073E-09  8.63780E-09
   8.03522E-09  7.45194E-09  7.02065E-09  6.35560E-09  5.67504E-09  5.34667E-09  5.13052E-09  4.95834E-09  4.80772E-09  4.66909E-09
   4.53768E-09  4.41085E-09  4.28702E-09  4.16522E-09  4.04481E-09  3.92536E-09  3.80658E-09  3.68829E-09  3.57034E-09  3.45265E-09
   3.33514E-09  3.21780E-09  3.10059E-09  2.98352E-09  2.86659E-09  2.74982E-09  2.63320E-09  2.51679E-09  2.40060E-09  2.28466E-09
   2.16901E-09  2.05368E-09  1.93871E-09  1.82415E-09  1.71002E-09  1.59638E-09  1.48326E-09  1.37072E-09  1.25881E-09  1.14755E-09
   1.03704E-09  9.27305E-10  8.18401E-10  7.10407E-10  6.03386E-10  4.97410E-10  3.92586E-10  2.89019E-10  1.86865E-10  8.63135E-11
  -1.23736E-11 -1.08743E-10 -2.02064E-10 -2.90972E-10 -3.72289E-10 -4.37099E-10 -4.46135E-10 -2.91735E-10 -9.30758E-11  7.63748E-11
   2.03048E-10  3.01689E-10  3.76958E-10  4.04722E-10  3.31190E-10  9.45012E-11 -3.33741E-10 -8.90940E-10 -1.37750E-09 -1.56648E-09
  -1.68116E-09 -1.77209E-09 -1.85175E-09 -1.92463E-09 -1.99271E-09 -2.05704E-09 -2.11820E-09 -2.17656E-09 -2.23235E-09 -2.28574E-09
  -2.33683E-09 -2.38574E-09 -2.43253E-09 -2.47725E-09 -2.51994E-09 -2.56065E-09 -2.59942E-09 -2.63629E-09 -2.67125E-09 -2.70437E-09
  -2.73566E-09 -2.76516E-09 -2.79284E-09 -2.81877E-09 -2.84299E-09 -2.86545E-09 -2.88624E-09 -2.90534E-09 -2.92279E-09 -2.93860E-09
  -2.95279E-09 -2.96538E-09 -2.97640E-09 -2.98586E-09 -2.99378E-09 -3.00016E-09 -3.00505E-09 -3.00846E-09 -3.01040E-09 -3.01089E-09
  -3.00995E-09 -3.00760E-09 -3.00387E-09 -2.99874E-09 -2.99227E-09 -2.98445E-09 -2.97535E-09 -2.96489E-09 -2.95319E-09 -2.94021E-09
  -2.92600E-09 -2.91055E-09 -2.89391E-09 -2.87606E-09 -2.85703E-09 -2.83687E-09 -2.81556E-09 -2.79314E-09 -2.76961E-09 -2.74500E-09
  -2.71934E-09 -2.69261E-09 -2.66488E-09 -2.63612E-09 -2.60640E-09 -2.57569E-09 -2.54402E-09 -2.51142E-09 -2.47790E-09 -2.44348E-09
  -2.40817E-09 -2.37201E-09 -2.33499E-09 -2.29717E-09 -2.25851E-09 -2.21909E-09 -2.17887E-09 -2.13790E-09 -2.09621E-09 -2.05381E-09
  -2.01067E-09 -1.96688E-09 -1.92243E-09 -1.87729E-09 -1.83156E-09 -1.78522E-09 -1.73829E-09 -1.69079E-09 -1.64274E-09 -1.59409E-09
  -1.54501E-09 -1.49536E-09 -1.44527E-09 -1.39470E-09 -1.34366E-09 -1.29219E-09 -1.24028E-09 -1.18795E-09 -1.13521E-09 -1.08206E-09
  -1.02852E-09 -9.74606E-10 -9.20322E-10 -8.65684E-10 -8.10696E-10 -7.55374E-10 -6.99728E-10 -6.43776E-10 -5.87514E-10 -5.30966E-10
  -4.74137E-10 -4.17042E-10 -3.59690E-10 -3.02090E-10 -2.44256E-10 -1.86195E-10 -1.27929E-10 -6.94601E-11 -1.07937E-11  4.80428E-11
   1.07051E-10  1.66224E-10  2.25534E-10  2.84984E-10  3.44551E-10  4.04238E-10  4.64022E-10  5.23905E-10  5.83859E-10  6.43882E-10
   7.03965E-10  7.64095E-10  8.24254E-10  8.84445E-10  9.44642E-10  1.00484E-09  1.06503E-09  1.12521E-09  1.18536E-09  1.24545E-09
   1.30549E-09  1.36547E-09  1.42537E-09  1.48519E-09  1.54491E-09  1.60452E-09  1.66401E-09  1.72337E-09  1.78258E-09  1.84164E-09
   1.90055E-09  1.95926E-09  2.01780E-09  2.07614E-09  2.13426E-09  2.19217E-09  2.24985E-09  2.30729E-09  2.36447E-09  2.42138E-09
   2.47802E-09  2.53438E-09  2.59044E-09  2.64618E-09  2.70162E-09  2.75671E-09  2.81147E-09  2.86587E-09  2.91990E-09  2.97357E-09
   3.02685E-09  3.07972E-09  3.13219E-09  3.18425E-09  3.23587E-09  3.28704E-09  3.33777E-09  3.38803E-09  3.43780E-09  3.48711E-09
   3.53591E-09  3.58421E-09  3.63198E-09
 Asp      Conc. = 9.02E-10
   9.99757E-09  9.85514E-09  9.72693E-09  9.58033E-09  9.44024E-09  9.27733E-09  9.13642E-09  9.03270E-09  8.97821E-09  8.94337E-09
   8.91871E-09  8.90045E-09  8.88666E-09  8.87586E-09  8.86638E-09  8.85801E-09  8.85075E-09  8.84445E-09  8.83900E-09  8.83430E-09
   8.83030E-09  8.82694E-09  8.82419E-09  8.82202E-09  8.82043E-09  8.81946E-09  8.81913E-09  8.81954E-09  8.82077E-09  8.82304E-09
   8.82659E-09  8.83184E-09  8.83946E-09  8.85059E-09  8.86738E-09  8.89478E-09  8.94468E-09  9.00112E-09  9.06909E-09  9.12536E-09
   9.16539E-09  9.19676E-09  9.24155E-09  9.31914E-09  9.42926E-09  9.57615E-09  9.68472E-09  9.75678E-09  9.88811E-09  1.00487E-08
   1.02082E-08  1.02821E-08  1.02204E-08  1.00112E-08  9.72335E-09  9.47319E-09  9.31881E-09  9.26017E-09  9.13480E-09  8.96323E-09
   8.86616E-09  8.79851E-09  8.74378E-09  8.71892E-09  8.68454E-09  8.60973E-09  8.51312E-09  8.44325E-09  8.38595E-09  8.33487E-09
   8.28712E-09  8.24112E-09  8.19589E-09  8.15089E-09  8.10563E-09  8.05985E-09  8.01327E-09  7.96575E-09  7.91711E-09  7.86725E-09
   7.81606E-09  7.76345E-09  7.70939E-09  7.65374E-09  7.59647E-09  7.53753E-09  7.47683E-09  7.41434E-09  7.35007E-09  7.28389E-09
   7.21579E-09  7.14568E-09  7.07365E-09  6.99970E-09  6.92386E-09  6.84617E-09  6.76668E-09  6.68543E-09  6.60245E-09  6.51780E-09
   6.43152E-09  6.34363E-09  6.25421E-09  6.16327E-09  6.07088E-09  5.97707E-09  5.88189E-09  5.78538E-09  5.68760E-09  5.58857E-09
   5.48835E-09  5.38699E-09  5.28452E-09  5.18100E-09  5.07647E-09  4.97097E-09  4.86456E-09  4.75725E-09  4.64914E-09  4.54023E-09
   4.43058E-09  4.32025E-09  4.20927E-09  4.09769E-09  3.98556E-09  3.87292E-09  3.75981E-09  3.64629E-09  3.53240E-09  3.41820E-09
   3.30371E-09  3.18899E-09  3.07409E-09  2.95905E-09  2.84392E-09  2.72875E-09  2.61357E-09  2.49845E-09  2.38343E-09  2.26855E-09
   2.15387E-09  2.03942E-09  1.92527E-09  1.81146E-09  1.69803E-09  1.58504E-09  1.47254E-09  1.36058E-09  1.24921E-09  1.13848E-09
   1.02848E-09  9.19241E-10  8.10831E-10  7.03331E-10  5.96816E-10  4.91366E-10  3.87100E-10  2.84142E-10  1.82671E-10  8.29113E-11
  -1.48229E-11 -1.09993E-10 -2.01722E-10 -2.88363E-10 -3.66121E-10 -4.24386E-10 -4.17067E-10 -2.08147E-10  5.68677E-11  2.86257E-10
   4.62430E-10  6.03481E-10  7.15694E-10  7.70165E-10  7.01269E-10  4.32710E-10 -7.19175E-11 -7.38587E-10 -1.32487E-09 -1.54346E-09
  -1.66865E-09 -1.76476E-09 -1.84743E-09 -1.92222E-09 -1.99161E-09 -2.05687E-09 -2.11872E-09 -2.17759E-09 -2.23378E-09 -2.28749E-09
  -2.33883E-09 -2.38794E-09 -2.43488E-09 -2.47974E-09 -2.52254E-09 -2.56334E-09 -2.60218E-09 -2.63911E-09 -2.67412E-09 -2.70728E-09
  -2.73861E-09 -2.76813E-09 -2.79583E-09 -2.82179E-09 -2.84601E-09 -2.86849E-09 -2.88929E-09 -2.90840E-09 -2.92586E-09 -2.94167E-09
  -2.95586E-09 -2.96845E-09 -2.97947E-09 -2.98892E-09 -2.99684E-09 -3.00321E-09 -3.00810E-09 -3.01150E-09 -3.01344E-09 -3.01392E-09
  -3.01297E-09 -3.01061E-09 -3.00687E-09 -3.00174E-09 -2.99526E-09 -2.98744E-09 -2.97833E-09 -2.96786E-09 -2.95615E-09 -2.94317E-09
