 LCModel (Version 6.3-1R) Copyright: S.W. Provencher.          Ref.: Magn. Reson. Med. 30:672-679 (1993).                
 onepulse 28x8_ftSpec_smooth_lcm
 26 lines in following concentration table = NCONC+1
    Conc.  %SD /Cr+PCr  Metabolite                                         
    0.000 999%   0.000 Ala                                                 
 3.69E-10  64%   3.799 Asp                                                 
    0.000 999%   0.000 Cr                                                  
 1.18E-11 999%   0.122 GABA                                                
    0.000 999%   0.000 Glc                                                 
 8.67E-10  29%   8.928 Gln                                                 
    0.000 999%   0.000 Glu                                                 
    0.000 999%   0.000 Glyc                                                
    0.000 999%   0.000 GPC                                                 
 3.60E-10  57%   3.707 GSH                                                 
 7.19E-10  24%   7.400 Ins                                                 
    0.000 999%   0.000 Lac                                                 
 2.27E-10  35%   2.339 NAAG                                                
    0.000 999%   0.000 NAA                                                 
    0.000 999%   0.000 PCh                                                 
 9.71E-11 138%   1.000 PCr                                                 
 7.36E-10  38%   7.577 PE                                                  
 9.17E-11 120%   0.944 Scyllo                                              
    0.000 999%   0.000 Ser                                                 
 2.33E-10 156%   2.403 Tau                                                 
    0.000 999%   0.000 GPC+PCh                                             
 2.27E-10  35%   2.339 NAA+NAAG                                            
 7.19E-10  24%   7.400 Ins+Glyc                                            
 9.71E-11 138%   1.000 Cr+PCr                                              
 8.67E-10  29%   8.928 Glu+Gln                                             
   6 lines in following misc. output table
  FWHM = 0.112 ppm    S/N =   3                                            
  Data shift = 0.391 ppm                                                   
  Ph: -47 deg     -50.4 deg/ppm                                            
  alphaB,S = 2.0E-01,   2.6E+01                                            
   12 spline knots.   Ns = 5(1)                                            
  (10) 4 infls.   ( 9) 3 extrs.                                            
  363 points on ppm-axis = NY
      4.250000     4.238821     4.227641     4.216462     4.205282     4.194103     4.182923     4.171744     4.160564     4.149385
      4.138206     4.127026     4.115847     4.104667     4.093488     4.082308     4.071129     4.059949     4.048770     4.037591
      4.026411     4.015232     4.004052     3.992873     3.981693     3.970514     3.959334     3.948155     3.936975     3.925796
      3.914617     3.903437     3.892258     3.881078     3.869899     3.858719     3.847540     3.836360     3.825181     3.814002
      3.802822     3.791643     3.780463     3.769284     3.758104     3.746925     3.735745     3.724566     3.713387     3.702207
      3.691028     3.679848     3.668669     3.657489     3.646310     3.635130     3.623951     3.612772     3.601592     3.590413
      3.579233     3.568054     3.556874     3.545695     3.534515     3.523336     3.512156     3.500977     3.489798     3.478618
      3.467439     3.456259     3.445080     3.433900     3.422721     3.411541     3.400362     3.389183     3.378003     3.366824
      3.355644     3.344465     3.333285     3.322106     3.310926     3.299747     3.288568     3.277388     3.266209     3.255029
      3.243850     3.232670     3.221491     3.210311     3.199132     3.187953     3.176773     3.165594     3.154414     3.143235
      3.132055     3.120876     3.109696     3.098517     3.087337     3.076158     3.064979     3.053799     3.042620     3.031440
      3.020261     3.009081     2.997902     2.986722     2.975543     2.964364     2.953184     2.942005     2.930825     2.919646
      2.908466     2.897287     2.886107     2.874928     2.863749     2.852569     2.841390     2.830210     2.819031     2.807851
      2.796672     2.785492     2.774313     2.763134     2.751954     2.740775     2.729595     2.718416     2.707236     2.696057
      2.684877     2.673698     2.662519     2.651339     2.640160     2.628980     2.617801     2.606621     2.595442     2.584262
      2.573083     2.561903     2.550724     2.539545     2.528365     2.517186     2.506006     2.494827     2.483647     2.472468
      2.461288     2.450109     2.438930     2.427750     2.416571     2.405391     2.394212     2.383032     2.371853     2.360673
      2.349494     2.338315     2.327135     2.315956     2.304776     2.293597     2.282417     2.271238     2.260058     2.248879
      2.237700     2.226520     2.215341     2.204161     2.192982     2.181802     2.170623     2.159443     2.148264     2.137084
      2.125905     2.114726     2.103546     2.092367     2.081187     2.070008     2.058828     2.047649     2.036469     2.025290
      2.014111     2.002931     1.991752     1.980572     1.969393     1.958213     1.947034     1.935854     1.924675     1.913496
      1.902316     1.891137     1.879957     1.868778     1.857598     1.846419     1.835239     1.824060     1.812881     1.801701
      1.790522     1.779342     1.768163     1.756983     1.745804     1.734624     1.723445     1.712265     1.701086     1.689907
      1.678727     1.667548     1.656368     1.645189     1.634009     1.622830     1.611650     1.600471     1.589292     1.578112
      1.566933     1.555753     1.544574     1.533394     1.522215     1.511035     1.499856     1.488677     1.477497     1.466318
      1.455138     1.443959     1.432779     1.421600     1.410420     1.399241     1.388062     1.376882     1.365703     1.354523
      1.343344     1.332164     1.320985     1.309805     1.298626     1.287446     1.276267     1.265088     1.253908     1.242729
      1.231549     1.220370     1.209190     1.198011     1.186831     1.175652     1.164473     1.153293     1.142114     1.130934
      1.119755     1.108575     1.097396     1.086216     1.075037     1.063858     1.052678     1.041499     1.030319     1.019140
      1.007960     0.996781     0.985601     0.974422     0.963243     0.952063     0.940884     0.929704     0.918525     0.907345
      0.896166     0.884986     0.873807     0.862628     0.851448     0.840269     0.829089     0.817910     0.806730     0.795551
      0.784371     0.773192     0.762012     0.750833     0.739654     0.728474     0.717295     0.706115     0.694936     0.683756
      0.672577     0.661397     0.650218     0.639039     0.627859     0.616680     0.605500     0.594321     0.583141     0.571962
      0.560782     0.549603     0.538424     0.527244     0.516065     0.504885     0.493706     0.482526     0.471347     0.460167
      0.448988     0.437809     0.426629     0.415450     0.404270     0.393091     0.381911     0.370732     0.359552     0.348373
      0.337193     0.326014     0.314835     0.303655     0.292476     0.281296     0.270117     0.258937     0.247758     0.236578
      0.225399     0.214220     0.203040
 NY phased data points follow
   1.77821E-09  2.05946E-09  1.71163E-09  2.10573E-09  2.01196E-09  2.41970E-09  2.51968E-09  2.84863E-09  3.05976E-09  2.97751E-09
   2.92324E-09  3.56679E-09  2.78762E-09  2.77744E-09  2.86838E-09  2.71822E-09  2.68787E-09  2.53088E-09  2.69657E-09  2.79157E-09
   2.83900E-09  2.99067E-09  3.08681E-09  2.82308E-09  3.05119E-09  2.63517E-09  3.02507E-09  3.48135E-09  4.62423E-09  3.94770E-09
   3.86245E-09  2.89406E-09  3.12199E-09  2.26847E-09  2.71763E-09  2.40992E-09  2.57889E-09  2.10777E-09  2.57206E-09  2.10344E-09
   2.71199E-09  2.30818E-09  2.48600E-09  1.70508E-09  1.97600E-09  1.85756E-09  2.14171E-09  1.86854E-09  2.47467E-09  2.00904E-09
   2.23651E-09  1.66913E-09  2.42999E-09  1.76788E-09  2.70574E-09  2.55320E-09  3.11353E-09  2.80090E-09  3.86546E-09  3.82437E-09
   4.82168E-09  3.79638E-09  4.33636E-09  2.84254E-09  3.32988E-09  2.38734E-09  3.11354E-09  2.30454E-09  2.58331E-09  2.01028E-09
   2.39602E-09  2.19789E-09  2.56270E-09  2.35493E-09  3.65932E-09  4.12831E-09  6.57768E-09  6.10988E-09  6.16675E-09  4.90540E-09
   5.56789E-09  4.53990E-09  4.71393E-09  4.03165E-09  4.88862E-09  4.06341E-09  4.31432E-09  3.85977E-09  4.46553E-09  2.96831E-09
   4.08146E-09  2.88974E-09  3.37239E-09  2.34818E-09  3.19608E-09  2.28293E-09  2.77419E-09  2.24189E-09  2.83291E-09  2.20654E-09
   2.62924E-09  1.97372E-09  3.11559E-09  2.14251E-09  2.64037E-09  1.70460E-09  2.25865E-09  1.44237E-09  2.10572E-09  1.84146E-09
   2.23472E-09  1.71835E-09  2.29750E-09  2.01508E-09  2.55441E-09  1.82730E-09  2.72835E-09  1.69891E-09  2.68481E-09  1.80879E-09
   2.48376E-09  1.62466E-09  2.20284E-09  1.53696E-09  1.99378E-09  1.64049E-09  2.43537E-09  1.71781E-09  2.42831E-09  1.84854E-09
   3.04002E-09  2.23554E-09  2.08055E-09  2.06102E-09  2.59125E-09  2.12245E-09  3.60075E-09  2.95976E-09  3.56545E-09  2.78220E-09
   3.48979E-09  2.99594E-09  3.88384E-09  3.57677E-09  4.07239E-09  3.34093E-09  3.93559E-09  3.21866E-09  3.88535E-09  3.41537E-09
   3.64958E-09  3.28708E-09  3.52955E-09  2.98286E-09  3.37670E-09  2.84939E-09  3.08468E-09  2.59035E-09  2.92508E-09  2.42975E-09
   2.91599E-09  1.96864E-09  2.49669E-09  2.38873E-09  2.39546E-09  1.86609E-09  2.30747E-09  3.46337E-09  6.06775E-09  7.00918E-09
   7.30238E-09  7.10111E-09  7.31655E-09  6.80800E-09  7.21611E-09  6.73457E-09  6.46188E-09  5.98278E-09  5.89235E-09  5.05770E-09
   4.63525E-09  3.90111E-09  3.38627E-09  1.79051E-09  1.36922E-09 -1.57164E-11 -3.68722E-10 -1.59367E-09 -2.33850E-09 -3.19781E-09
  -3.70288E-09 -4.56726E-09 -4.69600E-09 -5.13483E-09 -4.81805E-09 -4.60705E-09 -4.37449E-09 -3.90794E-09 -3.44235E-09 -3.13004E-09
  -2.37666E-09 -2.07197E-09 -1.85762E-09 -1.73028E-09 -1.12034E-09 -1.78580E-09 -1.11252E-09 -1.19337E-09 -8.98083E-10 -1.31870E-09
  -1.02188E-09 -9.29825E-10 -1.15246E-09 -9.84762E-10 -6.74666E-10 -1.03253E-09 -8.60201E-10 -9.87164E-10 -8.13178E-10 -8.54825E-10
  -9.56224E-10 -6.27660E-10 -6.27219E-10 -4.73272E-10 -1.00421E-09 -7.23437E-10 -7.33157E-10 -6.38000E-10 -6.11785E-10 -4.09254E-10
  -6.14868E-10 -1.19710E-09 -1.00279E-09 -7.77846E-10 -2.64211E-10 -7.66414E-10 -9.79135E-10 -6.77806E-10 -7.46172E-10 -7.61235E-10
  -8.98093E-10 -8.03413E-10 -9.29004E-10 -1.08570E-09 -1.22884E-09 -1.11187E-09 -1.19875E-09 -1.04038E-09 -1.04489E-09 -9.99857E-10
  -7.68153E-10 -7.79498E-10 -1.16583E-09 -8.08108E-10 -1.03718E-09 -7.87900E-10 -8.89260E-10 -7.53016E-10 -1.22825E-09 -7.72347E-10
  -1.28578E-09 -8.65574E-10 -1.35420E-09 -1.03941E-09 -1.52313E-09 -1.49542E-09 -1.60735E-09 -1.18795E-09 -1.71331E-09 -1.70422E-09
  -1.62485E-09 -8.39458E-10 -1.46319E-09 -8.57932E-10 -1.34176E-09 -1.01566E-09 -1.25090E-09 -5.87201E-10 -8.30284E-10 -4.62436E-10
  -1.03240E-09 -4.07272E-10 -6.75950E-10 -6.84690E-10 -9.78917E-10 -4.71128E-10 -6.67125E-10 -5.87820E-10 -9.67229E-10 -4.79456E-10
  -1.12053E-09 -8.29220E-10 -7.66705E-10 -6.64015E-10 -9.52420E-10 -2.84577E-10 -1.19043E-09 -6.20197E-10 -1.10422E-09 -6.21676E-10
  -9.42414E-10 -5.11682E-10 -9.01539E-10 -5.68833E-10 -1.03115E-09 -6.12710E-10 -1.15590E-09 -5.61443E-10 -1.29930E-09 -8.16789E-10
  -9.66614E-10 -8.09426E-10 -1.26870E-09 -9.15066E-10 -9.58366E-10 -7.60079E-10 -1.08505E-09 -1.14919E-09 -1.30257E-09 -9.79470E-10
  -1.37643E-09 -6.00208E-10 -1.36484E-09 -7.52844E-10 -1.09494E-09 -1.19701E-09 -9.83535E-10 -1.03687E-09 -1.23932E-09 -7.76878E-10
  -1.10188E-09 -6.31585E-10 -1.28096E-09 -5.49572E-10 -1.52427E-09 -8.29076E-10 -1.40969E-09 -1.08627E-09 -1.16029E-09 -7.31687E-10
  -1.21107E-09 -1.02869E-09 -1.42118E-09 -8.66805E-10 -1.37763E-09 -7.78327E-10 -1.29849E-09 -7.64081E-10 -1.27821E-09 -9.96480E-10
  -1.03706E-09 -1.10363E-09 -1.63315E-09 -8.48323E-10 -1.33981E-09 -1.02175E-09 -1.60940E-09 -1.00801E-09 -1.47278E-09 -1.05417E-09
  -1.31970E-09 -7.78306E-10 -1.14840E-09
 NY points of the fit to the data follow
   2.15018E-09  2.27314E-09  2.23300E-09  2.18632E-09  2.16412E-09  2.36386E-09  2.59728E-09  2.68959E-09  2.83940E-09  2.95921E-09
   2.90109E-09  2.96112E-09  2.91256E-09  2.91776E-09  3.02111E-09  2.96481E-09  2.80950E-09  2.95109E-09  3.03096E-09  2.67326E-09
   2.35782E-09  2.37766E-09  2.65184E-09  2.94901E-09  3.19581E-09  3.45529E-09  3.74676E-09  3.85336E-09  3.71246E-09  3.43242E-09
   3.35062E-09  3.23699E-09  3.01904E-09  2.75473E-09  2.65532E-09  2.48238E-09  2.30463E-09  2.21160E-09  2.25908E-09  2.31153E-09
   2.32802E-09  2.28108E-09  2.14785E-09  2.04286E-09  1.98031E-09  1.89813E-09  1.91340E-09  1.79109E-09  1.72454E-09  1.78181E-09
   1.92580E-09  2.10122E-09  2.24774E-09  2.36050E-09  2.56620E-09  2.83844E-09  3.03203E-09  3.30088E-09  3.58899E-09  3.73044E-09
   3.77171E-09  3.75216E-09  3.74020E-09  3.72395E-09  3.52788E-09  3.22000E-09  3.04551E-09  2.93972E-09  2.68116E-09  2.54911E-09
   2.65579E-09  2.83887E-09  3.06560E-09  3.33826E-09  3.63776E-09  4.07453E-09  4.64882E-09  5.16688E-09  5.48963E-09  5.60230E-09
   5.54950E-09  5.39237E-09  5.16053E-09  4.97061E-09  4.82208E-09  4.44914E-09  3.83910E-09  3.30226E-09  3.02431E-09  2.85327E-09
   2.74303E-09  2.67177E-09  2.62048E-09  2.58553E-09  2.55400E-09  2.53168E-09  2.51652E-09  2.50585E-09  2.49771E-09  2.48528E-09
   2.48254E-09  2.48717E-09  2.48997E-09  2.49179E-09  2.49608E-09  2.50220E-09  2.50935E-09  2.51719E-09  2.52524E-09  2.53343E-09
   2.54166E-09  2.54978E-09  2.55771E-09  2.56535E-09  2.57262E-09  2.57946E-09  2.58581E-09  2.59162E-09  2.59683E-09  2.60141E-09
   2.60531E-09  2.60849E-09  2.61092E-09  2.61254E-09  2.61330E-09  2.61317E-09  2.61210E-09  2.61004E-09  2.60695E-09  2.60280E-09
   2.59753E-09  2.59112E-09  2.58352E-09  2.57469E-09  2.56460E-09  2.55322E-09  2.54050E-09  2.52640E-09  2.51091E-09  2.49397E-09
   2.47557E-09  2.45566E-09  2.43422E-09  2.41121E-09  2.38661E-09  2.36040E-09  2.33254E-09  2.30302E-09  2.27183E-09  2.23894E-09
   2.20436E-09  2.16810E-09  2.13017E-09  2.09062E-09  2.04950E-09  2.00693E-09  1.96308E-09  1.91820E-09  1.87269E-09  1.82721E-09
   1.78284E-09  1.74144E-09  1.70653E-09  1.68534E-09  1.69468E-09  1.78328E-09  2.15867E-09  3.75646E-09  5.77934E-09  7.13303E-09
   7.54941E-09  7.44002E-09  7.24661E-09  7.13542E-09  7.15060E-09  7.19400E-09  6.87546E-09  5.37466E-09  2.61694E-09  1.42216E-09
   9.84447E-10  7.36480E-10  5.60749E-10  4.20199E-10  2.99635E-10  1.91726E-10  9.25347E-11 -2.12497E-13 -8.79022E-11 -1.71399E-10
  -2.51259E-10 -3.27841E-10 -4.01363E-10 -4.71973E-10 -5.39730E-10 -6.04654E-10 -6.66756E-10 -7.25981E-10 -7.82289E-10 -8.35620E-10
  -8.85877E-10 -9.32989E-10 -9.76874E-10 -1.01761E-09 -1.05530E-09 -1.09005E-09 -1.12196E-09 -1.15114E-09 -1.17768E-09 -1.20167E-09
  -1.22322E-09 -1.24242E-09 -1.25935E-09 -1.27411E-09 -1.28678E-09 -1.29747E-09 -1.30626E-09 -1.31322E-09 -1.31847E-09 -1.32207E-09
  -1.32412E-09 -1.32471E-09 -1.32392E-09 -1.32184E-09 -1.31855E-09 -1.31415E-09 -1.30870E-09 -1.30231E-09 -1.29506E-09 -1.28703E-09
  -1.27830E-09 -1.26897E-09 -1.25912E-09 -1.24882E-09 -1.23818E-09 -1.22726E-09 -1.21617E-09 -1.20497E-09 -1.19376E-09 -1.18261E-09
  -1.17163E-09 -1.16088E-09 -1.15044E-09 -1.14036E-09 -1.13061E-09 -1.12120E-09 -1.11212E-09 -1.10336E-09 -1.09492E-09 -1.08678E-09
  -1.07894E-09 -1.07141E-09 -1.06415E-09 -1.05718E-09 -1.05049E-09 -1.04407E-09 -1.03791E-09 -1.03200E-09 -1.02635E-09 -1.02093E-09
  -1.01576E-09 -1.01081E-09 -1.00609E-09 -1.00158E-09 -9.97282E-10 -9.93186E-10 -9.89283E-10 -9.85575E-10 -9.82047E-10 -9.78695E-10
  -9.75513E-10 -9.72490E-10 -9.69624E-10 -9.66911E-10 -9.64338E-10 -9.61896E-10 -9.59587E-10 -9.57396E-10 -9.55321E-10 -9.53353E-10
  -9.51491E-10 -9.49717E-10 -9.48035E-10 -9.46438E-10 -9.44928E-10 -9.43508E-10 -9.42179E-10 -9.40944E-10 -9.39806E-10 -9.38768E-10
  -9.37830E-10 -9.36995E-10 -9.36267E-10 -9.35645E-10 -9.35136E-10 -9.34738E-10 -9.34458E-10 -9.34292E-10 -9.34246E-10 -9.34321E-10
  -9.34522E-10 -9.34849E-10 -9.35303E-10 -9.35889E-10 -9.36610E-10 -9.37463E-10 -9.38457E-10 -9.39587E-10 -9.40863E-10 -9.42283E-10
  -9.43851E-10 -9.45564E-10 -9.47432E-10 -9.49454E-10 -9.51626E-10 -9.53966E-10 -9.56461E-10 -9.59116E-10 -9.61941E-10 -9.64932E-10
  -9.68093E-10 -9.71421E-10 -9.74928E-10 -9.78608E-10 -9.82455E-10 -9.86465E-10 -9.90628E-10 -9.94942E-10 -9.99398E-10 -1.00399E-09
  -1.00871E-09 -1.01356E-09 -1.01852E-09 -1.02359E-09 -1.02877E-09 -1.03404E-09 -1.03941E-09 -1.04486E-09 -1.05039E-09 -1.05599E-09
  -1.06166E-09 -1.06739E-09 -1.07317E-09 -1.07900E-09 -1.08486E-09 -1.09077E-09 -1.09670E-09 -1.10265E-09 -1.10861E-09 -1.11459E-09
  -1.12056E-09 -1.12653E-09 -1.13249E-09 -1.13844E-09 -1.14436E-09 -1.15025E-09 -1.15610E-09 -1.16191E-09 -1.16768E-09 -1.17338E-09
  -1.17903E-09 -1.18461E-09 -1.19011E-09
 NY background values follow
    -2.288E-09   -2.237E-09   -2.187E-09   -2.136E-09   -2.086E-09   -2.035E-09   -1.985E-09   -1.934E-09   -1.884E-09   -1.833E-09
    -1.783E-09   -1.733E-09   -1.683E-09   -1.633E-09   -1.583E-09   -1.533E-09   -1.483E-09   -1.433E-09   -1.384E-09   -1.334E-09
    -1.285E-09   -1.236E-09   -1.187E-09   -1.138E-09   -1.089E-09   -1.041E-09   -9.921E-10   -9.440E-10   -8.960E-10   -8.482E-10
    -8.006E-10   -7.532E-10   -7.061E-10   -6.591E-10   -6.125E-10   -5.660E-10   -5.198E-10   -4.739E-10   -4.282E-10   -3.828E-10
    -3.377E-10   -2.929E-10   -2.483E-10   -2.041E-10   -1.601E-10   -1.164E-10   -7.305E-11   -2.996E-11    1.283E-11    5.534E-11
     9.755E-11    1.395E-10    1.811E-10    2.224E-10    2.634E-10    3.042E-10    3.446E-10    3.847E-10    4.246E-10    4.641E-10
     5.034E-10    5.423E-10    5.810E-10    6.193E-10    6.573E-10    6.951E-10    7.325E-10    7.697E-10    8.065E-10    8.430E-10
     8.792E-10    9.152E-10    9.508E-10    9.861E-10    1.021E-09    1.056E-09    1.090E-09    1.124E-09    1.158E-09    1.191E-09
     1.225E-09    1.257E-09    1.290E-09    1.322E-09    1.354E-09    1.385E-09    1.417E-09    1.447E-09    1.478E-09    1.507E-09
     1.537E-09    1.566E-09    1.594E-09    1.622E-09    1.650E-09    1.676E-09    1.703E-09    1.729E-09    1.754E-09    1.779E-09
     1.803E-09    1.826E-09    1.849E-09    1.871E-09    1.892E-09    1.913E-09    1.933E-09    1.953E-09    1.971E-09    1.989E-09
     2.006E-09    2.023E-09    2.038E-09    2.053E-09    2.067E-09    2.080E-09    2.092E-09    2.103E-09    2.114E-09    2.123E-09
     2.132E-09    2.139E-09    2.146E-09    2.152E-09    2.156E-09    2.160E-09    2.162E-09    2.164E-09    2.164E-09    2.163E-09
     2.161E-09    2.157E-09    2.153E-09    2.147E-09    2.139E-09    2.130E-09    2.120E-09    2.109E-09    2.095E-09    2.081E-09
     2.065E-09    2.047E-09    2.028E-09    2.007E-09    1.984E-09    1.960E-09    1.934E-09    1.906E-09    1.876E-09    1.845E-09
     1.811E-09    1.776E-09    1.739E-09    1.700E-09    1.659E-09    1.615E-09    1.570E-09    1.523E-09    1.473E-09    1.422E-09
     1.368E-09    1.312E-09    1.254E-09    1.194E-09    1.131E-09    1.067E-09    1.001E-09    9.340E-10    8.652E-10    7.950E-10
     7.237E-10    6.512E-10    5.779E-10    5.037E-10    4.289E-10    3.536E-10    2.778E-10    2.017E-10    1.256E-10    4.935E-11
    -2.674E-11   -1.026E-10   -1.781E-10   -2.530E-10   -3.274E-10   -4.009E-10   -4.736E-10   -5.452E-10   -6.157E-10   -6.849E-10
    -7.527E-10   -8.190E-10   -8.835E-10   -9.463E-10   -1.007E-09   -1.066E-09   -1.122E-09   -1.177E-09   -1.228E-09   -1.277E-09
    -1.324E-09   -1.367E-09   -1.408E-09   -1.446E-09   -1.481E-09   -1.513E-09   -1.542E-09   -1.569E-09   -1.593E-09   -1.615E-09
    -1.635E-09   -1.652E-09   -1.667E-09   -1.680E-09   -1.691E-09   -1.700E-09   -1.708E-09   -1.713E-09   -1.717E-09   -1.719E-09
    -1.720E-09   -1.719E-09   -1.717E-09   -1.714E-09   -1.710E-09   -1.704E-09   -1.698E-09   -1.690E-09   -1.682E-09   -1.673E-09
    -1.663E-09   -1.653E-09   -1.642E-09   -1.631E-09   -1.620E-09   -1.608E-09   -1.596E-09   -1.584E-09   -1.572E-09   -1.560E-09
    -1.548E-09   -1.537E-09   -1.526E-09   -1.515E-09   -1.505E-09   -1.495E-09   -1.485E-09   -1.475E-09   -1.466E-09   -1.458E-09
    -1.449E-09   -1.441E-09   -1.433E-09   -1.426E-09   -1.418E-09   -1.411E-09   -1.405E-09   -1.398E-09   -1.392E-09   -1.386E-09
    -1.380E-09   -1.375E-09   -1.370E-09   -1.365E-09   -1.360E-09   -1.355E-09   -1.351E-09   -1.347E-09   -1.343E-09   -1.339E-09
    -1.335E-09   -1.332E-09   -1.328E-09   -1.325E-09   -1.322E-09   -1.319E-09   -1.317E-09   -1.314E-09   -1.311E-09   -1.309E-09
    -1.307E-09   -1.305E-09   -1.302E-09   -1.300E-09   -1.299E-09   -1.297E-09   -1.295E-09   -1.293E-09   -1.292E-09   -1.290E-09
    -1.289E-09   -1.288E-09   -1.287E-09   -1.286E-09   -1.285E-09   -1.284E-09   -1.284E-09   -1.283E-09   -1.283E-09   -1.282E-09
    -1.282E-09   -1.282E-09   -1.282E-09   -1.283E-09   -1.283E-09   -1.283E-09   -1.284E-09   -1.285E-09   -1.286E-09   -1.287E-09
    -1.288E-09   -1.290E-09   -1.291E-09   -1.293E-09   -1.295E-09   -1.297E-09   -1.299E-09   -1.301E-09   -1.304E-09   -1.306E-09
    -1.309E-09   -1.312E-09   -1.315E-09   -1.319E-09   -1.322E-09   -1.326E-09   -1.330E-09   -1.334E-09   -1.338E-09   -1.342E-09
    -1.347E-09   -1.351E-09   -1.356E-09   -1.361E-09   -1.366E-09   -1.371E-09   -1.376E-09   -1.381E-09   -1.386E-09   -1.391E-09
    -1.397E-09   -1.402E-09   -1.408E-09   -1.413E-09   -1.419E-09   -1.424E-09   -1.430E-09   -1.436E-09   -1.441E-09   -1.447E-09
    -1.453E-09   -1.458E-09   -1.464E-09   -1.470E-09   -1.475E-09   -1.481E-09   -1.487E-09   -1.492E-09   -1.498E-09   -1.503E-09
    -1.508E-09   -1.514E-09   -1.519E-09
 Asp      Conc. = 3.69E-10
  -1.86938E-09 -1.87437E-09 -1.86900E-09 -1.86514E-09 -1.84501E-09 -1.84475E-09 -1.83905E-09 -1.83848E-09 -1.81184E-09 -1.77525E-09
  -1.73398E-09 -1.69012E-09 -1.64443E-09 -1.59725E-09 -1.54951E-09 -1.50154E-09 -1.45331E-09 -1.40489E-09 -1.35632E-09 -1.30764E-09
  -1.25890E-09 -1.21011E-09 -1.16128E-09 -1.11243E-09 -1.06356E-09 -1.01464E-09 -9.65664E-10 -9.16602E-10 -8.67397E-10 -8.17978E-10
  -7.68202E-10 -7.17893E-10 -6.66729E-10 -6.14142E-10 -5.58986E-10 -4.98568E-10 -4.25365E-10 -3.49861E-10 -2.71899E-10 -2.07229E-10
  -1.59444E-10 -1.18131E-10 -6.17932E-11  3.44470E-11  1.61740E-10  3.21111E-10  4.37438E-10  4.81029E-10  5.25987E-10  5.85272E-10
   6.76888E-10  7.63657E-10  8.26659E-10  8.33886E-10  7.78849E-10  7.14337E-10  6.59598E-10  7.11284E-10  7.45540E-10  7.18255E-10
   7.16584E-10  7.30877E-10  7.39422E-10  7.67062E-10  8.13366E-10  8.47559E-10  8.53178E-10  8.70826E-10  8.94819E-10  9.22053E-10
   9.51148E-10  9.81377E-10  1.01233E-09  1.04374E-09  1.07542E-09  1.10726E-09  1.13916E-09  1.17105E-09  1.20288E-09  1.23461E-09
   1.26621E-09  1.29765E-09  1.32889E-09  1.35992E-09  1.39069E-09  1.42117E-09  1.45136E-09  1.48121E-09  1.51070E-09  1.53982E-09
   1.56854E-09  1.59684E-09  1.62470E-09  1.65210E-09  1.67902E-09  1.70545E-09  1.73136E-09  1.75673E-09  1.78156E-09  1.80581E-09
   1.82948E-09  1.85254E-09  1.87498E-09  1.89679E-09  1.91793E-09  1.93841E-09  1.95819E-09  1.97727E-09  1.99562E-09  2.01323E-09
   2.03009E-09  2.04617E-09  2.06147E-09  2.07596E-09  2.08962E-09  2.10245E-09  2.11442E-09  2.12552E-09  2.13573E-09  2.14504E-09
   2.15342E-09  2.16087E-09  2.16736E-09  2.17286E-09  2.17733E-09  2.18075E-09  2.18308E-09  2.18430E-09  2.18435E-09  2.18322E-09
   2.18088E-09  2.17728E-09  2.17240E-09  2.16621E-09  2.15867E-09  2.14975E-09  2.13942E-09  2.12764E-09  2.11439E-09  2.09963E-09
   2.08333E-09  2.06546E-09  2.04599E-09  2.02487E-09  2.00209E-09  1.97761E-09  1.95140E-09  1.92342E-09  1.89365E-09  1.86206E-09
   1.82862E-09  1.79329E-09  1.75605E-09  1.71688E-09  1.67575E-09  1.63264E-09  1.58754E-09  1.54045E-09  1.49136E-09  1.44033E-09
   1.38743E-09  1.33281E-09  1.27686E-09  1.22044E-09  1.16552E-09  1.11787E-09  1.10342E-09  1.22090E-09  1.36428E-09  1.42677E-09
   1.39362E-09  1.31320E-09  1.22849E-09  1.15280E-09  1.08956E-09  1.02648E-09  9.19131E-10  6.81084E-10  3.25426E-10  1.61484E-10
   5.40753E-11 -3.75111E-11 -1.22442E-10 -2.03720E-10 -2.82562E-10 -3.59511E-10 -4.34812E-10 -5.08560E-10 -5.80771E-10 -6.51405E-10
  -7.20400E-10 -7.87675E-10 -8.53128E-10 -9.16666E-10 -9.78170E-10 -1.03752E-09 -1.09461E-09 -1.14931E-09 -1.20151E-09 -1.25107E-09
  -1.29787E-09 -1.34180E-09 -1.38272E-09 -1.42071E-09 -1.45583E-09 -1.48818E-09 -1.51784E-09 -1.54489E-09 -1.56942E-09 -1.59152E-09
  -1.61127E-09 -1.62875E-09 -1.64404E-09 -1.65725E-09 -1.66844E-09 -1.67770E-09 -1.68511E-09 -1.69077E-09 -1.69475E-09 -1.69714E-09
  -1.69802E-09 -1.69747E-09 -1.69559E-09 -1.69245E-09 -1.68814E-09 -1.68274E-09 -1.67633E-09 -1.66901E-09 -1.66084E-09 -1.65192E-09
  -1.64234E-09 -1.63217E-09 -1.62150E-09 -1.61040E-09 -1.59898E-09 -1.58731E-09 -1.57547E-09 -1.56354E-09 -1.55162E-09 -1.53978E-09
  -1.52811E-09 -1.51669E-09 -1.50561E-09 -1.49488E-09 -1.48451E-09 -1.47448E-09 -1.46479E-09 -1.45544E-09 -1.44641E-09 -1.43769E-09
  -1.42929E-09 -1.42120E-09 -1.41340E-09 -1.40589E-09 -1.39867E-09 -1.39173E-09 -1.38505E-09 -1.37864E-09 -1.37248E-09 -1.36657E-09
  -1.36091E-09 -1.35549E-09 -1.35029E-09 -1.34532E-09 -1.34055E-09 -1.33600E-09 -1.33165E-09 -1.32750E-09 -1.32353E-09 -1.31975E-09
  -1.31614E-09 -1.31269E-09 -1.30940E-09 -1.30627E-09 -1.30329E-09 -1.30044E-09 -1.29773E-09 -1.29514E-09 -1.29268E-09 -1.29032E-09
  -1.28807E-09 -1.28591E-09 -1.28385E-09 -1.28188E-09 -1.28000E-09 -1.27821E-09 -1.27652E-09 -1.27492E-09 -1.27342E-09 -1.27203E-09
  -1.27074E-09 -1.26955E-09 -1.26847E-09 -1.26751E-09 -1.26666E-09 -1.26592E-09 -1.26530E-09 -1.26480E-09 -1.26442E-09 -1.26416E-09
  -1.26404E-09 -1.26404E-09 -1.26417E-09 -1.26443E-09 -1.26483E-09 -1.26537E-09 -1.26605E-09 -1.26686E-09 -1.26783E-09 -1.26894E-09
  -1.27020E-09 -1.27160E-09 -1.27317E-09 -1.27488E-09 -1.27675E-09 -1.27879E-09 -1.28099E-09 -1.28335E-09 -1.28587E-09 -1.28857E-09
  -1.29144E-09 -1.29447E-09 -1.29769E-09 -1.30108E-09 -1.30464E-09 -1.30836E-09 -1.31224E-09 -1.31627E-09 -1.32044E-09 -1.32475E-09
  -1.32919E-09 -1.33375E-09 -1.33843E-09 -1.34322E-09 -1.34812E-09 -1.35312E-09 -1.35821E-09 -1.36339E-09 -1.36864E-09 -1.37397E-09
  -1.37936E-09 -1.38482E-09 -1.39032E-09 -1.39588E-09 -1.40148E-09 -1.40711E-09 -1.41276E-09 -1.41845E-09 -1.42414E-09 -1.42985E-09
  -1.43555E-09 -1.44126E-09 -1.44695E-09 -1.45263E-09 -1.45828E-09 -1.46390E-09 -1.46949E-09 -1.47503E-09 -1.48053E-09 -1.48597E-09
  -1.49135E-09 -1.49666E-09 -1.50189E-09
 GABA     Conc. = 1.18E-11
  -2.28734E-09 -2.23676E-09 -2.18617E-09 -2.13560E-09 -2.08503E-09 -2.03449E-09 -1.98398E-09 -1.93351E-09 -1.88307E-09 -1.83269E-09
  -1.78236E-09 -1.73210E-09 -1.68191E-09 -1.63179E-09 -1.58176E-09 -1.53182E-09 -1.48198E-09 -1.43224E-09 -1.38261E-09 -1.33309E-09
  -1.28370E-09 -1.23442E-09 -1.18526E-09 -1.13621E-09 -1.08727E-09 -1.03841E-09 -9.89579E-10 -9.40656E-10 -8.91309E-10 -8.40584E-10
  -7.90382E-10 -7.41421E-10 -6.90630E-10 -6.39315E-10 -5.90024E-10 -5.41626E-10 -4.93465E-10 -4.46080E-10 -4.00457E-10 -3.57079E-10
  -3.14759E-10 -2.70248E-10 -2.28603E-10 -1.90599E-10 -1.48379E-10 -1.05720E-10 -6.58373E-11 -2.46943E-11  1.70946E-11  5.89970E-11
   1.00828E-10  1.42498E-10  1.83969E-10  2.25217E-10  2.66236E-10  3.07031E-10  3.47600E-10  3.87973E-10  4.28190E-10  4.68347E-10
   5.08657E-10  5.49774E-10  5.91752E-10  6.32505E-10  6.72946E-10  7.14467E-10  7.54861E-10  7.93286E-10  8.30797E-10  8.67862E-10
   9.03974E-10  9.38279E-10  9.70702E-10  1.00340E-09  1.03711E-09  1.06722E-09  1.09753E-09  1.13132E-09  1.16395E-09  1.19605E-09
   1.22953E-09  1.26264E-09  1.29552E-09  1.32964E-09  1.36346E-09  1.39614E-09  1.42890E-09  1.46152E-09  1.49342E-09  1.52425E-09
   1.55354E-09  1.58252E-09  1.61185E-09  1.63825E-09  1.66310E-09  1.69005E-09  1.71510E-09  1.73816E-09  1.76235E-09  1.78608E-09
   1.80888E-09  1.83144E-09  1.85360E-09  1.87526E-09  1.89634E-09  1.91682E-09  1.93663E-09  1.95577E-09  1.97421E-09  1.99193E-09
   2.00890E-09  2.02510E-09  2.04052E-09  2.05514E-09  2.06894E-09  2.08190E-09  2.09400E-09  2.10524E-09  2.11559E-09  2.12503E-09
   2.13355E-09  2.14114E-09  2.14776E-09  2.15339E-09  2.15800E-09  2.16155E-09  2.16401E-09  2.16536E-09  2.16554E-09  2.16454E-09
   2.16233E-09  2.15886E-09  2.15410E-09  2.14804E-09  2.14062E-09  2.13183E-09  2.12162E-09  2.10997E-09  2.09684E-09  2.08220E-09
   2.06603E-09  2.04827E-09  2.02892E-09  2.00792E-09  1.98525E-09  1.96089E-09  1.93478E-09  1.90691E-09  1.87725E-09  1.84575E-09
   1.81238E-09  1.77712E-09  1.73994E-09  1.70079E-09  1.65965E-09  1.61649E-09  1.57128E-09  1.52397E-09  1.47455E-09  1.42298E-09
   1.36924E-09  1.31329E-09  1.25516E-09  1.19497E-09  1.13294E-09  1.06938E-09  1.00543E-09  9.44118E-10  8.81949E-10  8.15794E-10
   7.45503E-10  6.72799E-10  5.99120E-10  5.24974E-10  4.50569E-10  3.75578E-10  2.98593E-10  2.17041E-10  1.32114E-10  5.34126E-11
  -2.36267E-11 -9.99652E-11 -1.75743E-10 -2.50918E-10 -3.25401E-10 -3.99081E-10 -4.71842E-10 -5.43558E-10 -6.14108E-10 -6.83358E-10
  -7.51182E-10 -8.17454E-10 -8.82037E-10 -9.44815E-10 -1.00565E-09 -1.06440E-09 -1.12096E-09 -1.17518E-09 -1.22693E-09 -1.27610E-09
  -1.32254E-09 -1.36612E-09 -1.40674E-09 -1.44445E-09 -1.47930E-09 -1.51140E-09 -1.54083E-09 -1.56767E-09 -1.59199E-09 -1.61390E-09
  -1.63347E-09 -1.65078E-09 -1.66591E-09 -1.67896E-09 -1.69001E-09 -1.69913E-09 -1.70642E-09 -1.71194E-09 -1.71581E-09 -1.71808E-09
  -1.71885E-09 -1.71820E-09 -1.71621E-09 -1.71297E-09 -1.70856E-09 -1.70307E-09 -1.69658E-09 -1.68917E-09 -1.68092E-09 -1.67193E-09
  -1.66226E-09 -1.65202E-09 -1.64128E-09 -1.63011E-09 -1.61863E-09 -1.60688E-09 -1.59498E-09 -1.58299E-09 -1.57101E-09 -1.55911E-09
