 LCModel (Version 6.3-1R) Copyright: S.W. Provencher.          Ref.: Magn. Reson. Med. 30:672-679 (1993).                
 onepulse 28x9_ftSpec_smooth_lcm
 26 lines in following concentration table = NCONC+1
    Conc.  %SD /Cr+PCr  Metabolite                                         
    0.000 999%   0.000 Ala                                                 
 5.04E-10  62%   4.094 Asp                                                 
    0.000 999%   0.000 Cr                                                  
 1.26E-10 235%   1.020 GABA                                                
    0.000 999%   0.000 Glc                                                 
 1.16E-09  29%   9.397 Gln                                                 
    0.000 999%   0.000 Glu                                                 
    0.000 999%   0.000 Glyc                                                
    0.000 999%   0.000 GPC                                                 
 4.11E-10  67%   3.339 GSH                                                 
 9.89E-10  22%   8.035 Ins                                                 
    0.000 999%   0.000 Lac                                                 
 3.09E-10  35%   2.512 NAAG                                                
    0.000 999%   0.000 NAA                                                 
    0.000 999%   0.000 PCh                                                 
 1.23E-10 148%   1.000 PCr                                                 
 1.10E-09  35%   8.976 PE                                                  
 1.78E-10  86%   1.446 Scyllo                                              
    0.000 999%   0.000 Ser                                                 
 9.25E-11 539%   0.752 Tau                                                 
    0.000 999%   0.000 GPC+PCh                                             
 3.09E-10  35%   2.512 NAA+NAAG                                            
 9.89E-10  22%   8.035 Ins+Glyc                                            
 1.23E-10 148%   1.000 Cr+PCr                                              
 1.16E-09  29%   9.397 Glu+Gln                                             
   6 lines in following misc. output table
  FWHM = 0.112 ppm    S/N =   3                                            
  Data shift = 0.402 ppm                                                   
  Ph: -35 deg     -51.1 deg/ppm                                            
  alphaB,S = 3.1E-01,   3.9E+01                                            
   11 spline knots.   Ns = 5(1)                                            
  (10) 3 infls.   ( 9) 3 extrs.                                            
  363 points on ppm-axis = NY
      4.250000     4.238821     4.227641     4.216462     4.205282     4.194103     4.182923     4.171744     4.160564     4.149385
      4.138206     4.127026     4.115847     4.104667     4.093488     4.082308     4.071129     4.059949     4.048770     4.037591
      4.026411     4.015232     4.004052     3.992873     3.981693     3.970514     3.959334     3.948155     3.936975     3.925796
      3.914617     3.903437     3.892258     3.881078     3.869899     3.858719     3.847540     3.836360     3.825181     3.814002
      3.802822     3.791643     3.780463     3.769284     3.758104     3.746925     3.735745     3.724566     3.713387     3.702207
      3.691028     3.679848     3.668669     3.657489     3.646310     3.635130     3.623951     3.612772     3.601592     3.590413
      3.579233     3.568054     3.556874     3.545695     3.534515     3.523336     3.512156     3.500977     3.489798     3.478618
      3.467439     3.456259     3.445080     3.433900     3.422721     3.411541     3.400362     3.389183     3.378003     3.366824
      3.355644     3.344465     3.333285     3.322106     3.310926     3.299747     3.288568     3.277388     3.266209     3.255029
      3.243850     3.232670     3.221491     3.210311     3.199132     3.187953     3.176773     3.165594     3.154414     3.143235
      3.132055     3.120876     3.109696     3.098517     3.087337     3.076158     3.064979     3.053799     3.042620     3.031440
      3.020261     3.009081     2.997902     2.986722     2.975543     2.964364     2.953184     2.942005     2.930825     2.919646
      2.908466     2.897287     2.886107     2.874928     2.863749     2.852569     2.841390     2.830210     2.819031     2.807851
      2.796672     2.785492     2.774313     2.763134     2.751954     2.740775     2.729595     2.718416     2.707236     2.696057
      2.684877     2.673698     2.662519     2.651339     2.640160     2.628980     2.617801     2.606621     2.595442     2.584262
      2.573083     2.561903     2.550724     2.539545     2.528365     2.517186     2.506006     2.494827     2.483647     2.472468
      2.461288     2.450109     2.438930     2.427750     2.416571     2.405391     2.394212     2.383032     2.371853     2.360673
      2.349494     2.338315     2.327135     2.315956     2.304776     2.293597     2.282417     2.271238     2.260058     2.248879
      2.237700     2.226520     2.215341     2.204161     2.192982     2.181802     2.170623     2.159443     2.148264     2.137084
      2.125905     2.114726     2.103546     2.092367     2.081187     2.070008     2.058828     2.047649     2.036469     2.025290
      2.014111     2.002931     1.991752     1.980572     1.969393     1.958213     1.947034     1.935854     1.924675     1.913496
      1.902316     1.891137     1.879957     1.868778     1.857598     1.846419     1.835239     1.824060     1.812881     1.801701
      1.790522     1.779342     1.768163     1.756983     1.745804     1.734624     1.723445     1.712265     1.701086     1.689907
      1.678727     1.667548     1.656368     1.645189     1.634009     1.622830     1.611650     1.600471     1.589292     1.578112
      1.566933     1.555753     1.544574     1.533394     1.522215     1.511035     1.499856     1.488677     1.477497     1.466318
      1.455138     1.443959     1.432779     1.421600     1.410420     1.399241     1.388062     1.376882     1.365703     1.354523
      1.343344     1.332164     1.320985     1.309805     1.298626     1.287446     1.276267     1.265088     1.253908     1.242729
      1.231549     1.220370     1.209190     1.198011     1.186831     1.175652     1.164473     1.153293     1.142114     1.130934
      1.119755     1.108575     1.097396     1.086216     1.075037     1.063858     1.052678     1.041499     1.030319     1.019140
      1.007960     0.996781     0.985601     0.974422     0.963243     0.952063     0.940884     0.929704     0.918525     0.907345
      0.896166     0.884986     0.873807     0.862628     0.851448     0.840269     0.829089     0.817910     0.806730     0.795551
      0.784371     0.773192     0.762012     0.750833     0.739654     0.728474     0.717295     0.706115     0.694936     0.683756
      0.672577     0.661397     0.650218     0.639039     0.627859     0.616680     0.605500     0.594321     0.583141     0.571962
      0.560782     0.549603     0.538424     0.527244     0.516065     0.504885     0.493706     0.482526     0.471347     0.460167
      0.448988     0.437809     0.426629     0.415450     0.404270     0.393091     0.381911     0.370732     0.359552     0.348373
      0.337193     0.326014     0.314835     0.303655     0.292476     0.281296     0.270117     0.258937     0.247758     0.236578
      0.225399     0.214220     0.203040
 NY phased data points follow
   3.57970E-09  3.46293E-09  3.36875E-09  3.86622E-09  3.67787E-09  4.17353E-09  4.10830E-09  4.89330E-09  4.41855E-09  4.86174E-09
   5.08605E-09  4.74586E-09  4.23641E-09  4.64288E-09  4.12522E-09  4.41945E-09  3.72499E-09  4.31527E-09  3.87870E-09  4.68796E-09
   4.25585E-09  4.93342E-09  3.96666E-09  4.45243E-09  3.84320E-09  4.65966E-09  4.73164E-09  6.70745E-09  5.66739E-09  6.02177E-09
   4.48113E-09  4.90926E-09  3.52559E-09  4.14017E-09  3.53635E-09  4.03102E-09  3.26301E-09  4.04039E-09  3.12468E-09  4.04815E-09
   3.36266E-09  3.78479E-09  2.60034E-09  3.04460E-09  2.59392E-09  3.43275E-09  2.67436E-09  3.54410E-09  2.93784E-09  3.46110E-09
   2.28658E-09  3.47382E-09  2.48242E-09  3.65397E-09  3.39182E-09  4.14004E-09  3.47384E-09  5.20725E-09  5.37177E-09  6.82464E-09
   5.59651E-09  6.17102E-09  4.34201E-09  5.04580E-09  3.67211E-09  4.57715E-09  3.50023E-09  3.78571E-09  3.08111E-09  3.43869E-09
   3.00011E-09  3.50709E-09  2.93101E-09  4.51664E-09  5.15666E-09  8.59953E-09  8.51166E-09  8.55567E-09  6.86456E-09  7.69759E-09
   6.52931E-09  6.85909E-09  5.75052E-09  6.68719E-09  5.90890E-09  6.43234E-09  5.55719E-09  6.44415E-09  4.69517E-09  5.75510E-09
   4.49575E-09  5.04488E-09  3.77701E-09  4.80289E-09  3.76415E-09  4.22816E-09  3.55653E-09  4.27672E-09  3.47585E-09  4.06780E-09
   2.88598E-09  4.57169E-09  3.37934E-09  4.00246E-09  2.76937E-09  3.42898E-09  2.23240E-09  3.08604E-09  2.63524E-09  3.27819E-09
   2.64156E-09  3.36225E-09  2.86156E-09  3.83551E-09  2.70418E-09  3.81913E-09  2.70765E-09  3.82112E-09  2.75222E-09  3.50252E-09
   2.53471E-09  2.94870E-09  2.17462E-09  2.78652E-09  2.28712E-09  3.22838E-09  2.40699E-09  3.34802E-09  2.65830E-09  3.89190E-09
   3.27793E-09  3.01455E-09  2.84743E-09  3.31192E-09  2.74146E-09  4.40182E-09  4.15405E-09  4.70768E-09  4.03237E-09  4.46576E-09
   4.08130E-09  4.93769E-09  4.96508E-09  5.45967E-09  4.80543E-09  5.43659E-09  4.79832E-09  5.22109E-09  4.96524E-09  5.17897E-09
   4.74717E-09  5.17920E-09  4.41587E-09  4.84875E-09  4.45692E-09  4.40409E-09  4.03969E-09  4.31380E-09  3.72979E-09  4.39122E-09
   3.28038E-09  3.82309E-09  3.58749E-09  3.43385E-09  2.50340E-09  2.72989E-09  4.14055E-09  7.78910E-09  9.43359E-09  9.98999E-09
   9.62169E-09  9.95470E-09  9.48618E-09  9.84932E-09  9.57034E-09  9.18659E-09  8.96562E-09  8.88025E-09  8.12898E-09  7.55619E-09
   6.86492E-09  6.27801E-09  4.61047E-09  3.95158E-09  2.46989E-09  1.74471E-09  6.38060E-10 -7.02381E-10 -1.65029E-09 -2.75389E-09
  -3.85565E-09 -4.32916E-09 -5.14515E-09 -5.37325E-09 -5.36969E-09 -5.49402E-09 -5.01475E-09 -4.62682E-09 -4.36069E-09 -3.67115E-09
  -3.00216E-09 -2.82471E-09 -2.47419E-09 -1.66725E-09 -2.00026E-09 -1.49343E-09 -1.34140E-09 -1.12623E-09 -1.34312E-09 -1.36790E-09
  -9.51511E-10 -1.17242E-09 -1.24447E-09 -8.79210E-10 -9.83600E-10 -9.93672E-10 -1.02737E-09 -1.01524E-09 -7.54622E-10 -1.04486E-09
  -6.06699E-10 -7.14815E-10 -4.71849E-10 -1.13375E-09 -8.22283E-10 -8.66060E-10 -7.40007E-10 -8.09264E-10 -3.14141E-10 -4.89018E-10
  -1.07743E-09 -1.13960E-09 -7.02530E-10 -2.79457E-10 -5.55731E-10 -1.02177E-09 -6.01775E-10 -9.03573E-10 -6.06063E-10 -1.12086E-09
  -7.12229E-10 -9.16182E-10 -9.92361E-10 -1.24258E-09 -1.05144E-09 -1.13008E-09 -8.57856E-10 -1.07760E-09 -7.06414E-10 -6.74679E-10
  -4.29697E-10 -9.38574E-10 -4.46626E-10 -9.16322E-10 -4.72909E-10 -8.62049E-10 -3.94874E-10 -1.15644E-09 -4.29812E-10 -1.21881E-09
  -7.37633E-10 -1.34162E-09 -9.78521E-10 -1.53254E-09 -1.31100E-09 -1.79046E-09 -1.20680E-09 -1.77282E-09 -1.69846E-09 -1.83782E-09
  -8.27003E-10 -1.54796E-09 -8.19786E-10 -1.31192E-09 -8.05528E-10 -1.17204E-09 -5.13207E-10 -7.78751E-10 -1.85591E-10 -8.87809E-10
  -2.14143E-10 -5.03420E-10 -2.75268E-10 -9.46364E-10 -1.94733E-10 -3.44233E-10 -2.94944E-10 -8.23622E-10 -1.89601E-10 -7.13083E-10
  -4.44347E-10 -5.32811E-10 -3.22024E-10 -9.61803E-10  1.18823E-10 -8.85162E-10 -4.07599E-10 -8.20485E-10 -4.64593E-10 -8.72233E-10
  -1.49502E-10 -7.77884E-10 -1.78467E-10 -8.13365E-10 -3.88724E-10 -8.36519E-10 -2.97178E-10 -1.05662E-09 -4.57968E-10 -7.40143E-10
  -3.82124E-10 -1.02063E-09 -5.18432E-10 -7.85611E-10 -4.69704E-10 -7.56847E-10 -7.81730E-10 -1.15596E-09 -5.90838E-10 -1.24484E-09
  -2.74598E-10 -1.08075E-09 -4.40119E-10 -7.67722E-10 -8.81060E-10 -7.73600E-10 -6.12355E-10 -1.09705E-09 -5.28883E-10 -9.22016E-10
  -1.30840E-10 -9.49129E-10 -1.53128E-10 -1.26356E-09 -4.20409E-10 -1.05463E-09 -7.27357E-10 -8.20741E-10 -4.65413E-10 -7.86642E-10
  -5.64986E-10 -1.22098E-09 -4.84668E-10 -1.18689E-09 -4.95739E-10 -1.12301E-09 -5.23511E-10 -8.91547E-10 -6.17066E-10 -7.45663E-10
  -6.64747E-10 -1.39467E-09 -4.50047E-10 -9.99530E-10 -5.94313E-10 -1.32303E-09 -7.41161E-10 -1.27330E-09 -6.82856E-10 -1.03565E-09
  -4.98033E-10 -4.75210E-10 -8.96064E-10
 NY points of the fit to the data follow
   4.01839E-09  3.97743E-09  3.83988E-09  3.71467E-09  3.71316E-09  4.03606E-09  4.28801E-09  4.34426E-09  4.57218E-09  4.76773E-09
   4.74670E-09  4.75373E-09  4.62630E-09  4.60680E-09  4.57562E-09  4.35753E-09  4.15824E-09  4.32150E-09  4.40305E-09  3.96892E-09
   3.66181E-09  3.82511E-09  4.19081E-09  4.55114E-09  4.93693E-09  5.41019E-09  5.80129E-09  5.81400E-09  5.39225E-09  4.92068E-09
   4.78263E-09  4.59977E-09  4.32423E-09  4.11077E-09  3.95898E-09  3.69539E-09  3.47013E-09  3.39974E-09  3.45627E-09  3.48836E-09
   3.46932E-09  3.37006E-09  3.17407E-09  3.02063E-09  2.95075E-09  2.90015E-09  2.87690E-09  2.72349E-09  2.70856E-09  2.82664E-09
   3.03509E-09  3.26625E-09  3.43690E-09  3.59119E-09  3.89555E-09  4.23191E-09  4.46770E-09  4.85633E-09  5.22220E-09  5.33088E-09
   5.35096E-09  5.35508E-09  5.36210E-09  5.28455E-09  5.00245E-09  4.67758E-09  4.49708E-09  4.29020E-09  3.96627E-09  3.90684E-09
   4.07993E-09  4.32344E-09  4.64241E-09  4.96844E-09  5.37210E-09  5.95258E-09  6.68476E-09  7.29825E-09  7.62196E-09  7.67987E-09
   7.55440E-09  7.29728E-09  6.99122E-09  6.78441E-09  6.52102E-09  5.92015E-09  5.14318E-09  4.50794E-09  4.19252E-09  4.01438E-09
   3.89533E-09  3.82200E-09  3.77383E-09  3.72299E-09  3.67246E-09  3.65136E-09  3.62580E-09  3.59608E-09  3.58164E-09  3.56510E-09
   3.55938E-09  3.56411E-09  3.56791E-09  3.57247E-09  3.58091E-09  3.59190E-09  3.60430E-09  3.61754E-09  3.63097E-09  3.64447E-09
   3.65780E-09  3.67076E-09  3.68318E-09  3.69491E-09  3.70584E-09  3.71586E-09  3.72486E-09  3.73275E-09  3.73943E-09  3.74483E-09
   3.74887E-09  3.75149E-09  3.75262E-09  3.75219E-09  3.75014E-09  3.74641E-09  3.74094E-09  3.73369E-09  3.72459E-09  3.71359E-09
   3.70064E-09  3.68570E-09  3.66871E-09  3.64962E-09  3.62840E-09  3.60499E-09  3.57936E-09  3.55149E-09  3.52145E-09  3.48930E-09
   3.45512E-09  3.41900E-09  3.38099E-09  3.34119E-09  3.29967E-09  3.25654E-09  3.21188E-09  3.16579E-09  3.11840E-09  3.06982E-09
   3.02020E-09  2.96970E-09  2.91850E-09  2.86685E-09  2.81502E-09  2.76337E-09  2.71240E-09  2.66274E-09  2.61532E-09  2.57150E-09
   2.53344E-09  2.50464E-09  2.49149E-09  2.50661E-09  2.57929E-09  2.79501E-09  3.52329E-09  6.18918E-09  8.83125E-09  1.02285E-08
   1.05066E-08  1.02912E-08  1.00442E-08  9.99244E-09  1.01104E-08  1.00777E-08  9.15279E-09  6.59493E-09  3.15997E-09  1.98107E-09
   1.54942E-09  1.31023E-09  1.14517E-09  1.01609E-09  9.07167E-10  8.10714E-10  7.22590E-10  6.40355E-10  5.62525E-10  4.88116E-10
   4.16492E-10  3.47185E-10  2.79905E-10  2.14406E-10  1.50534E-10  8.81671E-11  2.72266E-11 -3.23552E-11 -9.06178E-11 -1.47597E-10
  -2.03307E-10 -2.57759E-10 -3.10962E-10 -3.62909E-10 -4.13599E-10 -4.63031E-10 -5.11187E-10 -5.58055E-10 -6.03622E-10 -6.47869E-10
  -6.90777E-10 -7.32329E-10 -7.72513E-10 -8.11307E-10 -8.48674E-10 -8.84605E-10 -9.19077E-10 -9.52070E-10 -9.83555E-10 -1.01350E-09
  -1.04191E-09 -1.06874E-09 -1.09395E-09 -1.11756E-09 -1.13952E-09 -1.15978E-09 -1.17837E-09 -1.19524E-09 -1.21040E-09 -1.22393E-09
  -1.23585E-09 -1.24623E-09 -1.25510E-09 -1.26252E-09 -1.26853E-09 -1.27319E-09 -1.27653E-09 -1.27861E-09 -1.27947E-09 -1.27916E-09
  -1.27773E-09 -1.27522E-09 -1.27169E-09 -1.26718E-09 -1.26173E-09 -1.25540E-09 -1.24823E-09 -1.24027E-09 -1.23157E-09 -1.22217E-09
  -1.21211E-09 -1.20146E-09 -1.19025E-09 -1.17854E-09 -1.16636E-09 -1.15377E-09 -1.14081E-09 -1.12753E-09 -1.11398E-09 -1.10020E-09
  -1.08625E-09 -1.07216E-09 -1.05799E-09 -1.04379E-09 -1.02959E-09 -1.01545E-09 -1.00141E-09 -9.87521E-10 -9.73831E-10 -9.60386E-10
  -9.47235E-10 -9.34420E-10 -9.21993E-10 -9.09968E-10 -8.98345E-10 -8.87115E-10 -8.76278E-10 -8.65824E-10 -8.55746E-10 -8.46039E-10
  -8.36704E-10 -8.27723E-10 -8.19102E-10 -8.10829E-10 -8.02901E-10 -7.95307E-10 -7.88048E-10 -7.81114E-10 -7.74500E-10 -7.68203E-10
  -7.62213E-10 -7.56526E-10 -7.51138E-10 -7.46044E-10 -7.41233E-10 -7.36702E-10 -7.32447E-10 -7.28463E-10 -7.24740E-10 -7.21275E-10
  -7.18062E-10 -7.15093E-10 -7.12364E-10 -7.09871E-10 -7.07605E-10 -7.05566E-10 -7.03737E-10 -7.02126E-10 -7.00714E-10 -6.99510E-10
  -6.98497E-10 -6.97668E-10 -6.97020E-10 -6.96561E-10 -6.96265E-10 -6.96131E-10 -6.96165E-10 -6.96338E-10 -6.96670E-10 -6.97146E-10
  -6.97763E-10 -6.98516E-10 -6.99401E-10 -7.00414E-10 -7.01553E-10 -7.02810E-10 -7.04186E-10 -7.05672E-10 -7.07268E-10 -7.08968E-10
  -7.10767E-10 -7.12662E-10 -7.14652E-10 -7.16728E-10 -7.18889E-10 -7.21129E-10 -7.23447E-10 -7.25836E-10 -7.28293E-10 -7.30816E-10
  -7.33397E-10 -7.36035E-10 -7.38725E-10 -7.41461E-10 -7.44242E-10 -7.47066E-10 -7.49924E-10 -7.52813E-10 -7.55733E-10 -7.58674E-10
  -7.61635E-10 -7.64614E-10 -7.67604E-10 -7.70603E-10 -7.73604E-10 -7.76605E-10 -7.79600E-10 -7.82593E-10 -7.85567E-10 -7.88530E-10
  -7.91469E-10 -7.94385E-10 -7.97268E-10
 NY background values follow
    -2.143E-09   -2.086E-09   -2.029E-09   -1.971E-09   -1.914E-09   -1.857E-09   -1.800E-09   -1.743E-09   -1.686E-09   -1.629E-09
    -1.572E-09   -1.515E-09   -1.458E-09   -1.401E-09   -1.344E-09   -1.287E-09   -1.230E-09   -1.174E-09   -1.117E-09   -1.060E-09
    -1.004E-09   -9.476E-10   -8.913E-10   -8.352E-10   -7.791E-10   -7.232E-10   -6.674E-10   -6.117E-10   -5.562E-10   -5.008E-10
    -4.455E-10   -3.904E-10   -3.354E-10   -2.806E-10   -2.260E-10   -1.716E-10   -1.173E-10   -6.324E-11   -9.366E-12    4.431E-11
     9.780E-11    1.511E-10    2.041E-10    2.569E-10    3.095E-10    3.619E-10    4.140E-10    4.658E-10    5.175E-10    5.688E-10
     6.200E-10    6.708E-10    7.214E-10    7.717E-10    8.218E-10    8.716E-10    9.211E-10    9.704E-10    1.019E-09    1.068E-09
     1.116E-09    1.165E-09    1.212E-09    1.260E-09    1.307E-09    1.354E-09    1.401E-09    1.447E-09    1.493E-09    1.539E-09
     1.584E-09    1.629E-09    1.674E-09    1.718E-09    1.762E-09    1.806E-09    1.849E-09    1.892E-09    1.935E-09    1.977E-09
     2.019E-09    2.061E-09    2.102E-09    2.143E-09    2.184E-09    2.224E-09    2.263E-09    2.303E-09    2.342E-09    2.381E-09
     2.419E-09    2.457E-09    2.494E-09    2.531E-09    2.568E-09    2.604E-09    2.639E-09    2.674E-09    2.708E-09    2.742E-09
     2.774E-09    2.806E-09    2.837E-09    2.867E-09    2.896E-09    2.924E-09    2.951E-09    2.977E-09    3.002E-09    3.026E-09
     3.049E-09    3.070E-09    3.090E-09    3.108E-09    3.126E-09    3.141E-09    3.156E-09    3.169E-09    3.180E-09    3.189E-09
     3.197E-09    3.204E-09    3.208E-09    3.211E-09    3.212E-09    3.211E-09    3.208E-09    3.203E-09    3.196E-09    3.187E-09
     3.176E-09    3.163E-09    3.147E-09    3.130E-09    3.110E-09    3.088E-09    3.063E-09    3.036E-09    3.007E-09    2.975E-09
     2.942E-09    2.906E-09    2.868E-09    2.828E-09    2.786E-09    2.742E-09    2.697E-09    2.649E-09    2.601E-09    2.550E-09
     2.498E-09    2.444E-09    2.389E-09    2.333E-09    2.275E-09    2.217E-09    2.157E-09    2.096E-09    2.034E-09    1.970E-09
     1.907E-09    1.842E-09    1.776E-09    1.710E-09    1.643E-09    1.576E-09    1.508E-09    1.439E-09    1.371E-09    1.301E-09
     1.232E-09    1.163E-09    1.093E-09    1.023E-09    9.536E-10    8.840E-10    8.146E-10    7.453E-10    6.764E-10    6.077E-10
     5.395E-10    4.717E-10    4.045E-10    3.378E-10    2.717E-10    2.062E-10    1.414E-10    7.721E-11    1.371E-11   -4.908E-11
    -1.111E-10   -1.724E-10   -2.329E-10   -2.926E-10   -3.514E-10   -4.093E-10   -4.664E-10   -5.225E-10   -5.777E-10   -6.319E-10
    -6.851E-10   -7.373E-10   -7.885E-10   -8.385E-10   -8.875E-10   -9.353E-10   -9.819E-10   -1.027E-09   -1.072E-09   -1.115E-09
    -1.156E-09   -1.197E-09   -1.236E-09   -1.274E-09   -1.310E-09   -1.345E-09   -1.379E-09   -1.411E-09   -1.442E-09   -1.471E-09
    -1.499E-09   -1.525E-09   -1.550E-09   -1.573E-09   -1.594E-09   -1.614E-09   -1.632E-09   -1.648E-09   -1.663E-09   -1.676E-09
    -1.687E-09   -1.697E-09   -1.705E-09   -1.712E-09   -1.718E-09   -1.722E-09   -1.725E-09   -1.727E-09   -1.727E-09   -1.727E-09
    -1.725E-09   -1.722E-09   -1.718E-09   -1.713E-09   -1.707E-09   -1.701E-09   -1.693E-09   -1.685E-09   -1.676E-09   -1.666E-09
    -1.656E-09   -1.645E-09   -1.633E-09   -1.621E-09   -1.609E-09   -1.596E-09   -1.583E-09   -1.569E-09   -1.555E-09   -1.541E-09
    -1.527E-09   -1.512E-09   -1.498E-09   -1.484E-09   -1.469E-09   -1.455E-09   -1.440E-09   -1.426E-09   -1.412E-09   -1.399E-09
    -1.385E-09   -1.372E-09   -1.359E-09   -1.347E-09   -1.335E-09   -1.324E-09   -1.313E-09   -1.302E-09   -1.292E-09   -1.282E-09
    -1.272E-09   -1.263E-09   -1.254E-09   -1.246E-09   -1.237E-09   -1.230E-09   -1.222E-09   -1.215E-09   -1.208E-09   -1.202E-09
    -1.195E-09   -1.189E-09   -1.184E-09   -1.179E-09   -1.174E-09   -1.169E-09   -1.164E-09   -1.160E-09   -1.156E-09   -1.152E-09
    -1.149E-09   -1.146E-09   -1.143E-09   -1.140E-09   -1.138E-09   -1.135E-09   -1.133E-09   -1.132E-09   -1.130E-09   -1.129E-09
    -1.127E-09   -1.126E-09   -1.125E-09   -1.125E-09   -1.124E-09   -1.124E-09   -1.124E-09   -1.124E-09   -1.124E-09   -1.124E-09
    -1.124E-09   -1.125E-09   -1.126E-09   -1.126E-09   -1.127E-09   -1.128E-09   -1.130E-09   -1.131E-09   -1.132E-09   -1.134E-09
    -1.135E-09   -1.137E-09   -1.139E-09   -1.141E-09   -1.143E-09   -1.145E-09   -1.147E-09   -1.149E-09   -1.151E-09   -1.153E-09
    -1.156E-09   -1.158E-09   -1.161E-09   -1.163E-09   -1.166E-09   -1.168E-09   -1.171E-09   -1.174E-09   -1.176E-09   -1.179E-09
    -1.182E-09   -1.185E-09   -1.187E-09   -1.190E-09   -1.193E-09   -1.196E-09   -1.198E-09   -1.201E-09   -1.204E-09   -1.207E-09
    -1.209E-09   -1.212E-09   -1.215E-09
 Asp      Conc. = 5.04E-10
  -1.58743E-09 -1.60906E-09 -1.61298E-09 -1.61907E-09 -1.60885E-09 -1.62129E-09 -1.62872E-09 -1.63067E-09 -1.60092E-09 -1.55932E-09
  -1.51218E-09 -1.46183E-09 -1.40920E-09 -1.35484E-09 -1.29992E-09 -1.24467E-09 -1.18909E-09 -1.13320E-09 -1.07708E-09 -1.02076E-09
  -9.64276E-10 -9.07639E-10 -8.50849E-10 -7.93913E-10 -7.36816E-10 -6.79521E-10 -6.21992E-10 -5.64165E-10 -5.05957E-10 -4.47217E-10
  -3.87756E-10 -3.27270E-10 -2.65248E-10 -2.00822E-10 -1.32241E-10 -5.53274E-11  4.08688E-11  1.34772E-10  2.32054E-10  3.07062E-10
   3.61149E-10  4.12804E-10  4.93153E-10  6.28678E-10  8.01637E-10  1.00850E-09  1.13249E-09  1.16393E-09  1.22622E-09  1.31444E-09
   1.42911E-09  1.53442E-09  1.59619E-09  1.57226E-09  1.47384E-09  1.38210E-09  1.33629E-09  1.39790E-09  1.42041E-09  1.37935E-09
   1.37669E-09  1.39011E-09  1.40310E-09  1.44467E-09  1.50040E-09  1.53427E-09  1.54045E-09  1.56286E-09  1.59330E-09  1.62784E-09
   1.66474E-09  1.70311E-09  1.74241E-09  1.78231E-09  1.82259E-09  1.86308E-09  1.90368E-09  1.94429E-09  1.98486E-09  2.02532E-09
   2.06564E-09  2.10578E-09  2.14571E-09  2.18541E-09  2.22486E-09  2.26404E-09  2.30294E-09  2.34154E-09  2.37983E-09  2.41780E-09
   2.45544E-09  2.49274E-09  2.52968E-09  2.56620E-09  2.60225E-09  2.63780E-09  2.67279E-09  2.70717E-09  2.74090E-09  2.77393E-09
   2.80621E-09  2.83770E-09  2.86836E-09  2.89813E-09  2.92698E-09  2.95485E-09  2.98170E-09  3.00748E-09  3.03216E-09  3.05568E-09
   3.07799E-09  3.09907E-09  3.11885E-09  3.13729E-09  3.15436E-09  3.17000E-09  3.18417E-09  3.19682E-09  3.20791E-09  3.21740E-09
   3.22524E-09  3.23138E-09  3.23579E-09  3.23841E-09  3.23920E-09  3.23812E-09  3.23512E-09  3.23016E-09  3.22319E-09  3.21417E-09
   3.20306E-09  3.18981E-09  3.17437E-09  3.15670E-09  3.13677E-09  3.11451E-09  3.08990E-09  3.06291E-09  3.03361E-09  3.00207E-09
   2.96835E-09  2.93251E-09  2.89462E-09  2.85475E-09  2.81297E-09  2.76934E-09  2.72393E-09  2.67681E-09  2.62804E-09  2.57771E-09
   2.52587E-09  2.47261E-09  2.41801E-09  2.36213E-09  2.30507E-09  2.24693E-09  2.18780E-09  2.12781E-09  2.06712E-09  2.00591E-09
   1.94446E-09  1.88319E-09  1.82281E-09  1.76472E-09  1.71211E-09  1.67454E-09  1.69507E-09  1.91506E-09  2.11754E-09  2.18852E-09
   2.14869E-09  2.06306E-09  1.97690E-09  1.91158E-09  1.86268E-09  1.79506E-09  1.63076E-09  1.29800E-09  8.89467E-10  7.22924E-10
   6.20565E-10  5.36112E-10  4.59129E-10  3.86130E-10  3.15641E-10  2.46942E-10  1.79662E-10  1.13568E-10  4.85500E-11 -1.54786E-11
  -7.85475E-11 -1.40696E-10 -2.01912E-10 -2.62213E-10 -3.21585E-10 -3.80021E-10 -4.37499E-10 -4.94009E-10 -5.49529E-10 -6.04044E-10
  -6.57526E-10 -7.09954E-10 -7.61310E-10 -8.11563E-10 -8.60694E-10 -9.08683E-10 -9.55501E-10 -1.00112E-09 -1.04553E-09 -1.08868E-09
  -1.13057E-09 -1.17115E-09 -1.21042E-09 -1.24835E-09 -1.28490E-09 -1.32005E-09 -1.35378E-09 -1.38607E-09 -1.41687E-09 -1.44617E-09
  -1.47396E-09 -1.50018E-09 -1.52482E-09 -1.54787E-09 -1.56930E-09 -1.58904E-09 -1.60713E-09 -1.62351E-09 -1.63820E-09 -1.65127E-09
  -1.66275E-09 -1.67269E-09 -1.68115E-09 -1.68815E-09 -1.69377E-09 -1.69803E-09 -1.70099E-09 -1.70269E-09 -1.70319E-09 -1.70252E-09
  -1.70074E-09 -1.69789E-09 -1.69402E-09 -1.68918E-09 -1.68341E-09 -1.67676E-09 -1.66927E-09 -1.66100E-09 -1.65200E-09 -1.64230E-09
  -1.63195E-09 -1.62101E-09 -1.60951E-09 -1.59751E-09 -1.58506E-09 -1.57219E-09 -1.55896E-09 -1.54541E-09 -1.53160E-09 -1.51756E-09
  -1.50335E-09 -1.48900E-09 -1.47458E-09 -1.46012E-09 -1.44567E-09 -1.43128E-09 -1.41700E-09 -1.40288E-09 -1.38895E-09 -1.37526E-09
  -1.36188E-09 -1.34883E-09 -1.33617E-09 -1.32391E-09 -1.31206E-09 -1.30060E-09 -1.28954E-09 -1.27887E-09 -1.26856E-09 -1.25864E-09
  -1.24908E-09 -1.23988E-09 -1.23104E-09 -1.22256E-09 -1.21441E-09 -1.20660E-09 -1.19913E-09 -1.19199E-09 -1.18516E-09 -1.17866E-09
  -1.17246E-09 -1.16656E-09 -1.16097E-09 -1.15567E-09 -1.15065E-09 -1.14591E-09 -1.14145E-09 -1.13726E-09 -1.13334E-09 -1.12967E-09
  -1.12625E-09 -1.12308E-09 -1.12015E-09 -1.11746E-09 -1.11499E-09 -1.11275E-09 -1.11072E-09 -1.10891E-09 -1.10730E-09 -1.10590E-09
  -1.10469E-09 -1.10366E-09 -1.10281E-09 -1.10216E-09 -1.10166E-09 -1.10133E-09 -1.10116E-09 -1.10114E-09 -1.10127E-09 -1.10155E-09
  -1.10197E-09 -1.10253E-09 -1.10321E-09 -1.10403E-09 -1.10497E-09 -1.10603E-09 -1.10721E-09 -1.10849E-09 -1.10989E-09 -1.11139E-09
  -1.11299E-09 -1.11469E-09 -1.11648E-09 -1.11835E-09 -1.12031E-09 -1.12235E-09 -1.12447E-09 -1.12666E-09 -1.12892E-09 -1.13124E-09
  -1.13361E-09 -1.13605E-09 -1.13854E-09 -1.14107E-09 -1.14365E-09 -1.14627E-09 -1.14892E-09 -1.15160E-09 -1.15431E-09 -1.15705E-09
  -1.15980E-09 -1.16257E-09 -1.16535E-09 -1.16814E-09 -1.17093E-09 -1.17372E-09 -1.17650E-09 -1.17928E-09 -1.18205E-09 -1.18479E-09
  -1.18752E-09 -1.19022E-09 -1.19288E-09
 GABA     Conc. = 1.26E-10
  -2.13117E-09 -2.07395E-09 -2.01669E-09 -1.95942E-09 -1.90211E-09 -1.84479E-09 -1.78745E-09 -1.73011E-09 -1.67276E-09 -1.61540E-09
  -1.55803E-09 -1.50066E-09 -1.44330E-09 -1.38593E-09 -1.32854E-09 -1.27115E-09 -1.21375E-09 -1.15630E-09 -1.09880E-09 -1.04123E-09
  -9.83553E-10 -9.25694E-10 -8.67568E-10 -8.09049E-10 -7.49922E-10 -6.89828E-10 -6.28060E-10 -5.63142E-10 -4.91153E-10 -4.01356E-10
  -3.20756E-10 -2.50541E-10 -1.51209E-10 -5.14143E-11  2.36719E-11  9.89262E-11  1.73518E-10  2.37484E-10  2.84320E-10  3.14631E-10
   3.41762E-10  3.84290E-10  3.99036E-10  3.93314E-10  4.28552E-10  4.65555E-10  4.83136E-10  5.16757E-10  5.59343E-10  6.05597E-10
   6.53717E-10  7.02883E-10  7.52710E-10  8.03046E-10  8.53828E-10  9.05054E-10  9.56862E-10  1.00952E-09  1.06357E-09  1.12010E-09
   1.18160E-09  1.25554E-09  1.34019E-09  1.40991E-09  1.48323E-09  1.57275E-09  1.64559E-09  1.70105E-09  1.75447E-09  1.80403E-09
   1.84304E-09  1.86650E-09  1.87816E-09  1.89569E-09  1.91842E-09  1.91402E-09  1.92154E-09  1.96111E-09  1.99098E-09  2.02231E-09
   2.07067E-09  2.11474E-09  2.16121E-09  2.22704E-09  2.28700E-09  2.33800E-09  2.39829E-09  2.45831E-09  2.51146E-09  2.55813E-09
   2.59591E-09  2.63487E-09  2.67580E-09  2.69398E-09  2.70718E-09  2.74028E-09  2.75848E-09  2.76667E-09  2.78978E-09  2.81283E-09
   2.83299E-09  2.85624E-09  2.88109E-09  2.90657E-09  2.93209E-09  2.95731E-09  2.98199E-09  3.00599E-09  3.02918E-09  3.05146E-09
   3.07273E-09  3.09288E-09  3.11186E-09  3.12959E-09  3.14603E-09  3.16113E-09  3.17483E-09  3.18705E-09  3.19776E-09  3.20690E-09
   3.21442E-09  3.22028E-09  3.22443E-09  3.22681E-09  3.22739E-09  3.22610E-09  3.22292E-09  3.21778E-09  3.21066E-09  3.20148E-09
   3.19023E-09  3.17684E-09  3.16127E-09  3.14348E-09  3.12342E-09  3.10104E-09  3.07631E-09  3.04921E-09  3.01980E-09  2.98814E-09
   2.95429E-09  2.91833E-09  2.88032E-09  2.84032E-09  2.79839E-09  2.75460E-09  2.70903E-09  2.66172E-09  2.61275E-09  2.56218E-09
   2.51009E-09  2.45653E-09  2.40158E-09  2.34530E-09  2.28776E-09  2.22904E-09  2.16920E-09  2.10834E-09  2.04652E-09  1.98386E-09
   1.92047E-09  1.85650E-09  1.79217E-09  1.72790E-09  1.66458E-09  1.60479E-09  1.56059E-09  1.56480E-09  1.56244E-09  1.52684E-09
   1.46414E-09  1.39055E-09  1.31710E-09  1.24889E-09  1.18453E-09  1.11488E-09  1.02030E-09  8.84019E-10  7.32141E-10  6.40787E-10
   5.64339E-10  4.92463E-10  4.22780E-10  3.54493E-10  2.87263E-10  2.20936E-10  1.55445E-10  9.07424E-11  2.68316E-11 -3.62991E-11
  -9.86276E-11 -1.60158E-10 -2.20850E-10 -2.80703E-10 -3.39689E-10 -3.97789E-10 -4.54973E-10 -5.11224E-10 -5.66513E-10 -6.20822E-10
  -6.74119E-10 -7.26381E-10 -7.77586E-10 -8.27702E-10 -8.76708E-10 -9.24583E-10 -9.71296E-10 -1.01682E-09 -1.06114E-09 -1.10421E-09
  -1.14601E-09 -1.18653E-09 -1.22573E-09 -1.26360E-09 -1.30009E-09 -1.33519E-09 -1.36886E-09 -1.40110E-09 -1.43186E-09 -1.46111E-09
  -1.48886E-09 -1.51504E-09 -1.53964E-09 -1.56266E-09 -1.58405E-09 -1.60376E-09 -1.62181E-09 -1.63816E-09 -1.65283E-09 -1.66587E-09
  -1.67732E-09 -1.68724E-09 -1.69567E-09 -1.70265E-09 -1.70824E-09 -1.71248E-09 -1.71542E-09 -1.71710E-09 -1.71758E-09 -1.71689E-09
