 LCModel (Version 6.3-1R) Copyright: S.W. Provencher.          Ref.: Magn. Reson. Med. 30:672-679 (1993).                
 onepulse 29x16_ftSpec_smooth_lcm
 26 lines in following concentration table = NCONC+1
    Conc.  %SD /Cr+PCr  Metabolite                                         
    0.000 999%   0.000 Ala                                                 
    0.000 999%   0.000 Asp                                                 
    0.000 999%   0.000 Cr                                                  
    0.000 999%   0.000 GABA                                                
 2.53E-10 879%   1.405 Glc                                                 
 1.59E-09  51%   8.802 Gln                                                 
    0.000 999%   0.000 Glu                                                 
    0.000 999%   0.000 Glyc                                                
 1.13E-10 429%   0.628 GPC                                                 
 2.63E-11 999%   0.146 GSH                                                 
 1.48E-09  43%   8.232 Ins                                                 
    0.000 999%   0.000 Lac                                                 
 3.37E-10 112%   1.868 NAAG                                                
 2.04E-10 256%   1.134 NAA                                                 
    0.000 999%   0.000 PCh                                                 
 1.80E-10 208%   1.000 PCr                                                 
 4.64E-10 999%   2.576 PE                                                  
 1.46E-10 232%   0.812 Scyllo                                              
 4.16E-09  84%  23.097 Ser                                                 
 2.02E-10 999%   1.121 Tau                                                 
 1.13E-10 429%   0.628 GPC+PCh                                             
 5.41E-10  60%   3.002 NAA+NAAG                                            
 1.48E-09  43%   8.232 Ins+Glyc                                            
 1.80E-10 208%   1.000 Cr+PCr                                              
 1.59E-09  51%   8.802 Glu+Gln                                             
   6 lines in following misc. output table
  FWHM = 0.112 ppm    S/N =   2                                            
  Data shift = 0.391 ppm                                                   
  Ph: -43 deg     -40.1 deg/ppm                                            
  alphaB,S = 7.6E-01,   2.8E+01                                            
    8 spline knots.   Ns = 5(1)                                            
  (10) 4 infls.   ( 5) 1 extrs.                                            
  363 points on ppm-axis = NY
      4.250000     4.238821     4.227641     4.216462     4.205282     4.194103     4.182923     4.171744     4.160564     4.149385
      4.138206     4.127026     4.115847     4.104667     4.093488     4.082308     4.071129     4.059949     4.048770     4.037591
      4.026411     4.015232     4.004052     3.992873     3.981693     3.970514     3.959334     3.948155     3.936975     3.925796
      3.914617     3.903437     3.892258     3.881078     3.869899     3.858719     3.847540     3.836360     3.825181     3.814002
      3.802822     3.791643     3.780463     3.769284     3.758104     3.746925     3.735745     3.724566     3.713387     3.702207
      3.691028     3.679848     3.668669     3.657489     3.646310     3.635130     3.623951     3.612772     3.601592     3.590413
      3.579233     3.568054     3.556874     3.545695     3.534515     3.523336     3.512156     3.500977     3.489798     3.478618
      3.467439     3.456259     3.445080     3.433900     3.422721     3.411541     3.400362     3.389183     3.378003     3.366824
      3.355644     3.344465     3.333285     3.322106     3.310926     3.299747     3.288568     3.277388     3.266209     3.255029
      3.243850     3.232670     3.221491     3.210311     3.199132     3.187953     3.176773     3.165594     3.154414     3.143235
      3.132055     3.120876     3.109696     3.098517     3.087337     3.076158     3.064979     3.053799     3.042620     3.031440
      3.020261     3.009081     2.997902     2.986722     2.975543     2.964364     2.953184     2.942005     2.930825     2.919646
      2.908466     2.897287     2.886107     2.874928     2.863749     2.852569     2.841390     2.830210     2.819031     2.807851
      2.796672     2.785492     2.774313     2.763134     2.751954     2.740775     2.729595     2.718416     2.707236     2.696057
      2.684877     2.673698     2.662519     2.651339     2.640160     2.628980     2.617801     2.606621     2.595442     2.584262
      2.573083     2.561903     2.550724     2.539545     2.528365     2.517186     2.506006     2.494827     2.483647     2.472468
      2.461288     2.450109     2.438930     2.427750     2.416571     2.405391     2.394212     2.383032     2.371853     2.360673
      2.349494     2.338315     2.327135     2.315956     2.304776     2.293597     2.282417     2.271238     2.260058     2.248879
      2.237700     2.226520     2.215341     2.204161     2.192982     2.181802     2.170623     2.159443     2.148264     2.137084
      2.125905     2.114726     2.103546     2.092367     2.081187     2.070008     2.058828     2.047649     2.036469     2.025290
      2.014111     2.002931     1.991752     1.980572     1.969393     1.958213     1.947034     1.935854     1.924675     1.913496
      1.902316     1.891137     1.879957     1.868778     1.857598     1.846419     1.835239     1.824060     1.812881     1.801701
      1.790522     1.779342     1.768163     1.756983     1.745804     1.734624     1.723445     1.712265     1.701086     1.689907
      1.678727     1.667548     1.656368     1.645189     1.634009     1.622830     1.611650     1.600471     1.589292     1.578112
      1.566933     1.555753     1.544574     1.533394     1.522215     1.511035     1.499856     1.488677     1.477497     1.466318
      1.455138     1.443959     1.432779     1.421600     1.410420     1.399241     1.388062     1.376882     1.365703     1.354523
      1.343344     1.332164     1.320985     1.309805     1.298626     1.287446     1.276267     1.265088     1.253908     1.242729
      1.231549     1.220370     1.209190     1.198011     1.186831     1.175652     1.164473     1.153293     1.142114     1.130934
      1.119755     1.108575     1.097396     1.086216     1.075037     1.063858     1.052678     1.041499     1.030319     1.019140
      1.007960     0.996781     0.985601     0.974422     0.963243     0.952063     0.940884     0.929704     0.918525     0.907345
      0.896166     0.884986     0.873807     0.862628     0.851448     0.840269     0.829089     0.817910     0.806730     0.795551
      0.784371     0.773192     0.762012     0.750833     0.739654     0.728474     0.717295     0.706115     0.694936     0.683756
      0.672577     0.661397     0.650218     0.639039     0.627859     0.616680     0.605500     0.594321     0.583141     0.571962
      0.560782     0.549603     0.538424     0.527244     0.516065     0.504885     0.493706     0.482526     0.471347     0.460167
      0.448988     0.437809     0.426629     0.415450     0.404270     0.393091     0.381911     0.370732     0.359552     0.348373
      0.337193     0.326014     0.314835     0.303655     0.292476     0.281296     0.270117     0.258937     0.247758     0.236578
      0.225399     0.214220     0.203040
 NY phased data points follow
   1.47082E-08  1.22295E-08  1.37194E-08  1.13289E-08  1.25395E-08  1.04492E-08  1.21035E-08  9.86976E-09  1.17716E-08  9.92576E-09
   1.24151E-08  1.05054E-08  1.28346E-08  1.09558E-08  1.23351E-08  1.04683E-08  1.27167E-08  1.05729E-08  1.13805E-08  9.82274E-09
   1.11475E-08  9.69673E-09  1.18912E-08  1.01674E-08  1.15103E-08  9.61150E-09  1.16675E-08  9.55221E-09  1.20042E-08  1.11874E-08
   1.34219E-08  1.20380E-08  1.34267E-08  1.13060E-08  1.22126E-08  1.00567E-08  1.15822E-08  9.42186E-09  1.07052E-08  9.00898E-09
   1.01572E-08  8.27345E-09  9.31333E-09  7.72947E-09  9.12562E-09  7.80590E-09  8.40268E-09  6.77601E-09  7.84233E-09  6.25940E-09
   8.17956E-09  6.28251E-09  7.31027E-09  5.97602E-09  6.63655E-09  5.84981E-09  6.73761E-09  5.34936E-09  7.41433E-09  6.68828E-09
   9.27413E-09  9.49159E-09  1.07469E-08  1.00505E-08  1.04110E-08  8.68668E-09  8.82194E-09  7.76492E-09  8.11216E-09  6.55552E-09
   6.68600E-09  5.44613E-09  6.58371E-09  4.44924E-09  5.79437E-09  6.19352E-09  9.24420E-09  1.01072E-08  1.29600E-08  1.22237E-08
   1.33998E-08  1.24424E-08  1.33349E-08  1.16406E-08  1.22401E-08  1.08252E-08  1.18405E-08  1.12650E-08  1.15322E-08  1.03257E-08
   1.10172E-08  9.39871E-09  1.02430E-08  8.28084E-09  9.52450E-09  8.53655E-09  8.94156E-09  7.79262E-09  8.85514E-09  7.61020E-09
   9.04710E-09  7.20735E-09  7.97103E-09  7.34786E-09  7.70096E-09  6.40093E-09  6.80390E-09  5.52287E-09  5.62835E-09  5.35858E-09
   5.94327E-09  5.31258E-09  5.89096E-09  5.19003E-09  5.65164E-09  5.46890E-09  6.29468E-09  5.50016E-09  6.19763E-09  5.13503E-09
   6.07638E-09  4.86970E-09  4.49530E-09  3.53800E-09  4.07424E-09  4.03672E-09  4.89331E-09  3.48971E-09  4.19973E-09  4.04388E-09
   4.65481E-09  3.41264E-09  4.51886E-09  3.79829E-09  4.32846E-09  3.46728E-09  5.25640E-09  4.65338E-09  5.91396E-09  5.56143E-09
   6.38376E-09  5.84683E-09  6.81862E-09  6.70919E-09  7.95521E-09  6.86462E-09  7.89619E-09  7.47403E-09  8.35876E-09  6.93599E-09
   7.99096E-09  6.97742E-09  7.89681E-09  7.07082E-09  8.44295E-09  7.00833E-09  8.09629E-09  6.96132E-09  8.29251E-09  6.86351E-09
   8.07848E-09  7.04512E-09  7.61384E-09  6.87383E-09  7.97953E-09  7.57092E-09  1.01525E-08  1.19031E-08  1.46166E-08  1.67666E-08
   1.77752E-08  1.73280E-08  1.73703E-08  1.67344E-08  1.66818E-08  1.52973E-08  1.60061E-08  1.45804E-08  1.45469E-08  1.32501E-08
   1.34437E-08  1.19180E-08  1.17750E-08  1.00622E-08  9.98781E-09  7.83566E-09  7.07779E-09  5.43929E-09  4.10956E-09  1.77425E-09
   7.90821E-10 -2.96122E-09 -3.27242E-09 -5.99503E-09 -7.81146E-09 -1.03829E-08 -1.12372E-08 -1.32472E-08 -1.37444E-08 -1.47600E-08
  -1.45530E-08 -1.59839E-08 -1.41614E-08 -1.44199E-08 -1.24429E-08 -1.17477E-08 -9.92247E-09 -8.83936E-09 -7.29187E-09 -6.14966E-09
  -4.19053E-09 -4.35498E-09 -3.16510E-09 -3.40585E-09 -1.72202E-09 -3.06645E-09 -1.72060E-09 -3.12256E-09 -2.14323E-09 -2.37367E-09
  -1.73768E-09 -2.20686E-09 -1.64377E-09 -1.58977E-09 -1.47815E-09 -2.39073E-09 -1.29430E-09 -1.67834E-09 -1.27789E-09 -1.69228E-09
  -1.55980E-09 -1.84112E-09 -1.80902E-09 -1.69883E-09 -1.07655E-09 -9.99483E-10 -3.49268E-10 -1.67374E-09 -1.03363E-09 -1.70677E-09
  -1.48259E-09 -1.56672E-09 -1.02650E-09 -2.22434E-09 -6.64722E-10 -2.00216E-09 -3.57253E-10 -1.38901E-09 -8.57106E-10 -5.54897E-10
   5.64208E-11 -7.58742E-10 -6.33087E-10 -7.80890E-10 -3.99093E-10 -1.30346E-09 -9.18917E-10 -1.52216E-09 -1.18776E-09 -1.44531E-09
  -1.32312E-09 -1.93002E-09 -1.51232E-09 -1.95783E-09 -1.10660E-09 -1.62699E-09 -8.07552E-10 -1.47815E-09 -8.06335E-10 -9.07163E-10
  -6.05944E-10 -2.60968E-10 -1.65045E-10 -6.15706E-10  3.02983E-10 -2.56897E-10  5.17816E-10 -3.42088E-10  6.35107E-12 -6.41973E-10
  -5.06948E-10 -1.01053E-09 -7.49108E-10 -8.07304E-10 -6.66963E-10 -1.30484E-09 -5.49643E-10 -1.17033E-09 -7.81775E-10 -1.16207E-09
  -1.24258E-09 -1.14337E-09 -8.73227E-10 -1.57099E-09 -1.19346E-09 -1.48492E-09 -6.55419E-10 -1.64423E-09 -1.08535E-09 -1.77654E-09
  -1.66965E-09 -1.79424E-09 -1.42033E-09 -1.69530E-09 -1.28136E-09 -1.43788E-09 -1.40175E-09 -1.56456E-09 -1.19442E-09 -1.92559E-09
  -1.28847E-09 -1.73672E-09 -1.40854E-09 -1.67901E-09 -1.41889E-09 -1.55975E-09 -2.04356E-09 -2.06883E-09 -1.50122E-09 -1.75400E-09
  -1.65540E-09 -1.93990E-09 -1.44687E-09 -1.64941E-09 -1.80611E-09 -1.58840E-09 -1.60884E-09 -1.64339E-09 -1.51635E-09 -1.93826E-09
  -1.72143E-09 -1.56835E-09 -2.02298E-09 -2.20106E-09 -1.69443E-09 -1.65660E-09 -2.10669E-09 -1.73638E-09 -2.06749E-09 -2.15715E-09
  -2.13975E-09 -1.64065E-09 -1.70969E-09 -1.83806E-09 -1.74708E-09 -1.63060E-09 -1.68846E-09 -1.80997E-09 -1.92144E-09 -2.33678E-09
  -2.38362E-09 -2.03094E-09 -1.63784E-09 -1.59586E-09 -2.24071E-09 -1.71945E-09 -2.66242E-09 -2.21881E-09 -2.36835E-09 -2.19484E-09
  -1.67615E-09 -2.12849E-09 -1.68891E-09
 NY points of the fit to the data follow
   1.33447E-08  1.40962E-08  1.34996E-08  1.22954E-08  1.19811E-08  1.22500E-08  1.19670E-08  1.09667E-08  1.01704E-08  1.02106E-08
   1.05310E-08  1.08016E-08  1.10058E-08  1.12582E-08  1.16243E-08  1.17316E-08  1.16097E-08  1.18218E-08  1.20777E-08  1.14949E-08
   1.06572E-08  1.01372E-08  9.88404E-09  9.79725E-09  1.00859E-08  1.06644E-08  1.13831E-08  1.19475E-08  1.21216E-08  1.18973E-08
   1.19005E-08  1.19666E-08  1.21078E-08  1.21244E-08  1.17948E-08  1.11183E-08  1.04880E-08  9.95687E-09  9.57926E-09  9.33352E-09
   9.17714E-09  9.01551E-09  8.69739E-09  8.24760E-09  7.93739E-09  7.67685E-09  7.44703E-09  7.23635E-09  7.05099E-09  6.91355E-09
   6.79558E-09  6.69112E-09  6.57697E-09  6.44883E-09  6.46935E-09  6.74047E-09  6.97015E-09  7.31787E-09  7.87943E-09  8.38698E-09
   8.71770E-09  9.00523E-09  9.25323E-09  9.43867E-09  9.45767E-09  9.25183E-09  9.02027E-09  8.78920E-09  8.25839E-09  7.76532E-09
   7.49195E-09  7.42628E-09  7.47843E-09  7.51452E-09  7.65269E-09  7.99528E-09  8.75796E-09  9.87524E-09  1.10283E-08  1.19157E-08
   1.24891E-08  1.27505E-08  1.27331E-08  1.28306E-08  1.30041E-08  1.28256E-08  1.22684E-08  1.13374E-08  1.04352E-08  9.79901E-09
   9.37728E-09  9.06138E-09  8.81046E-09  8.60279E-09  8.41983E-09  8.25693E-09  8.11619E-09  7.99212E-09  7.87490E-09  7.75877E-09
   7.65557E-09  7.56714E-09  7.48321E-09  7.39969E-09  7.32161E-09  7.24854E-09  7.17946E-09  7.11369E-09  7.05038E-09  6.98917E-09
   6.92979E-09  6.87188E-09  6.81517E-09  6.75943E-09  6.70441E-09  6.64995E-09  6.59585E-09  6.54197E-09  6.48812E-09  6.43423E-09
   6.38011E-09  6.32568E-09  6.27083E-09  6.21545E-09  6.15946E-09  6.10274E-09  6.04522E-09  5.98684E-09  5.92750E-09  5.86713E-09
   5.80567E-09  5.74302E-09  5.67916E-09  5.61401E-09  5.54750E-09  5.47955E-09  5.41018E-09  5.33926E-09  5.26678E-09  5.19267E-09
   5.11689E-09  5.03941E-09  4.96018E-09  4.87915E-09  4.79630E-09  4.71159E-09  4.62504E-09  4.53670E-09  4.44665E-09  4.35501E-09
   4.26188E-09  4.16740E-09  4.07172E-09  3.97508E-09  3.87774E-09  3.78006E-09  3.68255E-09  3.58595E-09  3.49132E-09  3.40037E-09
   3.31583E-09  3.24255E-09  3.18958E-09  3.17596E-09  3.24816E-09  3.55064E-09  4.76094E-09  9.48162E-09  1.45339E-08  1.76472E-08
   1.86945E-08  1.85017E-08  1.79817E-08  1.77208E-08  1.78023E-08  1.76386E-08  1.59996E-08  1.16554E-08  5.77219E-09  3.41610E-09
   2.54802E-09  2.06605E-09  1.73484E-09  1.47829E-09  1.26443E-09  1.07750E-09  9.08816E-10  7.53250E-10  6.07495E-10  4.69436E-10
   3.37628E-10  2.11010E-10  8.88752E-11 -2.93181E-11 -1.43931E-10 -2.55277E-10 -3.63576E-10 -4.68943E-10 -5.71509E-10 -6.71371E-10
  -7.68567E-10 -8.63133E-10 -9.55078E-10 -1.04442E-09 -1.13116E-09 -1.21525E-09 -1.29671E-09 -1.37550E-09 -1.45160E-09 -1.52494E-09
  -1.59555E-09 -1.66333E-09 -1.72827E-09 -1.79033E-09 -1.84949E-09 -1.90565E-09 -1.95881E-09 -2.00894E-09 -2.05596E-09 -2.09995E-09
  -2.14096E-09 -2.17909E-09 -2.21437E-09 -2.24691E-09 -2.27675E-09 -2.30398E-09 -2.32867E-09 -2.35088E-09 -2.37068E-09 -2.38814E-09
  -2.40334E-09 -2.41634E-09 -2.42721E-09 -2.43602E-09 -2.44284E-09 -2.44773E-09 -2.45077E-09 -2.45201E-09 -2.45154E-09 -2.44942E-09
  -2.44570E-09 -2.44047E-09 -2.43378E-09 -2.42570E-09 -2.41630E-09 -2.40564E-09 -2.39378E-09 -2.38080E-09 -2.36675E-09 -2.35170E-09
  -2.33571E-09 -2.31884E-09 -2.30117E-09 -2.28272E-09 -2.26358E-09 -2.24382E-09 -2.22347E-09 -2.20261E-09 -2.18129E-09 -2.15956E-09
  -2.13748E-09 -2.11513E-09 -2.09253E-09 -2.06976E-09 -2.04685E-09 -2.02387E-09 -2.00087E-09 -1.97788E-09 -1.95498E-09 -1.93221E-09
  -1.90960E-09 -1.88720E-09 -1.86509E-09 -1.84326E-09 -1.82181E-09 -1.80074E-09 -1.78011E-09 -1.75996E-09 -1.74032E-09 -1.72124E-09
  -1.70276E-09 -1.68490E-09 -1.66771E-09 -1.65120E-09 -1.63543E-09 -1.62042E-09 -1.60620E-09 -1.59278E-09 -1.58022E-09 -1.56852E-09
  -1.55771E-09 -1.54780E-09 -1.53875E-09 -1.53052E-09 -1.52309E-09 -1.51642E-09 -1.51047E-09 -1.50521E-09 -1.50062E-09 -1.49666E-09
  -1.49329E-09 -1.49049E-09 -1.48822E-09 -1.48645E-09 -1.48516E-09 -1.48430E-09 -1.48386E-09 -1.48380E-09 -1.48409E-09 -1.48470E-09
  -1.48561E-09 -1.48678E-09 -1.48819E-09 -1.48981E-09 -1.49161E-09 -1.49357E-09 -1.49565E-09 -1.49784E-09 -1.50011E-09 -1.50244E-09
  -1.50479E-09 -1.50715E-09 -1.50948E-09 -1.51178E-09 -1.51402E-09 -1.51616E-09 -1.51820E-09 -1.52011E-09 -1.52188E-09 -1.52347E-09
  -1.52488E-09 -1.52608E-09 -1.52706E-09 -1.52779E-09 -1.52826E-09 -1.52846E-09 -1.52836E-09 -1.52796E-09 -1.52724E-09 -1.52617E-09
  -1.52476E-09 -1.52299E-09 -1.52084E-09 -1.51831E-09 -1.51537E-09 -1.51204E-09 -1.50828E-09 -1.50410E-09 -1.49948E-09 -1.49442E-09
  -1.48891E-09 -1.48295E-09 -1.47652E-09 -1.46963E-09 -1.46226E-09 -1.45442E-09 -1.44611E-09 -1.43731E-09 -1.42803E-09 -1.41827E-09
  -1.40803E-09 -1.39730E-09 -1.38610E-09
 NY background values follow
     2.460E-09    2.511E-09    2.561E-09    2.610E-09    2.658E-09    2.707E-09    2.754E-09    2.801E-09    2.847E-09    2.893E-09
     2.938E-09    2.983E-09    3.027E-09    3.071E-09    3.114E-09    3.156E-09    3.198E-09    3.239E-09    3.280E-09    3.320E-09
     3.359E-09    3.398E-09    3.437E-09    3.474E-09    3.512E-09    3.548E-09    3.585E-09    3.620E-09    3.655E-09    3.690E-09
     3.724E-09    3.757E-09    3.790E-09    3.822E-09    3.854E-09    3.886E-09    3.916E-09    3.947E-09    3.977E-09    4.006E-09
     4.035E-09    4.063E-09    4.091E-09    4.118E-09    4.145E-09    4.172E-09    4.198E-09    4.223E-09    4.249E-09    4.273E-09
     4.298E-09    4.322E-09    4.345E-09    4.368E-09    4.391E-09    4.413E-09    4.435E-09    4.457E-09    4.478E-09    4.499E-09
     4.520E-09    4.540E-09    4.560E-09    4.580E-09    4.600E-09    4.619E-09    4.638E-09    4.656E-09    4.675E-09    4.693E-09
     4.711E-09    4.729E-09    4.746E-09    4.764E-09    4.781E-09    4.798E-09    4.815E-09    4.831E-09    4.847E-09    4.863E-09
     4.879E-09    4.894E-09    4.909E-09    4.924E-09    4.938E-09    4.952E-09    4.966E-09    4.979E-09    4.991E-09    5.003E-09
     5.015E-09    5.025E-09    5.036E-09    5.046E-09    5.055E-09    5.063E-09    5.071E-09    5.078E-09    5.084E-09    5.090E-09
     5.094E-09    5.098E-09    5.101E-09    5.103E-09    5.104E-09    5.105E-09    5.104E-09    5.102E-09    5.099E-09    5.096E-09
     5.091E-09    5.084E-09    5.077E-09    5.069E-09    5.059E-09    5.048E-09    5.035E-09    5.022E-09    5.007E-09    4.990E-09
     4.972E-09    4.953E-09    4.932E-09    4.909E-09    4.885E-09    4.860E-09    4.833E-09    4.804E-09    4.773E-09    4.741E-09
     4.707E-09    4.671E-09    4.633E-09    4.593E-09    4.552E-09    4.508E-09    4.463E-09    4.415E-09    4.366E-09    4.314E-09
     4.260E-09    4.205E-09    4.147E-09    4.087E-09    4.024E-09    3.960E-09    3.893E-09    3.824E-09    3.753E-09    3.680E-09
     3.604E-09    3.527E-09    3.448E-09    3.367E-09    3.285E-09    3.201E-09    3.115E-09    3.028E-09    2.939E-09    2.849E-09
     2.757E-09    2.665E-09    2.571E-09    2.476E-09    2.380E-09    2.283E-09    2.186E-09    2.087E-09    1.988E-09    1.888E-09
     1.788E-09    1.687E-09    1.586E-09    1.485E-09    1.383E-09    1.281E-09    1.179E-09    1.077E-09    9.755E-10    8.739E-10
     7.725E-10    6.714E-10    5.707E-10    4.705E-10    3.709E-10    2.718E-10    1.735E-10    7.605E-11   -2.060E-11   -1.163E-10
    -2.110E-10   -3.045E-10   -3.969E-10   -4.881E-10   -5.779E-10   -6.664E-10   -7.533E-10   -8.387E-10   -9.225E-10   -1.005E-09
    -1.085E-09   -1.163E-09   -1.240E-09   -1.315E-09   -1.387E-09   -1.458E-09   -1.526E-09   -1.592E-09   -1.656E-09   -1.717E-09
    -1.776E-09   -1.833E-09   -1.887E-09   -1.938E-09   -1.987E-09   -2.033E-09   -2.076E-09   -2.116E-09   -2.153E-09   -2.188E-09
    -2.220E-09   -2.249E-09   -2.275E-09   -2.299E-09   -2.320E-09   -2.339E-09   -2.355E-09   -2.369E-09   -2.381E-09   -2.390E-09
    -2.398E-09   -2.403E-09   -2.406E-09   -2.408E-09   -2.407E-09   -2.405E-09   -2.400E-09   -2.395E-09   -2.387E-09   -2.378E-09
    -2.367E-09   -2.355E-09   -2.342E-09   -2.327E-09   -2.311E-09   -2.294E-09   -2.276E-09   -2.257E-09   -2.236E-09   -2.215E-09
    -2.193E-09   -2.170E-09   -2.147E-09   -2.122E-09   -2.097E-09   -2.072E-09   -2.046E-09   -2.019E-09   -1.992E-09   -1.965E-09
    -1.937E-09   -1.910E-09   -1.882E-09   -1.853E-09   -1.825E-09   -1.797E-09   -1.769E-09   -1.741E-09   -1.713E-09   -1.685E-09
    -1.657E-09   -1.630E-09   -1.603E-09   -1.576E-09   -1.550E-09   -1.524E-09   -1.499E-09   -1.474E-09   -1.450E-09   -1.426E-09
    -1.403E-09   -1.381E-09   -1.359E-09   -1.338E-09   -1.318E-09   -1.299E-09   -1.280E-09   -1.263E-09   -1.246E-09   -1.230E-09
    -1.215E-09   -1.201E-09   -1.188E-09   -1.176E-09   -1.164E-09   -1.154E-09   -1.144E-09   -1.135E-09   -1.126E-09   -1.119E-09
    -1.111E-09   -1.105E-09   -1.099E-09   -1.094E-09   -1.089E-09   -1.084E-09   -1.080E-09   -1.076E-09   -1.073E-09   -1.070E-09
    -1.068E-09   -1.066E-09   -1.064E-09   -1.062E-09   -1.060E-09   -1.059E-09   -1.058E-09   -1.057E-09   -1.056E-09   -1.055E-09
    -1.054E-09   -1.053E-09   -1.053E-09   -1.052E-09   -1.051E-09   -1.050E-09   -1.049E-09   -1.048E-09   -1.047E-09   -1.046E-09
    -1.044E-09   -1.043E-09   -1.041E-09   -1.039E-09   -1.037E-09   -1.034E-09   -1.031E-09   -1.028E-09   -1.025E-09   -1.021E-09
    -1.017E-09   -1.013E-09   -1.008E-09   -1.003E-09   -9.975E-10   -9.917E-10   -9.855E-10   -9.789E-10   -9.719E-10   -9.644E-10
    -9.566E-10   -9.483E-10   -9.395E-10   -9.304E-10   -9.207E-10   -9.107E-10   -9.001E-10   -8.891E-10   -8.777E-10   -8.658E-10
    -8.534E-10   -8.406E-10   -8.274E-10
 Glc      Conc. = 2.53E-10
   2.30107E-09  2.43622E-09  2.54961E-09  2.66084E-09  2.76663E-09  2.87599E-09  2.96101E-09  3.03525E-09  3.07499E-09  3.06510E-09
   3.05669E-09  3.05707E-09  3.05980E-09  3.09395E-09  3.20247E-09  3.36207E-09  3.53305E-09  3.69688E-09  3.82494E-09  3.92330E-09
   4.02752E-09  4.13543E-09  4.23266E-09  4.32256E-09  4.35929E-09  4.31891E-09  4.27351E-09  4.25321E-09  4.25693E-09  4.27577E-09
   4.28818E-09  4.29409E-09  4.30867E-09  4.32014E-09  4.31759E-09  4.32062E-09  4.33020E-09  4.33405E-09  4.33562E-09  4.34148E-09
   4.35070E-09  4.36200E-09  4.37490E-09  4.38892E-09  4.40381E-09  4.41935E-09  4.43539E-09  4.45179E-09  4.46845E-09  4.48531E-09
   4.50229E-09  4.51935E-09  4.53643E-09  4.55351E-09  4.57058E-09  4.58756E-09  4.60448E-09  4.62133E-09  4.63803E-09  4.65465E-09
   4.67115E-09  4.68751E-09  4.70375E-09  4.71986E-09  4.73585E-09  4.75169E-09  4.76741E-09  4.78299E-09  4.79845E-09  4.81380E-09
   4.82902E-09  4.84412E-09  4.85915E-09  4.87405E-09  4.88885E-09  4.90352E-09  4.91804E-09  4.93239E-09  4.94655E-09  4.96049E-09
   4.97419E-09  4.98762E-09  5.00077E-09  5.01360E-09  5.02611E-09  5.03825E-09  5.05000E-09  5.06135E-09  5.07226E-09  5.08271E-09
   5.09266E-09  5.10210E-09  5.11098E-09  5.11931E-09  5.12703E-09  5.13411E-09  5.14055E-09  5.14629E-09  5.15131E-09  5.15559E-09
   5.15909E-09  5.16178E-09  5.16363E-09  5.16462E-09  5.16470E-09  5.16385E-09  5.16203E-09  5.15923E-09  5.15540E-09  5.15048E-09
   5.14450E-09  5.13738E-09  5.12910E-09  5.11962E-09  5.10892E-09  5.09696E-09  5.08371E-09  5.06914E-09  5.05320E-09  5.03589E-09
   5.01712E-09  4.99691E-09  4.97520E-09  4.95197E-09  4.92718E-09  4.90079E-09  4.87275E-09  4.84308E-09  4.81170E-09  4.77859E-09
   4.74373E-09  4.70705E-09  4.66856E-09  4.62821E-09  4.58596E-09  4.54176E-09  4.49564E-09  4.44751E-09  4.39736E-09  4.34514E-09
   4.29084E-09  4.23443E-09  4.17587E-09  4.11512E-09  4.05217E-09  3.98698E-09  3.91954E-09  3.84992E-09  3.77818E-09  3.70438E-09
   3.62858E-09  3.55086E-09  3.47129E-09  3.38993E-09  3.30686E-09  3.22216E-09  3.13591E-09  3.04819E-09  2.95912E-09  2.86879E-09
   2.77735E-09  2.68502E-09  2.59212E-09  2.49930E-09  2.40810E-09  2.32338E-09  2.26988E-09  2.32219E-09  2.36440E-09  2.34488E-09
   2.26846E-09  2.16121E-09  2.04839E-09  1.94470E-09  1.84997E-09  1.74445E-09  1.59097E-09  1.35779E-09  1.09404E-09  9.45992E-10
   8.26586E-10  7.15875E-10  6.09082E-10  5.04611E-10  4.01769E-10  3.00243E-10  1.99898E-10  1.00700E-10  2.59004E-12 -9.43872E-11
  -1.90179E-10 -2.84777E-10 -3.78103E-10 -4.70111E-10 -5.60712E-10 -6.49868E-10 -7.37523E-10 -8.23569E-10 -9.07959E-10 -9.90643E-10
  -1.07154E-09 -1.15057E-09 -1.22768E-09 -1.30280E-09 -1.37587E-09 -1.44680E-09 -1.51555E-09 -1.58206E-09 -1.64625E-09 -1.70804E-09
  -1.76742E-09 -1.82428E-09 -1.87858E-09 -1.93026E-09 -1.97927E-09 -2.02553E-09 -2.06901E-09 -2.10965E-09 -2.14738E-09 -2.18227E-09
  -2.21434E-09 -2.24370E-09 -2.27038E-09 -2.29446E-09 -2.31598E-09 -2.33504E-09 -2.35168E-09 -2.36597E-09 -2.37797E-09 -2.38776E-09
  -2.39539E-09 -2.40094E-09 -2.40446E-09 -2.40602E-09 -2.40569E-09 -2.40353E-09 -2.39961E-09 -2.39399E-09 -2.38673E-09 -2.37791E-09
  -2.36758E-09 -2.35582E-09 -2.34268E-09 -2.32823E-09 -2.31252E-09 -2.29563E-09 -2.27762E-09 -2.25856E-09 -2.23850E-09 -2.21749E-09
  -2.19562E-09 -2.17293E-09 -2.14950E-09 -2.12536E-09 -2.10058E-09 -2.07525E-09 -2.04939E-09 -2.02307E-09 -1.99634E-09 -1.96926E-09
  -1.94190E-09 -1.91430E-09 -1.88652E-09 -1.85862E-09 -1.83062E-09 -1.80261E-09 -1.77463E-09 -1.74670E-09 -1.71891E-09 -1.69130E-09
  -1.66389E-09 -1.63675E-09 -1.60993E-09 -1.58345E-09 -1.55738E-09 -1.53174E-09 -1.50659E-09 -1.48196E-09 -1.45787E-09 -1.43439E-09
  -1.41154E-09 -1.38936E-09 -1.36789E-09 -1.34715E-09 -1.32717E-09 -1.30799E-09 -1.28965E-09 -1.27214E-09 -1.25553E-09 -1.23982E-09
  -1.22503E-09 -1.21118E-09 -1.19822E-09 -1.18612E-09 -1.17485E-09 -1.16438E-09 -1.15466E-09 -1.14567E-09 -1.13738E-09 -1.12975E-09
  -1.12275E-09 -1.11635E-09 -1.11051E-09 -1.10521E-09 -1.10041E-09 -1.09608E-09 -1.09220E-09 -1.08873E-09 -1.08564E-09 -1.08290E-09
  -1.08049E-09 -1.07837E-09 -1.07653E-09 -1.07492E-09 -1.07352E-09 -1.07231E-09 -1.07125E-09 -1.07033E-09 -1.06951E-09 -1.06878E-09
  -1.06811E-09 -1.06746E-09 -1.06683E-09 -1.06618E-09 -1.06550E-09 -1.06475E-09 -1.06393E-09 -1.06301E-09 -1.06196E-09 -1.06077E-09
  -1.05942E-09 -1.05789E-09 -1.05616E-09 -1.05421E-09 -1.05203E-09 -1.04960E-09 -1.04690E-09 -1.04392E-09 -1.04064E-09 -1.03705E-09
  -1.03314E-09 -1.02888E-09 -1.02428E-09 -1.01932E-09 -1.01398E-09 -1.00826E-09 -1.00214E-09 -9.95630E-10 -9.88701E-10 -9.81355E-10
  -9.73584E-10 -9.65378E-10 -9.56735E-10 -9.47647E-10 -9.38114E-10 -9.28125E-10 -9.17687E-10 -9.06788E-10 -8.95431E-10 -8.83615E-10
  -8.71337E-10 -8.58600E-10 -8.45408E-10
 Gln      Conc. = 1.59E-09
   1.44274E-09  1.71532E-09  2.07205E-09  2.47828E-09  2.88244E-09  3.25600E-09  3.57734E-09  3.80946E-09  3.95453E-09  4.14671E-09
   4.14910E-09  4.05887E-09  4.02600E-09  3.85244E-09  3.72434E-09  3.63985E-09  3.58266E-09  3.54326E-09  3.51619E-09  3.49801E-09
   3.48639E-09  3.47967E-09  3.47658E-09  3.47625E-09  3.47824E-09  3.48217E-09  3.48722E-09  3.49328E-09  3.50009E-09  3.50724E-09
   3.51448E-09  3.52162E-09  3.52847E-09  3.53490E-09  3.54073E-09  3.54582E-09  3.55001E-09  3.55312E-09  3.55495E-09  3.55535E-09
   3.55417E-09  3.55120E-09  3.54639E-09  3.53945E-09  3.52994E-09  3.51765E-09  3.50211E-09  3.48212E-09  3.45829E-09  3.43110E-09
   3.39842E-09  3.36174E-09  3.32675E-09  3.31544E-09  3.46177E-09  3.82809E-09  4.11980E-09  4.49553E-09  5.08506E-09  5.67436E-09
   6.13797E-09  6.57025E-09  6.94615E-09  7.20788E-09  7.28115E-09  7.13368E-09  6.95859E-09  6.81794E-09  6.36729E-09  5.90749E-09
   5.62288E-09  5.50366E-09  5.49728E-09  5.54066E-09  5.76496E-09  6.16783E-09  6.54610E-09  6.92942E-09  7.30478E-09  7.63850E-09
   7.92499E-09  8.09307E-09  8.05364E-09  8.01924E-09  7.95761E-09  7.64911E-09  7.37928E-09  7.19341E-09  6.92809E-09  6.70861E-09
   6.54534E-09  6.41886E-09  6.31840E-09  6.23586E-09  6.16517E-09  6.10428E-09  6.05135E-09  6.00438E-09  5.96249E-09  5.92483E-09
   5.89037E-09  5.85833E-09  5.82829E-09  5.79992E-09  5.77298E-09  5.74713E-09  5.72205E-09  5.69755E-09  5.67340E-09  5.64942E-09
   5.62552E-09  5.60150E-09  5.57726E-09  5.55268E-09  5.52766E-09  5.50210E-09  5.47592E-09  5.44902E-09  5.42132E-09  5.39277E-09
   5.36326E-09  5.33275E-09  5.30116E-09  5.26845E-09  5.23454E-09  5.19938E-09  5.16289E-09  5.12507E-09  5.08583E-09  5.04513E-09
   5.00292E-09  4.95914E-09  4.91377E-09  4.86675E-09  4.81803E-09  4.76755E-09  4.71533E-09  4.66127E-09  4.60536E-09  4.54753E-09
   4.48777E-09  4.42603E-09  4.36229E-09  4.29647E-09  4.22859E-09  4.15858E-09  4.08645E-09  4.01225E-09  3.93604E-09  3.85789E-09
   3.77786E-09  3.69605E-09  3.61251E-09  3.52734E-09  3.44065E-09  3.35254E-09  3.26317E-09  3.17270E-09  3.08139E-09  2.98957E-09
   2.89779E-09  2.80696E-09  2.71876E-09  2.63674E-09  2.56963E-09  2.54527E-09  2.69916E-09  3.52831E-09  4.32675E-09  4.74782E-09
   4.80900E-09  4.67043E-09  4.49230E-09  4.37048E-09  4.30915E-09  4.19068E-09  3.78528E-09  2.88005E-09  1.74043E-09  1.32440E-09
   1.10536E-09  9.42555E-10  8.03226E-10  6.76168E-10  5.56505E-10  4.41812E-10  3.30766E-10  2.22613E-10  1.16831E-10  1.31576E-11
  -8.85725E-11 -1.88506E-10 -2.86679E-10 -3.83133E-10 -4.77845E-10 -5.70830E-10 -6.62071E-10 -7.51495E-10 -8.39081E-10 -9.24801E-10
  -1.00859E-09 -1.09040E-09 -1.17016E-09 -1.24783E-09 -1.32337E-09 -1.39668E-09 -1.46773E-09 -1.53647E-09 -1.60283E-09 -1.66673E-09
  -1.72815E-09 -1.78701E-09 -1.84326E-09 -1.89684E-09 -1.94772E-09 -1.99580E-09 -2.04105E-09 -2.08344E-09 -2.12288E-09 -2.15944E-09
  -2.19316E-09 -2.22413E-09 -2.25239E-09 -2.27803E-09 -2.30108E-09 -2.32165E-09 -2.33977E-09 -2.35552E-09 -2.36896E-09 -2.38015E-09
