 LCModel (Version 6.3-1R) Copyright: S.W. Provencher.          Ref.: Magn. Reson. Med. 30:672-679 (1993).                
 onepulse 29x14_ftSpec_smooth_lcm
 26 lines in following concentration table = NCONC+1
    Conc.  %SD /Cr+PCr  Metabolite                                         
    0.000 999%   0.000 Ala                                                 
    0.000 999%   0.000 Asp                                                 
    0.000 999%   0.000 Cr                                                  
    0.000 999%   0.000 GABA                                                
 7.33E-11 999%   0.319 Glc                                                 
 1.42E-09  34%   6.179 Gln                                                 
    0.000 999%   0.000 Glu                                                 
    0.000 999%   0.000 Glyc                                                
 1.51E-10  79%   0.659 GPC                                                 
    0.000 999%   0.000 GSH                                                 
 1.21E-09  33%   5.278 Ins                                                 
    0.000 999%   0.000 Lac                                                 
 2.48E-10 119%   1.080 NAAG                                                
 2.74E-10 145%   1.191 NAA                                                 
    0.000 999%   0.000 PCh                                                 
 2.30E-10  96%   1.000 PCr                                                 
    0.000 999%   0.000 PE                                                  
 1.64E-10 149%   0.716 Scyllo                                              
 3.16E-09  25%  13.740 Ser                                                 
 1.63E-10 564%   0.709 Tau                                                 
 1.51E-10  79%   0.659 GPC+PCh                                             
 5.22E-10  46%   2.271 NAA+NAAG                                            
 1.21E-09  33%   5.278 Ins+Glyc                                            
 2.30E-10  96%   1.000 Cr+PCr                                              
 1.42E-09  34%   6.179 Glu+Gln                                             
   6 lines in following misc. output table
  FWHM = 0.089 ppm    S/N =   3                                            
  Data shift = 0.369 ppm                                                   
  Ph: -47 deg     -39.1 deg/ppm                                            
  alphaB,S = 6.8E-01,   4.5E+01                                            
    8 spline knots.   Ns = 5(1)                                            
  ( 4) 2 infls.   ( 3) 1 extrs.                                            
  363 points on ppm-axis = NY
      4.250000     4.238821     4.227641     4.216462     4.205282     4.194103     4.182923     4.171744     4.160564     4.149385
      4.138206     4.127026     4.115847     4.104667     4.093488     4.082308     4.071129     4.059949     4.048770     4.037591
      4.026411     4.015232     4.004052     3.992873     3.981693     3.970514     3.959334     3.948155     3.936975     3.925796
      3.914617     3.903437     3.892258     3.881078     3.869899     3.858719     3.847540     3.836360     3.825181     3.814002
      3.802822     3.791643     3.780463     3.769284     3.758104     3.746925     3.735745     3.724566     3.713387     3.702207
      3.691028     3.679848     3.668669     3.657489     3.646310     3.635130     3.623951     3.612772     3.601592     3.590413
      3.579233     3.568054     3.556874     3.545695     3.534515     3.523336     3.512156     3.500977     3.489798     3.478618
      3.467439     3.456259     3.445080     3.433900     3.422721     3.411541     3.400362     3.389183     3.378003     3.366824
      3.355644     3.344465     3.333285     3.322106     3.310926     3.299747     3.288568     3.277388     3.266209     3.255029
      3.243850     3.232670     3.221491     3.210311     3.199132     3.187953     3.176773     3.165594     3.154414     3.143235
      3.132055     3.120876     3.109696     3.098517     3.087337     3.076158     3.064979     3.053799     3.042620     3.031440
      3.020261     3.009081     2.997902     2.986722     2.975543     2.964364     2.953184     2.942005     2.930825     2.919646
      2.908466     2.897287     2.886107     2.874928     2.863749     2.852569     2.841390     2.830210     2.819031     2.807851
      2.796672     2.785492     2.774313     2.763134     2.751954     2.740775     2.729595     2.718416     2.707236     2.696057
      2.684877     2.673698     2.662519     2.651339     2.640160     2.628980     2.617801     2.606621     2.595442     2.584262
      2.573083     2.561903     2.550724     2.539545     2.528365     2.517186     2.506006     2.494827     2.483647     2.472468
      2.461288     2.450109     2.438930     2.427750     2.416571     2.405391     2.394212     2.383032     2.371853     2.360673
      2.349494     2.338315     2.327135     2.315956     2.304776     2.293597     2.282417     2.271238     2.260058     2.248879
      2.237700     2.226520     2.215341     2.204161     2.192982     2.181802     2.170623     2.159443     2.148264     2.137084
      2.125905     2.114726     2.103546     2.092367     2.081187     2.070008     2.058828     2.047649     2.036469     2.025290
      2.014111     2.002931     1.991752     1.980572     1.969393     1.958213     1.947034     1.935854     1.924675     1.913496
      1.902316     1.891137     1.879957     1.868778     1.857598     1.846419     1.835239     1.824060     1.812881     1.801701
      1.790522     1.779342     1.768163     1.756983     1.745804     1.734624     1.723445     1.712265     1.701086     1.689907
      1.678727     1.667548     1.656368     1.645189     1.634009     1.622830     1.611650     1.600471     1.589292     1.578112
      1.566933     1.555753     1.544574     1.533394     1.522215     1.511035     1.499856     1.488677     1.477497     1.466318
      1.455138     1.443959     1.432779     1.421600     1.410420     1.399241     1.388062     1.376882     1.365703     1.354523
      1.343344     1.332164     1.320985     1.309805     1.298626     1.287446     1.276267     1.265088     1.253908     1.242729
      1.231549     1.220370     1.209190     1.198011     1.186831     1.175652     1.164473     1.153293     1.142114     1.130934
      1.119755     1.108575     1.097396     1.086216     1.075037     1.063858     1.052678     1.041499     1.030319     1.019140
      1.007960     0.996781     0.985601     0.974422     0.963243     0.952063     0.940884     0.929704     0.918525     0.907345
      0.896166     0.884986     0.873807     0.862628     0.851448     0.840269     0.829089     0.817910     0.806730     0.795551
      0.784371     0.773192     0.762012     0.750833     0.739654     0.728474     0.717295     0.706115     0.694936     0.683756
      0.672577     0.661397     0.650218     0.639039     0.627859     0.616680     0.605500     0.594321     0.583141     0.571962
      0.560782     0.549603     0.538424     0.527244     0.516065     0.504885     0.493706     0.482526     0.471347     0.460167
      0.448988     0.437809     0.426629     0.415450     0.404270     0.393091     0.381911     0.370732     0.359552     0.348373
      0.337193     0.326014     0.314835     0.303655     0.292476     0.281296     0.270117     0.258937     0.247758     0.236578
      0.225399     0.214220     0.203040
 NY phased data points follow
   1.38713E-08  1.30214E-08  1.21547E-08  1.11810E-08  1.06190E-08  9.97294E-09  9.46608E-09  9.87779E-09  9.49569E-09  9.27901E-09
   9.50422E-09  9.96048E-09  1.01436E-08  1.07315E-08  1.10282E-08  1.07858E-08  1.02545E-08  1.01562E-08  1.06458E-08  9.77034E-09
   9.00858E-09  8.97463E-09  9.12611E-09  9.58955E-09  1.01085E-08  9.99510E-09  9.36053E-09  8.94776E-09  9.19174E-09  8.94968E-09
   1.03086E-08  1.10074E-08  1.13385E-08  1.15747E-08  1.09239E-08  9.56121E-09  8.99959E-09  8.93680E-09  8.73148E-09  8.28426E-09
   8.43822E-09  7.73258E-09  7.93901E-09  7.25646E-09  7.39609E-09  6.57713E-09  6.73440E-09  6.47648E-09  6.11339E-09  6.09359E-09
   6.04843E-09  5.90294E-09  6.18168E-09  5.35811E-09  5.33508E-09  4.88550E-09  5.05919E-09  5.39647E-09  5.38504E-09  4.74776E-09
   6.40756E-09  6.90677E-09  9.05810E-09  9.83389E-09  9.92341E-09  8.90647E-09  8.51671E-09  7.46709E-09  6.95862E-09  6.58492E-09
   6.21126E-09  5.36392E-09  5.27704E-09  4.93412E-09  4.90888E-09  3.73783E-09  4.61702E-09  6.31206E-09  9.40518E-09  1.16116E-08
   1.27946E-08  1.17740E-08  1.15838E-08  1.10920E-08  1.12226E-08  9.82210E-09  9.78454E-09  9.05390E-09  9.89570E-09  9.49266E-09
   9.45335E-09  8.72621E-09  8.53645E-09  7.70811E-09  7.83310E-09  6.93362E-09  7.44061E-09  6.86672E-09  6.87881E-09  5.79161E-09
   6.67107E-09  5.83739E-09  7.10541E-09  5.57997E-09  6.41338E-09  5.88952E-09  6.10600E-09  4.98767E-09  4.75315E-09  3.91042E-09
   3.81913E-09  4.38872E-09  4.39710E-09  4.19344E-09  4.37462E-09  4.15148E-09  4.70811E-09  4.34707E-09  4.98061E-09  4.70299E-09
   4.90117E-09  4.25232E-09  4.52610E-09  3.28099E-09  2.93556E-09  2.66598E-09  2.87534E-09  3.40879E-09  3.64471E-09  3.14392E-09
   3.41996E-09  3.32677E-09  3.59953E-09  3.34897E-09  3.94428E-09  3.50148E-09  3.54460E-09  3.17797E-09  4.63770E-09  4.83997E-09
   5.69913E-09  5.35234E-09  5.47471E-09  5.26256E-09  5.94475E-09  6.56320E-09  7.22649E-09  6.30710E-09  6.74545E-09  6.65871E-09
   6.79460E-09  5.72261E-09  6.49622E-09  5.62480E-09  6.04603E-09  5.50560E-09  6.60194E-09  5.57784E-09  5.82750E-09  5.27225E-09
   6.19767E-09  5.09032E-09  6.05335E-09  5.19504E-09  5.75279E-09  5.01314E-09  5.04776E-09  4.39960E-09  7.19627E-09  1.02447E-08
   1.41489E-08  1.57076E-08  1.55677E-08  1.39786E-08  1.33266E-08  1.25554E-08  1.23308E-08  1.11833E-08  1.13506E-08  9.95427E-09
   9.86188E-09  8.61642E-09  8.41212E-09  6.74076E-09  6.50657E-09  4.45187E-09  4.29762E-09  2.47715E-09  1.19090E-09 -2.89527E-10
  -1.66362E-09 -3.65077E-09 -4.83167E-09 -7.33656E-09 -7.30109E-09 -9.40688E-09 -1.03296E-08 -1.19069E-08 -1.21004E-08 -1.29840E-08
  -1.27809E-08 -1.24647E-08 -1.16903E-08 -1.20906E-08 -1.03660E-08 -1.01076E-08 -7.65267E-09 -6.88761E-09 -5.49449E-09 -5.18665E-09
  -3.94268E-09 -3.27160E-09 -2.31878E-09 -2.63607E-09 -2.03944E-09 -2.31802E-09 -1.57508E-09 -2.79583E-09 -1.65550E-09 -2.88083E-09
  -1.42180E-09 -1.98444E-09 -1.47125E-09 -1.98663E-09 -1.38744E-09 -1.50107E-09 -1.50328E-09 -1.89845E-09 -1.11840E-09 -1.93623E-09
  -1.15923E-09 -1.60908E-09 -1.36842E-09 -1.91753E-09 -1.54321E-09 -1.45353E-09 -9.62421E-10 -1.12262E-09 -6.47616E-10 -1.61113E-09
  -8.73796E-10 -1.93010E-09 -1.54184E-09 -1.79992E-09 -1.13364E-09 -1.95208E-09 -8.30881E-10 -1.69872E-09 -5.90331E-10 -1.15151E-09
  -6.44349E-10 -7.75885E-10 -2.18449E-10 -8.02495E-10 -3.62898E-10 -1.02238E-09 -7.29874E-10 -1.58892E-09 -8.33415E-10 -1.45153E-09
  -1.22908E-09 -1.48797E-09 -1.78884E-09 -2.05970E-09 -1.57675E-09 -1.99793E-09 -1.04558E-09 -1.82880E-09 -9.29315E-10 -1.64268E-09
  -7.56552E-10 -6.34953E-10 -9.00964E-10 -2.27702E-10 -7.09473E-11 -4.86156E-10  1.90420E-10 -3.12594E-10  5.49512E-10 -7.34476E-10
  -3.24590E-10 -8.07497E-10 -7.07733E-10 -9.82269E-10 -5.75419E-10 -1.12846E-09 -8.40359E-10 -1.17625E-09 -7.61010E-10 -1.35789E-09
  -2.99001E-10 -1.16235E-09 -8.37234E-10 -1.11684E-09 -9.15602E-10 -1.91793E-09 -9.05509E-10 -1.64783E-09 -8.66205E-10 -1.68421E-09
  -1.00433E-09 -1.97262E-09 -1.76106E-09 -1.90617E-09 -1.23797E-09 -1.96717E-09 -1.32624E-09 -1.72891E-09 -1.63620E-09 -1.79544E-09
  -1.54321E-09 -2.19184E-09 -1.34931E-09 -1.59285E-09 -1.21622E-09 -2.01789E-09 -1.46499E-09 -1.98140E-09 -2.07477E-09 -1.97850E-09
  -1.79176E-09 -2.23938E-09 -1.63217E-09 -2.19098E-09 -1.25660E-09 -1.85136E-09 -1.65858E-09 -1.84977E-09 -1.58337E-09 -1.63524E-09
  -1.60701E-09 -2.11117E-09 -1.51987E-09 -1.92340E-09 -1.87438E-09 -2.09660E-09 -1.51382E-09 -1.73156E-09 -1.66100E-09 -2.11757E-09
  -1.62087E-09 -2.06507E-09 -2.30825E-09 -1.85637E-09 -1.60191E-09 -2.00236E-09 -1.79028E-09 -1.99915E-09 -1.41325E-09 -2.26865E-09
  -1.81301E-09 -2.28924E-09 -2.14170E-09 -2.47957E-09 -1.25128E-09 -2.12424E-09 -2.14938E-09 -1.88026E-09 -2.06051E-09 -2.32237E-09
  -2.13618E-09 -2.33614E-09 -1.58038E-09
 NY points of the fit to the data follow
   1.25205E-08  1.27214E-08  1.21458E-08  1.14226E-08  1.12076E-08  1.10333E-08  1.05284E-08  9.79016E-09  9.16518E-09  8.99792E-09
   9.17113E-09  9.52781E-09  1.00477E-08  1.05373E-08  1.09037E-08  1.09598E-08  1.07947E-08  1.07010E-08  1.04614E-08  9.81632E-09
   9.20574E-09  8.86210E-09  8.64415E-09  8.47234E-09  8.57092E-09  9.03064E-09  9.71123E-09  1.02975E-08  1.05369E-08  1.04616E-08
   1.05053E-08  1.05220E-08  1.04930E-08  1.02971E-08  9.86704E-09  9.32418E-09  8.97465E-09  8.72726E-09  8.54195E-09  8.40004E-09
   8.25111E-09  8.00229E-09  7.58150E-09  7.10445E-09  6.81626E-09  6.60766E-09  6.43336E-09  6.27411E-09  6.12562E-09  5.99547E-09
   5.88143E-09  5.78380E-09  5.70060E-09  5.62181E-09  5.59109E-09  5.69966E-09  5.88904E-09  6.16014E-09  6.56514E-09  7.03582E-09
   7.47866E-09  7.88629E-09  8.21753E-09  8.43046E-09  8.47081E-09  8.31318E-09  8.05362E-09  7.75145E-09  7.26376E-09  6.77414E-09
   6.48088E-09  6.30522E-09  6.20894E-09  6.23042E-09  6.34815E-09  6.59194E-09  7.03777E-09  7.78418E-09  8.77175E-09  9.80359E-09
   1.06981E-08  1.13105E-08  1.15816E-08  1.17215E-08  1.17349E-08  1.13860E-08  1.06889E-08  9.77705E-09  8.87369E-09  8.24842E-09
   7.84916E-09  7.55774E-09  7.32742E-09  7.13615E-09  6.96962E-09  6.82402E-09  6.69800E-09  6.58544E-09  6.47986E-09  6.37927E-09
   6.28983E-09  6.21036E-09  6.13463E-09  6.06116E-09  5.99250E-09  5.92807E-09  5.86700E-09  5.80867E-09  5.75248E-09  5.69809E-09
   5.64525E-09  5.59366E-09  5.54309E-09  5.49331E-09  5.44415E-09  5.39543E-09  5.34700E-09  5.29872E-09  5.25044E-09  5.20209E-09
   5.15350E-09  5.10462E-09  5.05532E-09  5.00554E-09  4.95517E-09  4.90415E-09  4.85237E-09  4.79981E-09  4.74636E-09  4.69197E-09
   4.63658E-09  4.58011E-09  4.52253E-09  4.46377E-09  4.40376E-09  4.34245E-09  4.27983E-09  4.21580E-09  4.15033E-09  4.08337E-09
   4.01489E-09  3.94483E-09  3.87317E-09  3.79984E-09  3.72483E-09  3.64810E-09  3.56964E-09  3.48952E-09  3.40780E-09  3.32458E-09
   3.23992E-09  3.15396E-09  3.06679E-09  2.97858E-09  2.88952E-09  2.79986E-09  2.70991E-09  2.62014E-09  2.53121E-09  2.44409E-09
   2.36036E-09  2.28264E-09  2.21563E-09  2.16864E-09  2.16273E-09  2.25695E-09  2.69294E-09  4.55994E-09  7.57884E-09  1.08742E-08
   1.36380E-08  1.53629E-08  1.60270E-08  1.59589E-08  1.54387E-08  1.42943E-08  1.19636E-08  8.18391E-09  4.06124E-09  2.25906E-09
   1.56994E-09  1.17528E-09  8.98144E-10  6.80346E-10  4.97011E-10  3.35696E-10  1.89483E-10  5.42340E-11 -7.27260E-11 -1.93120E-10
  -3.08125E-10 -4.18607E-10 -5.25142E-10 -6.28172E-10 -7.27989E-10 -8.24843E-10 -9.18910E-10 -1.01028E-09 -1.09905E-09 -1.18529E-09
  -1.26903E-09 -1.35029E-09 -1.42907E-09 -1.50537E-09 -1.57918E-09 -1.65047E-09 -1.71922E-09 -1.78541E-09 -1.84900E-09 -1.90993E-09
  -1.96821E-09 -2.02376E-09 -2.07655E-09 -2.12654E-09 -2.17370E-09 -2.21794E-09 -2.25925E-09 -2.29759E-09 -2.33290E-09 -2.36524E-09
  -2.39467E-09 -2.42128E-09 -2.44513E-09 -2.46630E-09 -2.48485E-09 -2.50088E-09 -2.51445E-09 -2.52562E-09 -2.53447E-09 -2.54107E-09
  -2.54551E-09 -2.54784E-09 -2.54814E-09 -2.54648E-09 -2.54293E-09 -2.53756E-09 -2.53045E-09 -2.52166E-09 -2.51126E-09 -2.49933E-09
  -2.48593E-09 -2.47113E-09 -2.45501E-09 -2.43763E-09 -2.41905E-09 -2.39934E-09 -2.37859E-09 -2.35685E-09 -2.33418E-09 -2.31066E-09
  -2.28635E-09 -2.26131E-09 -2.23564E-09 -2.20934E-09 -2.18252E-09 -2.15524E-09 -2.12756E-09 -2.09953E-09 -2.07122E-09 -2.04269E-09
  -2.01400E-09 -1.98522E-09 -1.95640E-09 -1.92760E-09 -1.89887E-09 -1.87027E-09 -1.84187E-09 -1.81371E-09 -1.78585E-09 -1.75835E-09
  -1.73124E-09 -1.70460E-09 -1.67847E-09 -1.65288E-09 -1.62792E-09 -1.60361E-09 -1.58001E-09 -1.55716E-09 -1.53509E-09 -1.51387E-09
  -1.49354E-09 -1.47414E-09 -1.45571E-09 -1.43827E-09 -1.42189E-09 -1.40660E-09 -1.39243E-09 -1.37940E-09 -1.36758E-09 -1.35699E-09
  -1.34764E-09 -1.33956E-09 -1.33269E-09 -1.32701E-09 -1.32246E-09 -1.31901E-09 -1.31660E-09 -1.31522E-09 -1.31481E-09 -1.31533E-09
  -1.31674E-09 -1.31901E-09 -1.32210E-09 -1.32597E-09 -1.33057E-09 -1.33587E-09 -1.34183E-09 -1.34843E-09 -1.35560E-09 -1.36332E-09
  -1.37156E-09 -1.38028E-09 -1.38944E-09 -1.39900E-09 -1.40894E-09 -1.41921E-09 -1.42979E-09 -1.44063E-09 -1.45170E-09 -1.46299E-09
  -1.47444E-09 -1.48603E-09 -1.49773E-09 -1.50950E-09 -1.52132E-09 -1.53315E-09 -1.54498E-09 -1.55676E-09 -1.56847E-09 -1.58008E-09
  -1.59157E-09 -1.60291E-09 -1.61406E-09 -1.62502E-09 -1.63574E-09 -1.64622E-09 -1.65642E-09 -1.66632E-09 -1.67590E-09 -1.68513E-09
  -1.69401E-09 -1.70249E-09 -1.71058E-09 -1.71824E-09 -1.72545E-09 -1.73221E-09 -1.73849E-09 -1.74428E-09 -1.74956E-09 -1.75431E-09
  -1.75853E-09 -1.76219E-09 -1.76528E-09 -1.76780E-09 -1.76973E-09 -1.77106E-09 -1.77178E-09 -1.77188E-09 -1.77135E-09 -1.77019E-09
  -1.76838E-09 -1.76592E-09 -1.76282E-09
 NY background values follow
     2.967E-09    2.997E-09    3.026E-09    3.054E-09    3.082E-09    3.110E-09    3.137E-09    3.164E-09    3.190E-09    3.215E-09
     3.241E-09    3.265E-09    3.290E-09    3.313E-09    3.337E-09    3.360E-09    3.382E-09    3.404E-09    3.425E-09    3.446E-09
     3.467E-09    3.487E-09    3.507E-09    3.526E-09    3.545E-09    3.563E-09    3.581E-09    3.599E-09    3.616E-09    3.633E-09
     3.649E-09    3.665E-09    3.681E-09    3.696E-09    3.711E-09    3.725E-09    3.740E-09    3.753E-09    3.767E-09    3.780E-09
     3.793E-09    3.805E-09    3.817E-09    3.829E-09    3.841E-09    3.852E-09    3.863E-09    3.874E-09    3.884E-09    3.894E-09
     3.904E-09    3.914E-09    3.923E-09    3.932E-09    3.941E-09    3.950E-09    3.959E-09    3.967E-09    3.976E-09    3.984E-09
     3.992E-09    3.999E-09    4.007E-09    4.015E-09    4.022E-09    4.030E-09    4.037E-09    4.044E-09    4.051E-09    4.058E-09
     4.065E-09    4.072E-09    4.079E-09    4.086E-09    4.093E-09    4.100E-09    4.107E-09    4.113E-09    4.120E-09    4.127E-09
     4.133E-09    4.139E-09    4.145E-09    4.151E-09    4.157E-09    4.162E-09    4.167E-09    4.172E-09    4.177E-09    4.181E-09
     4.185E-09    4.188E-09    4.191E-09    4.194E-09    4.196E-09    4.198E-09    4.199E-09    4.199E-09    4.199E-09    4.199E-09
     4.197E-09    4.196E-09    4.193E-09    4.190E-09    4.186E-09    4.181E-09    4.175E-09    4.169E-09    4.162E-09    4.153E-09
     4.144E-09    4.134E-09    4.123E-09    4.111E-09    4.098E-09    4.084E-09    4.068E-09    4.052E-09    4.034E-09    4.015E-09
     3.995E-09    3.974E-09    3.951E-09    3.927E-09    3.902E-09    3.875E-09    3.847E-09    3.817E-09    3.786E-09    3.754E-09
     3.720E-09    3.684E-09    3.646E-09    3.607E-09    3.567E-09    3.524E-09    3.480E-09    3.434E-09    3.386E-09    3.337E-09
     3.285E-09    3.232E-09    3.177E-09    3.119E-09    3.060E-09    2.999E-09    2.936E-09    2.871E-09    2.803E-09    2.735E-09
     2.664E-09    2.591E-09    2.517E-09    2.442E-09    2.364E-09    2.286E-09    2.206E-09    2.124E-09    2.042E-09    1.958E-09
     1.873E-09    1.787E-09    1.700E-09    1.612E-09    1.523E-09    1.434E-09    1.344E-09    1.253E-09    1.161E-09    1.070E-09
     9.774E-10    8.849E-10    7.920E-10    6.990E-10    6.059E-10    5.127E-10    4.196E-10    3.266E-10    2.337E-10    1.411E-10
     4.887E-11   -4.300E-11   -1.344E-10   -2.253E-10   -3.155E-10   -4.050E-10   -4.938E-10   -5.817E-10   -6.688E-10   -7.548E-10
    -8.398E-10   -9.237E-10   -1.006E-09   -1.088E-09   -1.168E-09   -1.246E-09   -1.324E-09   -1.399E-09   -1.473E-09   -1.546E-09
    -1.616E-09   -1.685E-09   -1.752E-09   -1.817E-09   -1.879E-09   -1.940E-09   -1.999E-09   -2.055E-09   -2.109E-09   -2.161E-09
    -2.211E-09   -2.258E-09   -2.302E-09   -2.344E-09   -2.383E-09   -2.419E-09   -2.453E-09   -2.484E-09   -2.512E-09   -2.537E-09
    -2.560E-09   -2.580E-09   -2.597E-09   -2.611E-09   -2.623E-09   -2.633E-09   -2.640E-09   -2.645E-09   -2.648E-09   -2.649E-09
    -2.647E-09   -2.644E-09   -2.639E-09   -2.631E-09   -2.622E-09   -2.611E-09   -2.599E-09   -2.585E-09   -2.569E-09   -2.552E-09
    -2.534E-09   -2.514E-09   -2.493E-09   -2.470E-09   -2.447E-09   -2.422E-09   -2.397E-09   -2.370E-09   -2.343E-09   -2.315E-09
    -2.286E-09   -2.257E-09   -2.226E-09   -2.196E-09   -2.165E-09   -2.133E-09   -2.101E-09   -2.069E-09   -2.036E-09   -2.004E-09
    -1.971E-09   -1.938E-09   -1.905E-09   -1.873E-09   -1.840E-09   -1.807E-09   -1.775E-09   -1.743E-09   -1.712E-09   -1.680E-09
    -1.649E-09   -1.619E-09   -1.589E-09   -1.560E-09   -1.532E-09   -1.504E-09   -1.477E-09   -1.450E-09   -1.425E-09   -1.400E-09
    -1.376E-09   -1.354E-09   -1.332E-09   -1.311E-09   -1.292E-09   -1.273E-09   -1.256E-09   -1.239E-09   -1.224E-09   -1.211E-09
    -1.198E-09   -1.187E-09   -1.177E-09   -1.168E-09   -1.161E-09   -1.154E-09   -1.149E-09   -1.145E-09   -1.141E-09   -1.139E-09
    -1.137E-09   -1.137E-09   -1.137E-09   -1.138E-09   -1.140E-09   -1.143E-09   -1.146E-09   -1.150E-09   -1.154E-09   -1.159E-09
    -1.165E-09   -1.171E-09   -1.177E-09   -1.184E-09   -1.192E-09   -1.200E-09   -1.208E-09   -1.216E-09   -1.224E-09   -1.233E-09
    -1.242E-09   -1.251E-09   -1.261E-09   -1.270E-09   -1.280E-09   -1.289E-09   -1.299E-09   -1.308E-09   -1.317E-09   -1.327E-09
    -1.336E-09   -1.345E-09   -1.354E-09   -1.363E-09   -1.371E-09   -1.380E-09   -1.388E-09   -1.395E-09   -1.403E-09   -1.410E-09
    -1.417E-09   -1.423E-09   -1.429E-09   -1.435E-09   -1.440E-09   -1.445E-09   -1.449E-09   -1.453E-09   -1.456E-09   -1.459E-09
    -1.461E-09   -1.463E-09   -1.464E-09   -1.465E-09   -1.465E-09   -1.464E-09   -1.463E-09   -1.461E-09   -1.459E-09   -1.456E-09
    -1.452E-09   -1.448E-09   -1.443E-09
 Glc      Conc. = 7.33E-11
   2.93228E-09  2.99013E-09  3.04682E-09  3.10306E-09  3.15365E-09  3.19756E-09  3.23126E-09  3.25889E-09  3.27561E-09  3.28339E-09
   3.29328E-09  3.30536E-09  3.31978E-09  3.34137E-09  3.37473E-09  3.42005E-09  3.47608E-09  3.53929E-09  3.59966E-09  3.65231E-09
   3.69878E-09  3.73848E-09  3.76928E-09  3.79008E-09  3.79428E-09  3.78490E-09  3.77987E-09  3.78277E-09  3.79173E-09  3.80348E-09
   3.81351E-09  3.82234E-09  3.83202E-09  3.83956E-09  3.84403E-09  3.85000E-09  3.85671E-09  3.86195E-09  3.86718E-09  3.87357E-09
   3.88074E-09  3.88834E-09  3.89623E-09  3.90426E-09  3.91239E-09  3.92054E-09  3.92869E-09  3.93679E-09  3.94482E-09  3.95278E-09
   3.96064E-09  3.96841E-09  3.97605E-09  3.98359E-09  3.99104E-09  3.99835E-09  4.00556E-09  4.01268E-09  4.01966E-09  4.02656E-09
   4.03337E-09  4.04007E-09  4.04671E-09  4.05326E-09  4.05976E-09  4.06619E-09  4.07257E-09  4.07889E-09  4.08518E-09  4.09146E-09
   4.09771E-09  4.10394E-09  4.11020E-09  4.11644E-09  4.12270E-09  4.12895E-09  4.13515E-09  4.14131E-09  4.14739E-09  4.15337E-09
   4.15924E-09  4.16496E-09  4.17052E-09  4.17590E-09  4.18108E-09  4.18602E-09  4.19070E-09  4.19512E-09  4.19923E-09  4.20301E-09
   4.20643E-09  4.20949E-09  4.21212E-09  4.21435E-09  4.21611E-09  4.21738E-09  4.21814E-09  4.21837E-09  4.21803E-09  4.21709E-09
   4.21554E-09  4.21333E-09  4.21044E-09  4.20685E-09  4.20251E-09  4.19740E-09  4.19149E-09  4.18477E-09  4.17719E-09  4.16870E-09
   4.15932E-09  4.14897E-09  4.13764E-09  4.12529E-09  4.11191E-09  4.09745E-09  4.08189E-09  4.06519E-09  4.04731E-09  4.02826E-09
   4.00794E-09  3.98638E-09  3.96352E-09  3.93933E-09  3.91379E-09  3.88684E-09  3.85847E-09  3.82865E-09  3.79735E-09  3.76452E-09
   3.73014E-09  3.69417E-09  3.65660E-09  3.61738E-09  3.57648E-09  3.53386E-09  3.48953E-09  3.44340E-09  3.39548E-09  3.34572E-09
   3.29410E-09  3.24058E-09  3.18515E-09  3.12774E-09  3.06836E-09  3.00697E-09  2.94355E-09  2.87817E-09  2.81088E-09  2.74175E-09
   2.67085E-09  2.59823E-09  2.52395E-09  2.44810E-09  2.37072E-09  2.29189E-09  2.21169E-09  2.13017E-09  2.04741E-09  1.96350E-09
   1.87850E-09  1.79254E-09  1.70570E-09  1.61819E-09  1.53032E-09  1.44297E-09  1.36001E-09  1.29376E-09  1.23718E-09  1.18089E-09
   1.11689E-09  1.04089E-09  9.53955E-10  8.60099E-10  7.61707E-10  6.55707E-10  5.35787E-10  4.01166E-10  2.68012E-10  1.63243E-10
   6.59388E-11 -2.87276E-11 -1.21949E-10 -2.14086E-10 -3.05290E-10 -3.95600E-10 -4.85001E-10 -5.73445E-10 -6.60922E-10 -7.47358E-10
  -8.32680E-10 -9.16855E-10 -9.99800E-10 -1.08146E-09 -1.16174E-09 -1.24060E-09 -1.31799E-09 -1.39379E-09 -1.46796E-09 -1.54045E-09
  -1.61117E-09 -1.68006E-09 -1.74705E-09 -1.81208E-09 -1.87508E-09 -1.93599E-09 -1.99474E-09 -2.05127E-09 -2.10553E-09 -2.15743E-09
  -2.20693E-09 -2.25396E-09 -2.29846E-09 -2.34038E-09 -2.37966E-09 -2.41623E-09 -2.45004E-09 -2.48104E-09 -2.50917E-09 -2.53448E-09
  -2.55702E-09 -2.57688E-09 -2.59410E-09 -2.60877E-09 -2.62094E-09 -2.63069E-09 -2.63808E-09 -2.64318E-09 -2.64606E-09 -2.64678E-09
  -2.64543E-09 -2.64206E-09 -2.63674E-09 -2.62954E-09 -2.62054E-09 -2.60979E-09 -2.59736E-09 -2.58333E-09 -2.56777E-09 -2.55073E-09
  -2.53229E-09 -2.51252E-09 -2.49148E-09 -2.46924E-09 -2.44586E-09 -2.42142E-09 -2.39598E-09 -2.36960E-09 -2.34236E-09 -2.31430E-09
  -2.28552E-09 -2.25606E-09 -2.22600E-09 -2.19537E-09 -2.16426E-09 -2.13274E-09 -2.10085E-09 -2.06867E-09 -2.03624E-09 -2.00364E-09
  -1.97092E-09 -1.93815E-09 -1.90537E-09 -1.87266E-09 -1.84005E-09 -1.80761E-09 -1.77541E-09 -1.74348E-09 -1.71189E-09 -1.68069E-09
  -1.64992E-09 -1.61965E-09 -1.58992E-09 -1.56078E-09 -1.53229E-09 -1.50447E-09 -1.47740E-09 -1.45111E-09 -1.42564E-09 -1.40105E-09
  -1.37737E-09 -1.35464E-09 -1.33292E-09 -1.31223E-09 -1.29261E-09 -1.27411E-09 -1.25676E-09 -1.24058E-09 -1.22563E-09 -1.21194E-09
  -1.19952E-09 -1.18839E-09 -1.17850E-09 -1.16981E-09 -1.16228E-09 -1.15588E-09 -1.15055E-09 -1.14627E-09 -1.14298E-09 -1.14064E-09
  -1.13923E-09 -1.13869E-09 -1.13899E-09 -1.14009E-09 -1.14195E-09 -1.14453E-09 -1.14779E-09 -1.15171E-09 -1.15622E-09 -1.16131E-09
  -1.16694E-09 -1.17306E-09 -1.17964E-09 -1.18665E-09 -1.19405E-09 -1.20181E-09 -1.20989E-09 -1.21826E-09 -1.22688E-09 -1.23573E-09
  -1.24476E-09 -1.25395E-09 -1.26327E-09 -1.27268E-09 -1.28216E-09 -1.29166E-09 -1.30118E-09 -1.31067E-09 -1.32011E-09 -1.32947E-09
  -1.33872E-09 -1.34784E-09 -1.35679E-09 -1.36556E-09 -1.37412E-09 -1.38244E-09 -1.39051E-09 -1.39829E-09 -1.40577E-09 -1.41291E-09
  -1.41972E-09 -1.42615E-09 -1.43220E-09 -1.43784E-09 -1.44304E-09 -1.44781E-09 -1.45211E-09 -1.45594E-09 -1.45927E-09 -1.46210E-09
  -1.46440E-09 -1.46616E-09 -1.46738E-09 -1.46803E-09 -1.46810E-09 -1.46759E-09 -1.46649E-09 -1.46478E-09 -1.46245E-09 -1.45951E-09
  -1.45594E-09 -1.45173E-09 -1.44689E-09
 Gln      Conc. = 1.42E-09
   2.06150E-09  2.27891E-09  2.58290E-09  2.96023E-09  3.37046E-09  3.76605E-09  4.09986E-09  4.33859E-09  4.48212E-09  4.58937E-09
   4.54802E-09  4.38569E-09  4.27641E-09  4.09047E-09  3.94699E-09  3.84872E-09  3.77805E-09  3.72516E-09  3.68441E-09  3.65234E-09
   3.62664E-09  3.60572E-09  3.58845E-09  3.57404E-09  3.56201E-09  3.55194E-09  3.54319E-09  3.53553E-09  3.52876E-09  3.52248E-09
   3.51650E-09  3.51065E-09  3.50476E-09  3.49873E-09  3.49241E-09  3.48570E-09  3.47845E-09  3.47057E-09  3.46192E-09  3.45234E-09
   3.44173E-09  3.42995E-09  3.41692E-09  3.40252E-09  3.38658E-09  3.36889E-09  3.34928E-09  3.32716E-09  3.30247E-09  3.27560E-09
   3.24606E-09  3.21438E-09  3.18318E-09  3.16189E-09  3.19681E-09  3.36625E-09  3.61241E-09  3.92712E-09  4.37189E-09  4.90325E-09
   5.43425E-09  5.94458E-09  6.37494E-09  6.65597E-09  6.73819E-09  6.62524E-09  6.42082E-09  6.19390E-09  5.76496E-09  5.30681E-09
   5.01507E-09  4.82472E-09  4.70773E-09  4.72933E-09  4.87816E-09  5.16927E-09  5.52690E-09  5.91674E-09  6.31123E-09  6.67014E-09
   6.96128E-09  7.13499E-09  7.12777E-09  7.05842E-09  6.94164E-09  6.66152E-09  6.37224E-09  6.16376E-09  5.91528E-09  5.70133E-09
   5.54307E-09  5.42035E-09  5.32203E-09  5.24071E-09  5.17098E-09  5.11052E-09  5.05750E-09  5.01017E-09  4.96755E-09  4.92884E-09
   4.89315E-09  4.85977E-09  4.82830E-09  4.79844E-09  4.76992E-09  4.74248E-09  4.71580E-09  4.68971E-09  4.66400E-09  4.63851E-09
   4.61314E-09  4.58773E-09  4.56218E-09  4.53638E-09  4.51023E-09  4.48366E-09  4.45657E-09  4.42890E-09  4.40054E-09  4.37148E-09
   4.34159E-09  4.31086E-09  4.27919E-09  4.24656E-09  4.21289E-09  4.17814E-09  4.14223E-09  4.10516E-09  4.06686E-09  4.02726E-09
   3.98635E-09  3.94406E-09  3.90037E-09  3.85522E-09  3.80857E-09  3.76036E-09  3.71061E-09  3.65923E-09  3.60620E-09  3.55145E-09
   3.49500E-09  3.43677E-09  3.37676E-09  3.31489E-09  3.25117E-09  3.18554E-09  3.11801E-09  3.04863E-09  2.97746E-09  2.90456E-09
   2.83000E-09  2.75386E-09  2.67621E-09  2.59714E-09  2.51672E-09  2.43508E-09  2.35233E-09  2.26862E-09  2.18415E-09  2.09918E-09
   2.01407E-09  1.92944E-09  1.84629E-09  1.76658E-09  1.69458E-09  1.64197E-09  1.65472E-09  1.96745E-09  2.50915E-09  3.10119E-09
   3.58047E-09  3.84571E-09  3.89578E-09  3.80008E-09  3.61646E-09  3.30785E-09  2.75684E-09  1.90809E-09  9.89263E-10  5.72080E-10
   3.65172E-10  2.14745E-10  8.72688E-11 -2.83370E-11 -1.36812E-10 -2.40497E-10 -3.40658E-10 -4.38021E-10 -5.33073E-10 -6.26069E-10
  -7.17166E-10 -8.06496E-10 -8.94096E-10 -9.80001E-10 -1.06419E-09 -1.14668E-09 -1.22744E-09 -1.30642E-09 -1.38358E-09 -1.45891E-09
  -1.53232E-09 -1.60379E-09 -1.67324E-09 -1.74063E-09 -1.80592E-09 -1.86902E-09 -1.92989E-09 -1.98848E-09 -2.04473E-09 -2.09856E-09
  -2.14995E-09 -2.19881E-09 -2.24510E-09 -2.28875E-09 -2.32974E-09 -2.36797E-09 -2.40340E-09 -2.43600E-09 -2.46570E-09 -2.49254E-09
  -2.51658E-09 -2.53791E-09 -2.55658E-09 -2.57267E-09 -2.58623E-09 -2.59736E-09 -2.60610E-09 -2.61253E-09 -2.61673E-09 -2.61874E-09
