 LCModel (Version 6.3-1R) Copyright: S.W. Provencher.          Ref.: Magn. Reson. Med. 30:672-679 (1993).                
 onepulse 29x11_ftSpec_smooth_lcm
 26 lines in following concentration table = NCONC+1
    Conc.  %SD /Cr+PCr  Metabolite                                         
    0.000 999%   0.000 Ala                                                 
    0.000 999%   0.000 Asp                                                 
    0.000 999%   0.000 Cr                                                  
 9.06E-13 999% 5.5E-03 GABA                                                
 1.83E-10 257%   1.110 Glc                                                 
 9.84E-10  40%   5.951 Gln                                                 
    0.000 999%   0.000 Glu                                                 
    0.000 999%   0.000 Glyc                                                
    0.000 999%   0.000 GPC                                                 
 2.77E-11 853%   0.168 GSH                                                 
 9.21E-10  31%   5.573 Ins                                                 
    0.000 999%   0.000 Lac                                                 
 2.04E-10  87%   1.234 NAAG                                                
 2.04E-10 128%   1.231 NAA                                                 
    0.000 999%   0.000 PCh                                                 
 1.65E-10 113%   1.000 PCr                                                 
 9.50E-10  33%   5.749 PE                                                  
 7.03E-11 169%   0.425 Scyllo                                              
 1.51E-09  31%   9.140 Ser                                                 
    0.000 999%   0.000 Tau                                                 
    0.000 999%   0.000 GPC+PCh                                             
 4.08E-10  38%   2.465 NAA+NAAG                                            
 9.21E-10  31%   5.573 Ins+Glyc                                            
 1.65E-10 113%   1.000 Cr+PCr                                              
 9.84E-10  40%   5.951 Glu+Gln                                             
   6 lines in following misc. output table
  FWHM = 0.123 ppm    S/N =   3                                            
  Data shift = 0.402 ppm                                                   
  Ph:  -2 deg     -33.6 deg/ppm                                            
  alphaB,S = 3.8E-01,   2.8E+01                                            
   11 spline knots.   Ns = 5(1)                                            
  ( 8) 3 infls.   ( 5) 3 extrs.                                            
  363 points on ppm-axis = NY
      4.250000     4.238821     4.227641     4.216462     4.205282     4.194103     4.182923     4.171744     4.160564     4.149385
      4.138206     4.127026     4.115847     4.104667     4.093488     4.082308     4.071129     4.059949     4.048770     4.037591
      4.026411     4.015232     4.004052     3.992873     3.981693     3.970514     3.959334     3.948155     3.936975     3.925796
      3.914617     3.903437     3.892258     3.881078     3.869899     3.858719     3.847540     3.836360     3.825181     3.814002
      3.802822     3.791643     3.780463     3.769284     3.758104     3.746925     3.735745     3.724566     3.713387     3.702207
      3.691028     3.679848     3.668669     3.657489     3.646310     3.635130     3.623951     3.612772     3.601592     3.590413
      3.579233     3.568054     3.556874     3.545695     3.534515     3.523336     3.512156     3.500977     3.489798     3.478618
      3.467439     3.456259     3.445080     3.433900     3.422721     3.411541     3.400362     3.389183     3.378003     3.366824
      3.355644     3.344465     3.333285     3.322106     3.310926     3.299747     3.288568     3.277388     3.266209     3.255029
      3.243850     3.232670     3.221491     3.210311     3.199132     3.187953     3.176773     3.165594     3.154414     3.143235
      3.132055     3.120876     3.109696     3.098517     3.087337     3.076158     3.064979     3.053799     3.042620     3.031440
      3.020261     3.009081     2.997902     2.986722     2.975543     2.964364     2.953184     2.942005     2.930825     2.919646
      2.908466     2.897287     2.886107     2.874928     2.863749     2.852569     2.841390     2.830210     2.819031     2.807851
      2.796672     2.785492     2.774313     2.763134     2.751954     2.740775     2.729595     2.718416     2.707236     2.696057
      2.684877     2.673698     2.662519     2.651339     2.640160     2.628980     2.617801     2.606621     2.595442     2.584262
      2.573083     2.561903     2.550724     2.539545     2.528365     2.517186     2.506006     2.494827     2.483647     2.472468
      2.461288     2.450109     2.438930     2.427750     2.416571     2.405391     2.394212     2.383032     2.371853     2.360673
      2.349494     2.338315     2.327135     2.315956     2.304776     2.293597     2.282417     2.271238     2.260058     2.248879
      2.237700     2.226520     2.215341     2.204161     2.192982     2.181802     2.170623     2.159443     2.148264     2.137084
      2.125905     2.114726     2.103546     2.092367     2.081187     2.070008     2.058828     2.047649     2.036469     2.025290
      2.014111     2.002931     1.991752     1.980572     1.969393     1.958213     1.947034     1.935854     1.924675     1.913496
      1.902316     1.891137     1.879957     1.868778     1.857598     1.846419     1.835239     1.824060     1.812881     1.801701
      1.790522     1.779342     1.768163     1.756983     1.745804     1.734624     1.723445     1.712265     1.701086     1.689907
      1.678727     1.667548     1.656368     1.645189     1.634009     1.622830     1.611650     1.600471     1.589292     1.578112
      1.566933     1.555753     1.544574     1.533394     1.522215     1.511035     1.499856     1.488677     1.477497     1.466318
      1.455138     1.443959     1.432779     1.421600     1.410420     1.399241     1.388062     1.376882     1.365703     1.354523
      1.343344     1.332164     1.320985     1.309805     1.298626     1.287446     1.276267     1.265088     1.253908     1.242729
      1.231549     1.220370     1.209190     1.198011     1.186831     1.175652     1.164473     1.153293     1.142114     1.130934
      1.119755     1.108575     1.097396     1.086216     1.075037     1.063858     1.052678     1.041499     1.030319     1.019140
      1.007960     0.996781     0.985601     0.974422     0.963243     0.952063     0.940884     0.929704     0.918525     0.907345
      0.896166     0.884986     0.873807     0.862628     0.851448     0.840269     0.829089     0.817910     0.806730     0.795551
      0.784371     0.773192     0.762012     0.750833     0.739654     0.728474     0.717295     0.706115     0.694936     0.683756
      0.672577     0.661397     0.650218     0.639039     0.627859     0.616680     0.605500     0.594321     0.583141     0.571962
      0.560782     0.549603     0.538424     0.527244     0.516065     0.504885     0.493706     0.482526     0.471347     0.460167
      0.448988     0.437809     0.426629     0.415450     0.404270     0.393091     0.381911     0.370732     0.359552     0.348373
      0.337193     0.326014     0.314835     0.303655     0.292476     0.281296     0.270117     0.258937     0.247758     0.236578
      0.225399     0.214220     0.203040
 NY phased data points follow
   3.81298E-09  4.04503E-09  3.36033E-09  3.23195E-09  2.86546E-09  3.33209E-09  2.75626E-09  3.00643E-09  3.03193E-09  3.28327E-09
   3.40823E-09  4.14144E-09  3.71498E-09  4.35302E-09  3.73826E-09  4.44784E-09  3.96296E-09  4.00549E-09  3.29755E-09  3.50698E-09
   3.52671E-09  4.16945E-09  4.23019E-09  4.03351E-09  3.17214E-09  3.29560E-09  2.74343E-09  3.87658E-09  4.38991E-09  5.26811E-09
   5.62866E-09  5.79343E-09  5.08550E-09  4.91978E-09  4.63714E-09  4.88473E-09  4.45053E-09  4.81274E-09  4.17736E-09  4.43137E-09
   4.11982E-09  4.73588E-09  3.96591E-09  3.74914E-09  3.14702E-09  3.35876E-09  3.10485E-09  3.24715E-09  2.93422E-09  3.40716E-09
   2.69681E-09  2.46449E-09  1.86043E-09  1.75277E-09  1.77845E-09  2.07931E-09  9.58916E-10  1.20580E-09  1.77052E-09  3.24229E-09
   4.18160E-09  4.89568E-09  4.27918E-09  4.56220E-09  4.06423E-09  3.93654E-09  3.53494E-09  3.25270E-09  2.71308E-09  2.69951E-09
   2.10258E-09  1.89253E-09  5.89826E-10  2.64766E-10  3.11250E-10  2.41573E-09  4.59975E-09  6.05419E-09  5.73996E-09  5.99243E-09
   5.96208E-09  6.25563E-09  5.77510E-09  5.96263E-09  5.55755E-09  6.22470E-09  6.18924E-09  6.44128E-09  6.11995E-09  6.13187E-09
   5.63440E-09  5.82569E-09  5.12860E-09  5.54812E-09  5.17223E-09  5.26208E-09  4.50926E-09  4.91096E-09  4.30381E-09  4.93420E-09
   3.99334E-09  4.62924E-09  4.58042E-09  4.81171E-09  4.28443E-09  4.10103E-09  3.32412E-09  3.11670E-09  3.22466E-09  3.13044E-09
   3.22209E-09  3.22319E-09  2.99226E-09  3.66179E-09  3.14866E-09  3.39252E-09  3.29799E-09  3.55169E-09  3.44902E-09  3.29746E-09
   2.86744E-09  2.63004E-09  2.18354E-09  2.03932E-09  2.09208E-09  2.42243E-09  2.34656E-09  2.29207E-09  2.55339E-09  2.71176E-09
   2.86255E-09  2.63797E-09  2.69132E-09  2.35130E-09  2.05591E-09  2.59808E-09  3.57663E-09  3.85387E-09  3.80624E-09  3.48017E-09
   3.51506E-09  3.75064E-09  4.26084E-09  4.85762E-09  4.63894E-09  4.83852E-09  4.91470E-09  4.96367E-09  4.61110E-09  5.01463E-09
   4.52453E-09  4.62837E-09  4.28317E-09  4.56313E-09  4.71457E-09  4.09642E-09  4.03686E-09  4.15630E-09  3.74973E-09  4.12329E-09
   3.56839E-09  4.14874E-09  3.61147E-09  2.94800E-09  1.78691E-09  2.11507E-09  4.08976E-09  7.92285E-09  9.96674E-09  1.04936E-08
   9.94124E-09  9.74974E-09  9.44056E-09  9.49359E-09  9.09334E-09  8.72475E-09  8.60813E-09  8.46031E-09  7.66458E-09  7.00998E-09
   6.13518E-09  5.40547E-09  3.96018E-09  3.20847E-09  2.01192E-09  1.12042E-09  2.15685E-10 -1.25574E-09 -2.25460E-09 -3.21349E-09
  -4.52301E-09 -4.64519E-09 -5.56546E-09 -5.82437E-09 -6.40446E-09 -6.42988E-09 -6.10876E-09 -5.94291E-09 -5.53329E-09 -4.97272E-09
  -4.44571E-09 -4.06821E-09 -3.66173E-09 -2.95156E-09 -2.39831E-09 -2.10022E-09 -2.08304E-09 -1.84258E-09 -1.74108E-09 -1.70082E-09
  -1.63226E-09 -1.34735E-09 -1.66849E-09 -1.28565E-09 -1.73271E-09 -1.24554E-09 -1.70812E-09 -1.23919E-09 -1.18144E-09 -1.16097E-09
  -1.04852E-09 -9.61836E-10 -1.26578E-09 -1.45260E-09 -1.35683E-09 -1.02505E-09 -1.48010E-09 -1.17540E-09 -7.64402E-10 -9.31296E-10
  -1.46074E-09 -1.11284E-09 -1.05075E-09 -8.58579E-10 -1.27733E-09 -1.25354E-09 -1.16333E-09 -1.16818E-09 -1.21072E-09 -1.39562E-09
  -1.33999E-09 -1.29599E-09 -1.51994E-09 -1.11254E-09 -1.35065E-09 -8.98518E-10 -1.15601E-09 -7.89311E-10 -6.97181E-10 -6.37518E-10
  -8.47867E-10 -6.77960E-10 -1.05111E-09 -9.53239E-10 -1.23510E-09 -9.29198E-10 -1.04765E-09 -1.18615E-09 -1.10845E-09 -1.72272E-09
  -1.60410E-09 -1.56294E-09 -1.94868E-09 -1.55125E-09 -1.70109E-09 -1.62890E-09 -1.47708E-09 -1.27325E-09 -1.08338E-09 -9.36655E-10
  -7.35590E-10 -6.88222E-10 -5.36940E-10 -2.90330E-10 -3.52797E-10 -2.67646E-10 -5.27138E-10 -3.91555E-10 -6.18218E-10 -6.51512E-10
  -6.07353E-10 -6.04022E-10 -1.00248E-09 -7.99665E-10 -6.94838E-10 -9.35412E-10 -1.26420E-09 -6.66616E-10 -1.17812E-09 -8.88640E-10
  -1.05887E-09 -1.12621E-09 -1.63559E-09 -1.15540E-09 -1.26712E-09 -1.52083E-09 -1.42741E-09 -1.20693E-09 -1.69948E-09 -1.33538E-09
  -1.23137E-09 -1.26047E-09 -1.40312E-09 -1.63997E-09 -1.44639E-09 -1.54307E-09 -1.83582E-09 -1.37315E-09 -1.28711E-09 -1.37154E-09
  -1.46321E-09 -1.43737E-09 -1.58216E-09 -1.66340E-09 -1.65593E-09 -1.77365E-09 -1.74897E-09 -1.71035E-09 -1.86660E-09 -1.63005E-09
  -1.66622E-09 -1.56672E-09 -1.38811E-09 -1.76483E-09 -1.92218E-09 -1.59095E-09 -1.87614E-09 -1.76817E-09 -1.69833E-09 -1.52846E-09
  -1.92506E-09 -1.78928E-09 -1.85795E-09 -1.72802E-09 -1.69037E-09 -1.89697E-09 -1.79086E-09 -1.90648E-09 -1.88409E-09 -2.03864E-09
  -2.17058E-09 -1.84825E-09 -1.96808E-09 -1.91752E-09 -1.92436E-09 -1.70527E-09 -1.77477E-09 -1.74927E-09 -2.02190E-09 -1.94556E-09
  -2.31385E-09 -1.72092E-09 -2.04745E-09 -2.12429E-09 -1.88566E-09 -1.86718E-09 -1.80994E-09 -1.84239E-09 -1.65471E-09 -1.90433E-09
  -1.55197E-09 -2.32850E-09 -2.03176E-09
 NY points of the fit to the data follow
   3.88109E-09  4.37804E-09  4.15341E-09  3.56659E-09  3.21115E-09  3.31004E-09  3.25594E-09  2.80818E-09  2.49919E-09  2.77643E-09
   3.29314E-09  3.52820E-09  3.60914E-09  3.71223E-09  3.98972E-09  4.15151E-09  4.02092E-09  4.15844E-09  4.51508E-09  4.31829E-09
   3.70842E-09  3.24165E-09  3.22835E-09  3.33267E-09  3.47104E-09  3.65413E-09  4.05087E-09  4.51250E-09  4.78150E-09  4.74580E-09
   4.81364E-09  4.93667E-09  5.13960E-09  5.23085E-09  5.29819E-09  5.15106E-09  4.87287E-09  4.47304E-09  4.19886E-09  4.03756E-09
   3.97931E-09  3.95985E-09  3.79478E-09  3.43001E-09  3.19149E-09  3.00102E-09  2.83853E-09  2.68797E-09  2.55307E-09  2.46714E-09
   2.40239E-09  2.35544E-09  2.29997E-09  2.21741E-09  2.19305E-09  2.36966E-09  2.52948E-09  2.70482E-09  3.07941E-09  3.45993E-09
   3.65053E-09  3.79602E-09  3.93970E-09  4.08797E-09  4.16478E-09  4.08918E-09  3.95836E-09  3.89726E-09  3.65697E-09  3.31248E-09
   3.11357E-09  3.09228E-09  3.13223E-09  3.12620E-09  3.12850E-09  3.31186E-09  3.82776E-09  4.64861E-09  5.51829E-09  6.14211E-09
   6.51831E-09  6.72215E-09  6.72373E-09  6.78210E-09  7.00468E-09  7.08707E-09  6.88631E-09  6.37611E-09  5.73548E-09  5.23908E-09
   4.93597E-09  4.72023E-09  4.55790E-09  4.43107E-09  4.32366E-09  4.22984E-09  4.15175E-09  4.08703E-09  4.02867E-09  3.97056E-09
   3.92027E-09  3.88091E-09  3.84565E-09  3.81040E-09  3.77872E-09  3.75046E-09  3.72492E-09  3.70166E-09  3.68005E-09  3.65984E-09
   3.64078E-09  3.62265E-09  3.60523E-09  3.58832E-09  3.57176E-09  3.55539E-09  3.53907E-09  3.52266E-09  3.50604E-09  3.48909E-09
   3.47171E-09  3.45380E-09  3.43525E-09  3.41597E-09  3.39588E-09  3.37488E-09  3.35291E-09  3.32988E-09  3.30571E-09  3.28033E-09
   3.25366E-09  3.22565E-09  3.19621E-09  3.16529E-09  3.13282E-09  3.09874E-09  3.06297E-09  3.02550E-09  2.98635E-09  2.94554E-09
   2.90310E-09  2.85909E-09  2.81352E-09  2.76644E-09  2.71790E-09  2.66795E-09  2.61663E-09  2.56400E-09  2.51013E-09  2.45508E-09
   2.39893E-09  2.34178E-09  2.28375E-09  2.22496E-09  2.16559E-09  2.10588E-09  2.04614E-09  1.98681E-09  1.92858E-09  1.87246E-09
   1.82018E-09  1.77473E-09  1.74183E-09  1.73361E-09  1.78019E-09  1.97650E-09  2.77156E-09  6.16916E-09  9.28390E-09  1.05653E-08
   1.04646E-08  9.93714E-09  9.53550E-09  9.38442E-09  9.46482E-09  9.63452E-09  9.19905E-09  6.95784E-09  3.16653E-09  1.79840E-09
   1.29799E-09  1.02158E-09  8.32345E-10  6.86119E-10  5.64453E-10  4.58297E-10  3.62696E-10  2.74696E-10  1.92455E-10  1.14736E-10
   4.07146E-11 -3.02169E-11 -9.84655E-11 -1.64363E-10 -2.28136E-10 -2.89966E-10 -3.49984E-10 -4.08298E-10 -4.64987E-10 -5.20117E-10
  -5.73732E-10 -6.25870E-10 -6.76561E-10 -7.25821E-10 -7.73669E-10 -8.20121E-10 -8.65178E-10 -9.08846E-10 -9.51127E-10 -9.92018E-10
  -1.03152E-09 -1.06962E-09 -1.10634E-09 -1.14166E-09 -1.17556E-09 -1.20805E-09 -1.23911E-09 -1.26876E-09 -1.29697E-09 -1.32374E-09
  -1.34907E-09 -1.37294E-09 -1.39535E-09 -1.41630E-09 -1.43578E-09 -1.45377E-09 -1.47030E-09 -1.48534E-09 -1.49893E-09 -1.51113E-09
  -1.52200E-09 -1.53159E-09 -1.53996E-09 -1.54716E-09 -1.55325E-09 -1.55828E-09 -1.56231E-09 -1.56539E-09 -1.56757E-09 -1.56891E-09
  -1.56945E-09 -1.56926E-09 -1.56838E-09 -1.56686E-09 -1.56476E-09 -1.56212E-09 -1.55899E-09 -1.55542E-09 -1.55146E-09 -1.54715E-09
  -1.54255E-09 -1.53770E-09 -1.53264E-09 -1.52742E-09 -1.52208E-09 -1.51666E-09 -1.51121E-09 -1.50577E-09 -1.50037E-09 -1.49507E-09
  -1.48989E-09 -1.48487E-09 -1.48005E-09 -1.47547E-09 -1.47116E-09 -1.46715E-09 -1.46349E-09 -1.46019E-09 -1.45728E-09 -1.45481E-09
  -1.45279E-09 -1.45126E-09 -1.45024E-09 -1.44972E-09 -1.44970E-09 -1.45014E-09 -1.45103E-09 -1.45233E-09 -1.45404E-09 -1.45612E-09
  -1.45855E-09 -1.46132E-09 -1.46440E-09 -1.46776E-09 -1.47140E-09 -1.47527E-09 -1.47937E-09 -1.48367E-09 -1.48814E-09 -1.49278E-09
  -1.49755E-09 -1.50244E-09 -1.50743E-09 -1.51249E-09 -1.51760E-09 -1.52275E-09 -1.52791E-09 -1.53306E-09 -1.53819E-09 -1.54328E-09
  -1.54830E-09 -1.55323E-09 -1.55807E-09 -1.56278E-09 -1.56736E-09 -1.57178E-09 -1.57602E-09 -1.58007E-09 -1.58391E-09 -1.58753E-09
  -1.59091E-09 -1.59402E-09 -1.59686E-09 -1.59941E-09 -1.60165E-09 -1.60357E-09 -1.60516E-09 -1.60639E-09 -1.60726E-09 -1.60775E-09
  -1.60786E-09 -1.60757E-09 -1.60688E-09 -1.60576E-09 -1.60422E-09 -1.60224E-09 -1.59982E-09 -1.59693E-09 -1.59358E-09 -1.58975E-09
  -1.58544E-09 -1.58064E-09 -1.57534E-09 -1.56952E-09 -1.56320E-09 -1.55634E-09 -1.54896E-09 -1.54103E-09 -1.53256E-09 -1.52354E-09
  -1.51396E-09 -1.50382E-09 -1.49310E-09 -1.48181E-09 -1.46994E-09 -1.45749E-09 -1.44444E-09 -1.43080E-09 -1.41657E-09 -1.40173E-09
  -1.38628E-09 -1.37023E-09 -1.35356E-09 -1.33628E-09 -1.31839E-09 -1.29987E-09 -1.28073E-09 -1.26098E-09 -1.24060E-09 -1.21959E-09
  -1.19796E-09 -1.17571E-09 -1.15283E-09
 NY background values follow
     1.770E-10    1.879E-10    1.990E-10    2.104E-10    2.221E-10    2.341E-10    2.463E-10    2.588E-10    2.716E-10    2.846E-10
     2.979E-10    3.115E-10    3.254E-10    3.395E-10    3.538E-10    3.684E-10    3.833E-10    3.984E-10    4.138E-10    4.294E-10
     4.453E-10    4.615E-10    4.779E-10    4.945E-10    5.114E-10    5.285E-10    5.459E-10    5.635E-10    5.813E-10    5.994E-10
     6.177E-10    6.363E-10    6.551E-10    6.741E-10    6.934E-10    7.128E-10    7.326E-10    7.525E-10    7.727E-10    7.930E-10
     8.136E-10    8.345E-10    8.555E-10    8.768E-10    8.983E-10    9.200E-10    9.419E-10    9.640E-10    9.863E-10    1.009E-09
     1.032E-09    1.054E-09    1.077E-09    1.101E-09    1.124E-09    1.148E-09    1.172E-09    1.196E-09    1.220E-09    1.244E-09
     1.268E-09    1.293E-09    1.317E-09    1.342E-09    1.367E-09    1.392E-09    1.417E-09    1.442E-09    1.468E-09    1.493E-09
     1.519E-09    1.544E-09    1.570E-09    1.595E-09    1.621E-09    1.647E-09    1.673E-09    1.698E-09    1.724E-09    1.750E-09
     1.776E-09    1.802E-09    1.828E-09    1.854E-09    1.879E-09    1.905E-09    1.931E-09    1.957E-09    1.982E-09    2.008E-09
     2.033E-09    2.059E-09    2.084E-09    2.109E-09    2.134E-09    2.159E-09    2.183E-09    2.207E-09    2.231E-09    2.255E-09
     2.278E-09    2.301E-09    2.323E-09    2.345E-09    2.366E-09    2.386E-09    2.406E-09    2.425E-09    2.444E-09    2.462E-09
     2.478E-09    2.494E-09    2.510E-09    2.524E-09    2.537E-09    2.549E-09    2.560E-09    2.570E-09    2.579E-09    2.586E-09
     2.592E-09    2.597E-09    2.601E-09    2.603E-09    2.604E-09    2.603E-09    2.601E-09    2.597E-09    2.591E-09    2.584E-09
     2.575E-09    2.564E-09    2.551E-09    2.537E-09    2.520E-09    2.502E-09    2.482E-09    2.459E-09    2.435E-09    2.409E-09
     2.380E-09    2.350E-09    2.318E-09    2.285E-09    2.249E-09    2.212E-09    2.174E-09    2.133E-09    2.092E-09    2.049E-09
     2.004E-09    1.958E-09    1.911E-09    1.862E-09    1.812E-09    1.762E-09    1.710E-09    1.657E-09    1.603E-09    1.548E-09
     1.493E-09    1.436E-09    1.379E-09    1.321E-09    1.263E-09    1.204E-09    1.145E-09    1.085E-09    1.025E-09    9.649E-10
     9.044E-10    8.437E-10    7.830E-10    7.222E-10    6.615E-10    6.009E-10    5.405E-10    4.804E-10    4.205E-10    3.610E-10
     3.020E-10    2.434E-10    1.854E-10    1.280E-10    7.125E-11    1.512E-11   -4.034E-11   -9.512E-11   -1.492E-10   -2.025E-10
    -2.550E-10   -3.067E-10   -3.576E-10   -4.077E-10   -4.569E-10   -5.052E-10   -5.526E-10   -5.991E-10   -6.446E-10   -6.891E-10
    -7.326E-10   -7.751E-10   -8.166E-10   -8.570E-10   -8.963E-10   -9.345E-10   -9.715E-10   -1.007E-09   -1.042E-09   -1.076E-09
    -1.108E-09   -1.139E-09   -1.169E-09   -1.198E-09   -1.226E-09   -1.252E-09   -1.277E-09   -1.300E-09   -1.323E-09   -1.343E-09
    -1.363E-09   -1.381E-09   -1.398E-09   -1.414E-09   -1.428E-09   -1.441E-09   -1.452E-09   -1.462E-09   -1.471E-09   -1.478E-09
    -1.484E-09   -1.489E-09   -1.492E-09   -1.495E-09   -1.496E-09   -1.497E-09   -1.496E-09   -1.495E-09   -1.493E-09   -1.490E-09
    -1.486E-09   -1.482E-09   -1.477E-09   -1.471E-09   -1.465E-09   -1.458E-09   -1.451E-09   -1.444E-09   -1.436E-09   -1.428E-09
    -1.419E-09   -1.411E-09   -1.402E-09   -1.393E-09   -1.384E-09   -1.375E-09   -1.366E-09   -1.357E-09   -1.348E-09   -1.339E-09
    -1.331E-09   -1.322E-09   -1.314E-09   -1.306E-09   -1.299E-09   -1.292E-09   -1.285E-09   -1.278E-09   -1.272E-09   -1.267E-09
    -1.262E-09   -1.257E-09   -1.253E-09   -1.249E-09   -1.246E-09   -1.244E-09   -1.242E-09   -1.240E-09   -1.239E-09   -1.239E-09
    -1.238E-09   -1.238E-09   -1.239E-09   -1.239E-09   -1.240E-09   -1.241E-09   -1.243E-09   -1.245E-09   -1.246E-09   -1.249E-09
    -1.251E-09   -1.253E-09   -1.256E-09   -1.258E-09   -1.261E-09   -1.264E-09   -1.267E-09   -1.269E-09   -1.272E-09   -1.275E-09
    -1.278E-09   -1.280E-09   -1.283E-09   -1.285E-09   -1.288E-09   -1.290E-09   -1.292E-09   -1.294E-09   -1.296E-09   -1.297E-09
    -1.299E-09   -1.300E-09   -1.300E-09   -1.301E-09   -1.301E-09   -1.301E-09   -1.301E-09   -1.300E-09   -1.299E-09   -1.298E-09
    -1.296E-09   -1.294E-09   -1.291E-09   -1.288E-09   -1.285E-09   -1.281E-09   -1.277E-09   -1.273E-09   -1.267E-09   -1.262E-09
    -1.256E-09   -1.249E-09   -1.243E-09   -1.235E-09   -1.227E-09   -1.219E-09   -1.210E-09   -1.200E-09   -1.190E-09   -1.180E-09
    -1.169E-09   -1.157E-09   -1.145E-09   -1.132E-09   -1.119E-09   -1.105E-09   -1.091E-09   -1.076E-09   -1.060E-09   -1.044E-09
    -1.027E-09   -1.010E-09   -9.916E-10   -9.731E-10   -9.539E-10   -9.342E-10   -9.138E-10   -8.928E-10   -8.713E-10   -8.491E-10
    -8.263E-10   -8.029E-10   -7.789E-10
 GABA     Conc. = 9.06E-13
   1.76541E-10  1.87402E-10  1.98539E-10  2.09951E-10  2.21636E-10  2.33593E-10  2.45821E-10  2.58317E-10  2.71082E-10  2.84112E-10
   2.97408E-10  3.10967E-10  3.24787E-10  3.38868E-10  3.53208E-10  3.67806E-10  3.82659E-10  3.97766E-10  4.13125E-10  4.28735E-10
   4.44594E-10  4.60699E-10  4.77050E-10  4.93642E-10  5.10474E-10  5.27543E-10  5.44846E-10  5.62382E-10  5.80160E-10  5.98304E-10
   6.16776E-10  6.35342E-10  6.54273E-10  6.73676E-10  6.93227E-10  7.12939E-10  7.32932E-10  7.53181E-10  7.73618E-10  7.94159E-10
   8.14786E-10  8.35714E-10  8.56874E-10  8.77918E-10  8.99188E-10  9.20849E-10  9.42599E-10  9.64513E-10  9.86683E-10  1.00908E-09
   1.03170E-09  1.05452E-09  1.07754E-09  1.10074E-09  1.12412E-09  1.14767E-09  1.17140E-09  1.19528E-09  1.21931E-09  1.24350E-09
   1.26784E-09  1.29238E-09  1.31727E-09  1.34220E-09  1.36717E-09  1.39253E-09  1.41801E-09  1.44339E-09  1.46886E-09  1.49443E-09
   1.52008E-09  1.54571E-09  1.57125E-09  1.59678E-09  1.62253E-09  1.64811E-09  1.67350E-09  1.69922E-09  1.72496E-09  1.75062E-09
   1.77644E-09  1.80224E-09  1.82798E-09  1.85393E-09  1.87988E-09  1.90568E-09  1.93153E-09  1.95738E-09  1.98315E-09  2.00884E-09
   2.03438E-09  2.05982E-09  2.08525E-09  2.11041E-09  2.13522E-09  2.16000E-09  2.18451E-09  2.20856E-09  2.23236E-09  2.25585E-09
   2.27889E-09  2.30151E-09  2.32366E-09  2.34531E-09  2.36640E-09  2.38689E-09  2.40674E-09  2.42591E-09  2.44435E-09  2.46202E-09
   2.47887E-09  2.49486E-09  2.50995E-09  2.52409E-09  2.53723E-09  2.54933E-09  2.56036E-09  2.57025E-09  2.57896E-09  2.58645E-09
   2.59267E-09  2.59758E-09  2.60113E-09  2.60326E-09  2.60395E-09  2.60314E-09  2.60078E-09  2.59682E-09  2.59123E-09  2.58395E-09
   2.57494E-09  2.56415E-09  2.55154E-09  2.53705E-09  2.52065E-09  2.50229E-09  2.48192E-09  2.45953E-09  2.43514E-09  2.40881E-09
   2.38058E-09  2.35049E-09  2.31859E-09  2.28492E-09  2.24954E-09  2.21248E-09  2.17382E-09  2.13358E-09  2.09183E-09  2.04861E-09
   2.00400E-09  1.95802E-09  1.91074E-09  1.86223E-09  1.81252E-09  1.76168E-09  1.70978E-09  1.65686E-09  1.60299E-09  1.54822E-09
   1.49263E-09  1.43626E-09  1.37919E-09  1.32146E-09  1.26317E-09  1.20437E-09  1.14526E-09  1.08620E-09  1.02669E-09  9.66571E-10
   9.06031E-10  8.45287E-10  7.84493E-10  7.23739E-10  6.63068E-10  6.02513E-10  5.42013E-10  4.81419E-10  4.20922E-10  3.61262E-10
   3.02143E-10  2.43560E-10  1.85547E-10  1.28135E-10  7.13443E-11  1.51989E-11 -4.02691E-11 -9.50472E-11 -1.49097E-10 -2.02406E-10
  -2.54936E-10 -3.06679E-10 -3.57590E-10 -4.07664E-10 -4.56869E-10 -5.05185E-10 -5.52584E-10 -5.99048E-10 -6.44551E-10 -6.89076E-10
  -7.32598E-10 -7.75094E-10 -8.16548E-10 -8.56935E-10 -8.96236E-10 -9.34438E-10 -9.71515E-10 -1.00745E-09 -1.04223E-09 -1.07582E-09
  -1.10822E-09 -1.13941E-09 -1.16938E-09 -1.19810E-09 -1.22556E-09 -1.25174E-09 -1.27664E-09 -1.30024E-09 -1.32252E-09 -1.34347E-09
  -1.36309E-09 -1.38135E-09 -1.39824E-09 -1.41378E-09 -1.42793E-09 -1.44067E-09 -1.45203E-09 -1.46199E-09 -1.47057E-09 -1.47784E-09
  -1.48384E-09 -1.48864E-09 -1.49228E-09 -1.49481E-09 -1.49630E-09 -1.49679E-09 -1.49634E-09 -1.49500E-09 -1.49281E-09 -1.48984E-09
  -1.48612E-09 -1.48172E-09 -1.47668E-09 -1.47106E-09 -1.46489E-09 -1.45824E-09 -1.45114E-09 -1.44365E-09 -1.43581E-09 -1.42768E-09
  -1.41928E-09 -1.41068E-09 -1.40191E-09 -1.39302E-09 -1.38405E-09 -1.37505E-09 -1.36605E-09 -1.35709E-09 -1.34822E-09 -1.33948E-09
  -1.33089E-09 -1.32251E-09 -1.31436E-09 -1.30647E-09 -1.29890E-09 -1.29166E-09 -1.28479E-09 -1.27832E-09 -1.27228E-09 -1.26671E-09
  -1.26162E-09 -1.25704E-09 -1.25301E-09 -1.24951E-09 -1.24653E-09 -1.24405E-09 -1.24204E-09 -1.24048E-09 -1.23934E-09 -1.23861E-09
  -1.23827E-09 -1.23828E-09 -1.23863E-09 -1.23929E-09 -1.24025E-09 -1.24147E-09 -1.24294E-09 -1.24464E-09 -1.24655E-09 -1.24864E-09
  -1.25089E-09 -1.25328E-09 -1.25578E-09 -1.25840E-09 -1.26108E-09 -1.26383E-09 -1.26661E-09 -1.26941E-09 -1.27220E-09 -1.27498E-09
  -1.27771E-09 -1.28038E-09 -1.28298E-09 -1.28547E-09 -1.28785E-09 -1.29009E-09 -1.29218E-09 -1.29410E-09 -1.29583E-09 -1.29735E-09
  -1.29866E-09 -1.29972E-09 -1.30053E-09 -1.30108E-09 -1.30133E-09 -1.30129E-09 -1.30093E-09 -1.30023E-09 -1.29919E-09 -1.29780E-09
  -1.29605E-09 -1.29391E-09 -1.29139E-09 -1.28846E-09 -1.28513E-09 -1.28138E-09 -1.27720E-09 -1.27259E-09 -1.26752E-09 -1.26200E-09
  -1.25601E-09 -1.24955E-09 -1.24261E-09 -1.23517E-09 -1.22724E-09 -1.21880E-09 -1.20984E-09 -1.20037E-09 -1.19037E-09 -1.17983E-09
  -1.16875E-09 -1.15713E-09 -1.14495E-09 -1.13222E-09 -1.11892E-09 -1.10505E-09 -1.09061E-09 -1.07560E-09 -1.06000E-09 -1.04382E-09
  -1.02704E-09 -1.00968E-09 -9.91722E-10 -9.73166E-10 -9.54009E-10 -9.34249E-10 -9.13886E-10 -8.92919E-10 -8.71342E-10 -8.49160E-10
  -8.26368E-10 -8.02968E-10 -7.78958E-10
 Glc      Conc. = 1.83E-10
   2.24761E-11  9.33056E-11  1.41755E-10  1.88716E-10  2.35540E-10  2.93864E-10  3.37529E-10  3.77296E-10  3.98641E-10  3.75143E-10
   3.50014E-10  3.31069E-10  3.09639E-10  3.10720E-10  3.77093E-10  4.88076E-10  6.00129E-10  6.98763E-10  7.67012E-10  8.13405E-10
   8.72135E-10  9.38262E-10  1.00002E-09  1.06938E-09  1.11041E-09  1.08593E-09  1.04474E-09  1.01952E-09  1.01324E-09  1.02161E-09
   1.02572E-09  1.02290E-09  1.02931E-09  1.03692E-09  1.03252E-09  1.03097E-09  1.03701E-09  1.03980E-09  1.03963E-09  1.04284E-09
   1.04907E-09  1.05737E-09  1.06740E-09  1.07881E-09  1.09139E-09  1.10499E-09  1.11950E-09  1.13480E-09  1.15082E-09  1.16749E-09
   1.18475E-09  1.20255E-09  1.22086E-09  1.23963E-09  1.25883E-09  1.27844E-09  1.29842E-09  1.31876E-09  1.33943E-09  1.36042E-09
   1.38169E-09  1.40325E-09  1.42506E-09  1.44713E-09  1.46942E-09  1.49193E-09  1.51464E-09  1.53755E-09  1.56063E-09  1.58388E-09
   1.60729E-09  1.63084E-09  1.65452E-09  1.67833E-09  1.70225E-09  1.72626E-09  1.75037E-09  1.77456E-09  1.79882E-09  1.82314E-09
   1.84751E-09  1.87192E-09  1.89636E-09  1.92082E-09  1.94529E-09  1.96976E-09  1.99422E-09  2.01867E-09  2.04309E-09  2.06747E-09
   2.09180E-09  2.11608E-09  2.14028E-09  2.16436E-09  2.18829E-09  2.21204E-09  2.23556E-09  2.25881E-09  2.28176E-09  2.30437E-09
   2.32660E-09  2.34841E-09  2.36975E-09  2.39059E-09  2.41088E-09  2.43059E-09  2.44967E-09  2.46807E-09  2.48575E-09  2.50268E-09
   2.51880E-09  2.53407E-09  2.54845E-09  2.56189E-09  2.57434E-09  2.58577E-09  2.59612E-09  2.60535E-09  2.61342E-09  2.62027E-09
   2.62586E-09  2.63015E-09  2.63308E-09  2.63462E-09  2.63471E-09  2.63330E-09  2.63036E-09  2.62584E-09  2.61968E-09  2.61184E-09
   2.60227E-09  2.59093E-09  2.57778E-09  2.56276E-09  2.54583E-09  2.52694E-09  2.50606E-09  2.48315E-09  2.45825E-09  2.43142E-09
   2.40269E-09  2.37210E-09  2.33971E-09  2.30555E-09  2.26969E-09  2.23216E-09  2.19301E-09  2.15230E-09  2.11009E-09  2.06641E-09
   2.02133E-09  1.97490E-09  1.92719E-09  1.87823E-09  1.82811E-09  1.77687E-09  1.72459E-09  1.67133E-09  1.61719E-09  1.56223E-09
   1.50659E-09  1.45043E-09  1.39401E-09  1.33785E-09  1.28319E-09  1.23407E-09  1.21123E-09  1.28188E-09  1.32939E-09  1.30921E-09
   1.24350E-09  1.16617E-09  1.09471E-09  1.03231E-09  9.77960E-10  9.25384E-10  8.47202E-10  7.01838E-10  5.11261E-10  4.14416E-10
   3.41390E-10  2.75519E-10  2.12948E-10  1.52365E-10  9.32096E-11  3.52098E-11 -2.17678E-11 -7.78111E-11 -1.32947E-10 -1.87204E-10
  -2.40576E-10 -2.93077E-10 -3.44678E-10 -3.95386E-10 -4.45177E-10 -4.94041E-10 -5.41953E-10 -5.88901E-10 -6.34863E-10 -6.79826E-10
  -7.23764E-10 -7.66662E-10 -8.08501E-10 -8.49258E-10 -8.88917E-10 -9.27466E-10 -9.64880E-10 -1.00114E-09 -1.03624E-09 -1.07014E-09
  -1.10285E-09 -1.13433E-09 -1.16458E-09 -1.19359E-09 -1.22132E-09 -1.24778E-09 -1.27294E-09 -1.29680E-09 -1.31934E-09 -1.34054E-09
  -1.36041E-09 -1.37891E-09 -1.39605E-09 -1.41181E-09 -1.42620E-09 -1.43917E-09 -1.45076E-09 -1.46094E-09 -1.46974E-09 -1.47722E-09
