 LCModel (Version 6.3-1R) Copyright: S.W. Provencher.          Ref.: Magn. Reson. Med. 30:672-679 (1993).                
 onepulse 29x15_ftSpec_smooth_lcm
 26 lines in following concentration table = NCONC+1
    Conc.  %SD   /Cr    Metabolite                                         
    0.000 999%   0.000 Ala                                                 
    0.000 999%   0.000 Asp                                                 
    0.000 999%   0.000 Cr                                                  
 1.17E-09  44%   0.000 GABA                                                
 1.44E-09  36%   0.000 Glc                                                 
    0.000 999%   0.000 Gln                                                 
 5.86E-10  94%   0.000 Glu                                                 
    0.000 999%   0.000 Glyc                                                
 7.97E-11 112%   0.000 GPC                                                 
 1.80E-10 181%   0.000 GSH                                                 
 3.24E-11 999%   0.000 Ins                                                 
    0.000 999%   0.000 Lac                                                 
    0.000 999%   0.000 NAAG                                                
 6.70E-10  42%   0.000 NAA                                                 
    0.000 999%   0.000 PCh                                                 
    0.000 999%   0.000 PCr                                                 
    0.000 999%   0.000 PE                                                  
    0.000 999%   0.000 Scyllo                                              
 4.53E-10 118%   0.000 Ser                                                 
    0.000 999%   0.000 Tau                                                 
 7.97E-11 112%   0.000 GPC+PCh                                             
 6.70E-10  42%   0.000 NAA+NAAG                                            
 3.24E-11 999%   0.000 Ins+Glyc                                            
    0.000 999%   0.000 Cr+PCr                                              
 5.86E-10  94%   0.000 Glu+Gln                                             
   6 lines in following misc. output table
  FWHM = 0.056 ppm    S/N =   2                                            
  Data shift = 0.291 ppm                                                   
  Ph: -37 deg     -10.1 deg/ppm                                            
  alphaB,S = 2.3E-01,   2.6E+01                                            
   10 spline knots.   Ns = 5(1)                                            
  ( 7) 4 infls.   ( 5) 1 extrs.                                            
  363 points on ppm-axis = NY
      4.250000     4.238821     4.227641     4.216462     4.205282     4.194103     4.182923     4.171744     4.160564     4.149385
      4.138206     4.127026     4.115847     4.104667     4.093488     4.082308     4.071129     4.059949     4.048770     4.037591
      4.026411     4.015232     4.004052     3.992873     3.981693     3.970514     3.959334     3.948155     3.936975     3.925796
      3.914617     3.903437     3.892258     3.881078     3.869899     3.858719     3.847540     3.836360     3.825181     3.814002
      3.802822     3.791643     3.780463     3.769284     3.758104     3.746925     3.735745     3.724566     3.713387     3.702207
      3.691028     3.679848     3.668669     3.657489     3.646310     3.635130     3.623951     3.612772     3.601592     3.590413
      3.579233     3.568054     3.556874     3.545695     3.534515     3.523336     3.512156     3.500977     3.489798     3.478618
      3.467439     3.456259     3.445080     3.433900     3.422721     3.411541     3.400362     3.389183     3.378003     3.366824
      3.355644     3.344465     3.333285     3.322106     3.310926     3.299747     3.288568     3.277388     3.266209     3.255029
      3.243850     3.232670     3.221491     3.210311     3.199132     3.187953     3.176773     3.165594     3.154414     3.143235
      3.132055     3.120876     3.109696     3.098517     3.087337     3.076158     3.064979     3.053799     3.042620     3.031440
      3.020261     3.009081     2.997902     2.986722     2.975543     2.964364     2.953184     2.942005     2.930825     2.919646
      2.908466     2.897287     2.886107     2.874928     2.863749     2.852569     2.841390     2.830210     2.819031     2.807851
      2.796672     2.785492     2.774313     2.763134     2.751954     2.740775     2.729595     2.718416     2.707236     2.696057
      2.684877     2.673698     2.662519     2.651339     2.640160     2.628980     2.617801     2.606621     2.595442     2.584262
      2.573083     2.561903     2.550724     2.539545     2.528365     2.517186     2.506006     2.494827     2.483647     2.472468
      2.461288     2.450109     2.438930     2.427750     2.416571     2.405391     2.394212     2.383032     2.371853     2.360673
      2.349494     2.338315     2.327135     2.315956     2.304776     2.293597     2.282417     2.271238     2.260058     2.248879
      2.237700     2.226520     2.215341     2.204161     2.192982     2.181802     2.170623     2.159443     2.148264     2.137084
      2.125905     2.114726     2.103546     2.092367     2.081187     2.070008     2.058828     2.047649     2.036469     2.025290
      2.014111     2.002931     1.991752     1.980572     1.969393     1.958213     1.947034     1.935854     1.924675     1.913496
      1.902316     1.891137     1.879957     1.868778     1.857598     1.846419     1.835239     1.824060     1.812881     1.801701
      1.790522     1.779342     1.768163     1.756983     1.745804     1.734624     1.723445     1.712265     1.701086     1.689907
      1.678727     1.667548     1.656368     1.645189     1.634009     1.622830     1.611650     1.600471     1.589292     1.578112
      1.566933     1.555753     1.544574     1.533394     1.522215     1.511035     1.499856     1.488677     1.477497     1.466318
      1.455138     1.443959     1.432779     1.421600     1.410420     1.399241     1.388062     1.376882     1.365703     1.354523
      1.343344     1.332164     1.320985     1.309805     1.298626     1.287446     1.276267     1.265088     1.253908     1.242729
      1.231549     1.220370     1.209190     1.198011     1.186831     1.175652     1.164473     1.153293     1.142114     1.130934
      1.119755     1.108575     1.097396     1.086216     1.075037     1.063858     1.052678     1.041499     1.030319     1.019140
      1.007960     0.996781     0.985601     0.974422     0.963243     0.952063     0.940884     0.929704     0.918525     0.907345
      0.896166     0.884986     0.873807     0.862628     0.851448     0.840269     0.829089     0.817910     0.806730     0.795551
      0.784371     0.773192     0.762012     0.750833     0.739654     0.728474     0.717295     0.706115     0.694936     0.683756
      0.672577     0.661397     0.650218     0.639039     0.627859     0.616680     0.605500     0.594321     0.583141     0.571962
      0.560782     0.549603     0.538424     0.527244     0.516065     0.504885     0.493706     0.482526     0.471347     0.460167
      0.448988     0.437809     0.426629     0.415450     0.404270     0.393091     0.381911     0.370732     0.359552     0.348373
      0.337193     0.326014     0.314835     0.303655     0.292476     0.281296     0.270117     0.258937     0.247758     0.236578
      0.225399     0.214220     0.203040
 NY phased data points follow
   7.94250E-09  6.80631E-09  8.86063E-09  9.95659E-09  1.20885E-08  1.30668E-08  1.45120E-08  1.38506E-08  1.26297E-08  1.14460E-08
   1.05801E-08  9.87701E-09  9.31875E-09  8.91029E-09  9.32707E-09  8.74457E-09  8.90193E-09  9.11978E-09  9.55662E-09  9.70069E-09
   1.00134E-08  9.98584E-09  9.44031E-09  8.86121E-09  9.07618E-09  9.08349E-09  8.06864E-09  7.60068E-09  7.92943E-09  7.91984E-09
   8.55090E-09  8.63106E-09  8.43313E-09  7.72514E-09  7.84696E-09  7.94246E-09  7.99503E-09  9.13916E-09  9.40772E-09  9.24901E-09
   8.82935E-09  7.72669E-09  6.55003E-09  5.99196E-09  5.92805E-09  5.56442E-09  5.21427E-09  5.23636E-09  4.74034E-09  4.71758E-09
   4.20377E-09  4.21773E-09  3.93131E-09  4.25055E-09  3.87056E-09  3.45286E-09  3.70812E-09  3.54502E-09  3.91545E-09  4.03669E-09
   3.42278E-09  3.65783E-09  3.57188E-09  3.82171E-09  4.56412E-09  4.28221E-09  4.89792E-09  6.33123E-09  6.89757E-09  8.44437E-09
   8.09071E-09  7.33654E-09  6.20152E-09  5.28617E-09  4.35023E-09  3.97096E-09  4.00334E-09  3.38033E-09  3.26323E-09  3.08698E-09
   3.77288E-09  3.73967E-09  3.97334E-09  5.86191E-09  8.19993E-09  1.01614E-08  1.11104E-08  1.04235E-08  8.87179E-09  8.04900E-09
   7.32934E-09  6.46779E-09  5.29651E-09  4.98292E-09  4.63736E-09  5.01338E-09  4.41906E-09  3.64730E-09  3.25241E-09  2.65787E-09
   2.29180E-09  1.95107E-09  1.61445E-09  2.06768E-09  1.60867E-09  1.22338E-09  1.18292E-09  1.47877E-09  1.21359E-09  1.58319E-09
   1.67298E-10  1.08303E-09  3.89079E-10  3.25279E-10 -6.15976E-10 -3.72007E-10 -9.44490E-10 -2.24546E-10  3.12331E-10  1.58832E-10
   2.55120E-10  3.44945E-10  4.16914E-10  5.91879E-10  8.06552E-10  7.75076E-10  6.30871E-10  2.85392E-10  4.06272E-12 -1.62504E-11
  -1.04678E-09 -9.51859E-10 -5.21438E-10  4.17572E-11  8.16562E-10  2.57774E-10  3.18570E-10  7.22096E-10  1.07254E-09  7.36994E-10
   1.22963E-09  1.45562E-09  1.45333E-09  1.42275E-09  2.31729E-09  3.11349E-09  3.04625E-09  3.36189E-09  3.05351E-09  2.96558E-09
   3.16579E-09  3.43283E-09  3.89891E-09  3.15665E-09  2.77127E-09  2.76091E-09  2.73331E-09  1.85805E-09  1.73685E-09  1.81666E-09
   1.51157E-09  1.64267E-09  1.79929E-09  1.74412E-09  1.14664E-09  1.32104E-09  1.38868E-09  1.51558E-09  9.85368E-10  1.78785E-09
   1.02463E-09  1.79749E-09  1.84168E-09  2.73250E-09  3.83260E-09  6.80685E-09  7.59160E-09  8.14392E-09  6.17349E-09  3.38918E-09
   1.05897E-09 -4.51309E-10 -1.58826E-09 -3.28026E-09 -4.07037E-09 -5.20392E-09 -6.68620E-09 -7.57531E-09 -8.66697E-09 -9.76988E-09
  -1.10593E-08 -1.20993E-08 -1.33974E-08 -1.40016E-08 -1.57543E-08 -1.63814E-08 -1.72878E-08 -1.84343E-08 -1.88400E-08 -1.97583E-08
  -1.97031E-08 -1.88452E-08 -1.95652E-08 -1.86073E-08 -1.77525E-08 -1.61191E-08 -1.46807E-08 -1.26284E-08 -1.06020E-08 -9.37528E-09
  -7.24424E-09 -4.85754E-09 -3.31449E-09 -1.06345E-09 -5.92350E-10  6.38805E-10  8.81801E-10  1.50477E-09  1.87864E-09  1.31898E-09
   8.67600E-10  6.49136E-10  7.02790E-10  1.47282E-10 -2.75442E-10 -2.60508E-12 -5.90717E-10  5.56890E-10 -3.43804E-10  1.74446E-10
  -3.41194E-10  3.56671E-10 -1.70658E-10 -4.03155E-10 -3.12411E-10  5.79529E-11 -4.28536E-10 -1.74305E-13 -5.60547E-10 -2.11732E-10
  -3.52211E-10  1.24310E-10  4.39532E-10  3.23314E-10  4.36592E-10 -3.78545E-10 -4.74648E-10 -2.53177E-10 -5.92821E-10 -5.05569E-11
   2.68025E-10 -8.06213E-11  3.55802E-10  5.82981E-10  3.46598E-10  1.08708E-09  4.37006E-11  1.01941E-09  5.50692E-10  4.90193E-10
  -1.79952E-10  1.69302E-10 -2.38700E-10 -2.47565E-10 -4.74876E-10  5.58458E-11 -4.40650E-10  1.57643E-10 -1.83433E-10 -2.83604E-11
   2.64718E-10  6.14292E-10  8.42167E-10  1.03578E-09  8.25179E-10  1.29906E-09  8.35858E-10  1.85358E-09  9.87275E-10  1.56825E-09
   1.47729E-09  8.31944E-10  1.09960E-09  9.24598E-10  8.06470E-10  5.02402E-10 -2.70956E-10  3.44663E-10 -1.75423E-10  1.76214E-10
   1.24034E-10  4.01843E-10  1.22291E-10  2.17641E-10  3.55715E-10  4.66935E-10  2.98212E-10  6.17473E-10 -8.32866E-11  4.44246E-10
   2.83301E-10  9.30107E-11  2.30019E-10  6.26867E-10  4.91511E-10  5.60555E-10  8.19489E-11  6.09547E-10 -1.11713E-10  8.48801E-10
   7.59408E-10  1.05501E-09  6.78580E-10  1.25888E-09  5.18317E-10  1.10060E-09  8.45898E-10  8.91348E-10  9.58038E-10  1.53428E-09
   8.84798E-10  1.24657E-09  7.32667E-10  1.35742E-09  5.75282E-10  1.39881E-09  1.39847E-09  1.57036E-09  1.35854E-09  1.67878E-09
   1.49916E-09  1.97913E-09  1.08663E-09  1.97115E-09  1.45981E-09  1.85000E-09  1.47431E-09  1.49189E-09  1.42459E-09  2.00766E-09
   1.28407E-09  1.72417E-09  1.82392E-09  2.26117E-09  1.45385E-09  1.92086E-09  1.69848E-09  2.08972E-09  1.66669E-09  2.56109E-09
   2.29876E-09  2.10206E-09  2.03081E-09  2.29038E-09  2.11280E-09  2.06033E-09  1.84068E-09  2.18286E-09  1.97997E-09  2.57848E-09
   2.77508E-09  2.71974E-09  1.79695E-09
 NY points of the fit to the data follow
   8.94730E-09  9.16467E-09  9.42939E-09  1.00875E-08  1.08434E-08  1.14918E-08  1.17974E-08  1.18035E-08  1.13126E-08  1.03948E-08
   9.60472E-09  9.04675E-09  8.65547E-09  8.43652E-09  8.41755E-09  8.45739E-09  8.56250E-09  8.78559E-09  9.03793E-09  9.36269E-09
   9.86228E-09  1.03785E-08  1.06658E-08  1.06177E-08  1.00377E-08  9.07722E-09  8.33649E-09  7.94322E-09  7.85593E-09  8.03850E-09
   8.28838E-09  8.47918E-09  8.63558E-09  8.49708E-09  8.00307E-09  7.73645E-09  7.80506E-09  7.91001E-09  7.97129E-09  7.97982E-09
   7.95926E-09  7.99896E-09  7.77324E-09  7.19180E-09  6.79515E-09  6.44150E-09  5.89341E-09  5.37664E-09  5.03112E-09  4.83378E-09
   4.72024E-09  4.63500E-09  4.52633E-09  4.37297E-09  4.22287E-09  4.14443E-09  4.17261E-09  4.28554E-09  4.39085E-09  4.42086E-09
   4.34655E-09  4.25571E-09  4.35534E-09  4.54491E-09  4.84892E-09  5.34145E-09  5.80394E-09  6.11713E-09  6.43699E-09  6.71324E-09
   6.93824E-09  6.93460E-09  6.54306E-09  5.99308E-09  5.61621E-09  4.92251E-09  4.31916E-09  4.59389E-09  5.02979E-09  5.36439E-09
   5.74956E-09  6.19064E-09  6.79707E-09  7.64832E-09  8.59422E-09  9.25396E-09  9.13072E-09  7.97997E-09  6.21959E-09  5.33991E-09
   4.96668E-09  4.79545E-09  4.73761E-09  4.48985E-09  4.17998E-09  4.08140E-09  3.83552E-09  3.44971E-09  3.22487E-09  3.02113E-09
   2.78582E-09  2.59583E-09  2.44072E-09  2.30897E-09  2.19347E-09  2.08979E-09  1.99517E-09  1.90782E-09  1.82644E-09  1.74993E-09
   1.67730E-09  1.60758E-09  1.54032E-09  1.47515E-09  1.41180E-09  1.35004E-09  1.28955E-09  1.22997E-09  1.17111E-09  1.11278E-09
   1.05482E-09  9.97135E-10  9.39559E-10  8.81966E-10  8.24234E-10  7.66267E-10  7.07944E-10  6.49180E-10  5.89896E-10  5.30002E-10
   4.69416E-10  4.08070E-10  3.45895E-10  2.82819E-10  2.18787E-10  1.53729E-10  8.75888E-11  2.02996E-11 -4.81824E-11 -1.17900E-10
  -1.88904E-10 -2.61233E-10 -3.34927E-10 -4.10036E-10 -4.86592E-10 -5.64609E-10 -6.44105E-10 -7.25084E-10 -8.07556E-10 -8.91509E-10
  -9.76931E-10 -1.06377E-09 -1.15195E-09 -1.24138E-09 -1.33192E-09 -1.42337E-09 -1.51539E-09 -1.60743E-09 -1.69864E-09 -1.78792E-09
  -1.87366E-09 -1.95341E-09 -2.02311E-09 -2.07523E-09 -2.09344E-09 -2.03250E-09 -1.70260E-09 -5.06462E-10  7.37833E-10  1.66538E-09
   2.40530E-09  3.32731E-09  4.67319E-09  6.35562E-09  7.78934E-09  7.95841E-09  5.92426E-09  1.81533E-09 -2.34078E-09 -3.52023E-09
  -3.96617E-09 -4.22074E-09 -4.40135E-09 -4.54587E-09 -4.66971E-09 -4.78012E-09 -4.88083E-09 -4.97391E-09 -5.06051E-09 -5.14131E-09
  -5.21670E-09 -5.28687E-09 -5.35192E-09 -5.41183E-09 -5.46659E-09 -5.51611E-09 -5.56029E-09 -5.59901E-09 -5.63214E-09 -5.65954E-09
  -5.68107E-09 -5.69658E-09 -5.70590E-09 -5.70889E-09 -5.70539E-09 -5.69524E-09 -5.67828E-09 -5.65436E-09 -5.62340E-09 -5.58562E-09
  -5.54124E-09 -5.49052E-09 -5.43368E-09 -5.37098E-09 -5.30264E-09 -5.22890E-09 -5.15001E-09 -5.06620E-09 -4.97769E-09 -4.88474E-09
  -4.78757E-09 -4.68642E-09 -4.58153E-09 -4.47312E-09 -4.36143E-09 -4.24669E-09 -4.12914E-09 -4.00900E-09 -3.88651E-09 -3.76189E-09
  -3.63537E-09 -3.50718E-09 -3.37755E-09 -3.24671E-09 -3.11488E-09 -2.98227E-09 -2.84912E-09 -2.71565E-09 -2.58208E-09 -2.44863E-09
  -2.31552E-09 -2.18296E-09 -2.05117E-09 -1.92037E-09 -1.79077E-09 -1.66258E-09 -1.53602E-09 -1.41128E-09 -1.28859E-09 -1.16815E-09
  -1.05016E-09 -9.34830E-10 -8.22365E-10 -7.12956E-10 -6.06804E-10 -5.04104E-10 -4.05062E-10 -3.09869E-10 -2.18704E-10 -1.31772E-10
  -4.91074E-11  2.93911E-11  1.03834E-10  1.74354E-10  2.41063E-10  3.04075E-10  3.63513E-10  4.19485E-10  4.72120E-10  5.21525E-10
   5.67809E-10  6.11102E-10  6.51500E-10  6.89137E-10  7.24122E-10  7.56549E-10  7.86552E-10  8.14229E-10  8.39708E-10  8.63071E-10
   8.84458E-10  9.03945E-10  9.21682E-10  9.37751E-10  9.52248E-10  9.65292E-10  9.77005E-10  9.87472E-10  9.96792E-10  1.00507E-09
   1.01242E-09  1.01895E-09  1.02475E-09  1.02990E-09  1.03453E-09  1.03871E-09  1.04257E-09  1.04618E-09  1.04965E-09  1.05305E-09
   1.05649E-09  1.06009E-09  1.06389E-09  1.06802E-09  1.07255E-09  1.07755E-09  1.08314E-09  1.08941E-09  1.09639E-09  1.10423E-09
   1.11297E-09  1.12268E-09  1.13340E-09  1.14508E-09  1.15766E-09  1.17111E-09  1.18540E-09  1.20047E-09  1.21631E-09  1.23286E-09
   1.25009E-09  1.26795E-09  1.28643E-09  1.30546E-09  1.32503E-09  1.34509E-09  1.36561E-09  1.38655E-09  1.40788E-09  1.42955E-09
   1.45154E-09  1.47381E-09  1.49633E-09  1.51906E-09  1.54197E-09  1.56503E-09  1.58820E-09  1.61146E-09  1.63476E-09  1.65808E-09
   1.68138E-09  1.70464E-09  1.72783E-09  1.75091E-09  1.77386E-09  1.79664E-09  1.81923E-09  1.84160E-09  1.86372E-09  1.88556E-09
   1.90710E-09  1.92830E-09  1.94915E-09  1.96962E-09  1.98967E-09  2.00930E-09  2.02846E-09  2.04715E-09  2.06532E-09  2.08297E-09
   2.10007E-09  2.11660E-09  2.13252E-09
 NY background values follow
     6.123E-09    6.065E-09    6.007E-09    5.947E-09    5.887E-09    5.826E-09    5.764E-09    5.701E-09    5.638E-09    5.575E-09
     5.510E-09    5.445E-09    5.380E-09    5.314E-09    5.248E-09    5.181E-09    5.114E-09    5.046E-09    4.978E-09    4.910E-09
     4.841E-09    4.773E-09    4.704E-09    4.635E-09    4.566E-09    4.497E-09    4.428E-09    4.358E-09    4.289E-09    4.220E-09
     4.151E-09    4.082E-09    4.014E-09    3.945E-09    3.877E-09    3.809E-09    3.742E-09    3.675E-09    3.608E-09    3.542E-09
     3.477E-09    3.412E-09    3.347E-09    3.283E-09    3.220E-09    3.158E-09    3.096E-09    3.035E-09    2.975E-09    2.916E-09
     2.857E-09    2.800E-09    2.744E-09    2.689E-09    2.634E-09    2.581E-09    2.529E-09    2.478E-09    2.428E-09    2.378E-09
     2.330E-09    2.282E-09    2.236E-09    2.190E-09    2.145E-09    2.101E-09    2.058E-09    2.015E-09    1.973E-09    1.932E-09
     1.892E-09    1.853E-09    1.814E-09    1.776E-09    1.738E-09    1.701E-09    1.665E-09    1.629E-09    1.594E-09    1.559E-09
     1.525E-09    1.491E-09    1.458E-09    1.425E-09    1.393E-09    1.361E-09    1.329E-09    1.298E-09    1.267E-09    1.236E-09
     1.205E-09    1.175E-09    1.145E-09    1.115E-09    1.086E-09    1.056E-09    1.026E-09    9.971E-10    9.677E-10    9.384E-10
     9.091E-10    8.798E-10    8.503E-10    8.209E-10    7.912E-10    7.615E-10    7.315E-10    7.013E-10    6.708E-10    6.400E-10
     6.089E-10    5.773E-10    5.452E-10    5.127E-10    4.796E-10    4.459E-10    4.116E-10    3.766E-10    3.408E-10    3.043E-10
     2.670E-10    2.288E-10    1.897E-10    1.496E-10    1.086E-10    6.645E-11    2.325E-11   -2.108E-11   -6.660E-11   -1.133E-10
    -1.614E-10   -2.107E-10   -2.614E-10   -3.135E-10   -3.671E-10   -4.221E-10   -4.787E-10   -5.369E-10   -5.968E-10   -6.583E-10
    -7.215E-10   -7.865E-10   -8.533E-10   -9.220E-10   -9.926E-10   -1.065E-09   -1.140E-09   -1.216E-09   -1.295E-09   -1.376E-09
    -1.459E-09   -1.544E-09   -1.631E-09   -1.721E-09   -1.813E-09   -1.907E-09   -2.004E-09   -2.103E-09   -2.204E-09   -2.307E-09
    -2.412E-09   -2.518E-09   -2.626E-09   -2.735E-09   -2.844E-09   -2.955E-09   -3.066E-09   -3.177E-09   -3.288E-09   -3.400E-09
    -3.511E-09   -3.622E-09   -3.732E-09   -3.842E-09   -3.950E-09   -4.058E-09   -4.164E-09   -4.268E-09   -4.371E-09   -4.472E-09
    -4.571E-09   -4.667E-09   -4.761E-09   -4.853E-09   -4.941E-09   -5.027E-09   -5.109E-09   -5.188E-09   -5.263E-09   -5.335E-09
    -5.402E-09   -5.466E-09   -5.525E-09   -5.580E-09   -5.630E-09   -5.675E-09   -5.715E-09   -5.750E-09   -5.779E-09   -5.803E-09
    -5.822E-09   -5.834E-09   -5.840E-09   -5.840E-09   -5.834E-09   -5.821E-09   -5.801E-09   -5.775E-09   -5.741E-09   -5.701E-09
    -5.654E-09   -5.601E-09   -5.541E-09   -5.476E-09   -5.406E-09   -5.330E-09   -5.248E-09   -5.162E-09   -5.072E-09   -4.976E-09
    -4.877E-09   -4.774E-09   -4.667E-09   -4.556E-09   -4.442E-09   -4.326E-09   -4.206E-09   -4.084E-09   -3.959E-09   -3.833E-09
    -3.704E-09   -3.574E-09   -3.443E-09   -3.310E-09   -3.176E-09   -3.042E-09   -2.907E-09   -2.771E-09   -2.636E-09   -2.501E-09
    -2.366E-09   -2.232E-09   -2.098E-09   -1.965E-09   -1.834E-09   -1.704E-09   -1.576E-09   -1.450E-09   -1.325E-09   -1.203E-09
    -1.084E-09   -9.666E-10   -8.525E-10   -7.415E-10   -6.338E-10   -5.296E-10   -4.290E-10   -3.322E-10   -2.396E-10   -1.511E-10
    -6.695E-11    1.303E-11    8.894E-11    1.609E-10    2.291E-10    2.935E-10    3.544E-10    4.118E-10    4.658E-10    5.166E-10
     5.643E-10    6.089E-10    6.507E-10    6.897E-10    7.260E-10    7.597E-10    7.911E-10    8.200E-10    8.468E-10    8.715E-10
     8.941E-10    9.149E-10    9.339E-10    9.512E-10    9.669E-10    9.812E-10    9.941E-10    1.006E-09    1.016E-09    1.026E-09
     1.034E-09    1.042E-09    1.049E-09    1.055E-09    1.061E-09    1.066E-09    1.071E-09    1.076E-09    1.081E-09    1.085E-09
     1.090E-09    1.094E-09    1.099E-09    1.105E-09    1.110E-09    1.116E-09    1.123E-09    1.130E-09    1.138E-09    1.147E-09
     1.157E-09    1.168E-09    1.179E-09    1.192E-09    1.206E-09    1.220E-09    1.235E-09    1.251E-09    1.268E-09    1.286E-09
     1.304E-09    1.323E-09    1.342E-09    1.362E-09    1.383E-09    1.404E-09    1.425E-09    1.447E-09    1.469E-09    1.492E-09
     1.515E-09    1.538E-09    1.561E-09    1.585E-09    1.609E-09    1.633E-09    1.657E-09    1.681E-09    1.705E-09    1.729E-09
     1.753E-09    1.777E-09    1.801E-09    1.825E-09    1.849E-09    1.873E-09    1.896E-09    1.919E-09    1.942E-09    1.965E-09
     1.987E-09    2.009E-09    2.031E-09    2.052E-09    2.073E-09    2.093E-09    2.113E-09    2.133E-09    2.151E-09    2.170E-09
     2.188E-09    2.205E-09    2.222E-09
 GABA     Conc. = 1.17E-09
   5.85435E-09  5.79252E-09  5.72969E-09  5.66588E-09  5.60108E-09  5.53533E-09  5.46864E-09  5.40102E-09  5.33247E-09  5.26301E-09
   5.19267E-09  5.12141E-09  5.04928E-09  4.97627E-09  4.90239E-09  4.82766E-09  4.75203E-09  4.67549E-09  4.59814E-09  4.51985E-09
   4.44068E-09  4.36066E-09  4.27977E-09  4.19813E-09  4.11617E-09  4.03439E-09  3.95451E-09  3.88051E-09  3.82524E-09  3.84555E-09
   3.89158E-09  3.90660E-09  4.03968E-09  4.28946E-09  4.54780E-09  4.85840E-09  5.22591E-09  5.58066E-09  5.83888E-09  5.96280E-09
   5.99707E-09  6.05146E-09  5.82512E-09  5.25790E-09  4.93523E-09  4.69597E-09  4.24246E-09  3.86568E-09  3.61184E-09  3.41984E-09
   3.26365E-09  3.13060E-09  3.01365E-09  2.90884E-09  2.81350E-09  2.72571E-09  2.64464E-09  2.57026E-09  2.50369E-09  2.44834E-09
   2.41283E-09  2.42804E-09  2.53733E-09  2.62933E-09  2.73673E-09  2.99341E-09  3.29110E-09  3.58438E-09  3.91658E-09  4.24216E-09
   4.46750E-09  4.51170E-09  4.37936E-09  4.18909E-09  3.99419E-09  3.44457E-09  2.88819E-09  2.73546E-09  2.51145E-09  2.21295E-09
   2.07588E-09  1.98208E-09  1.91210E-09  1.95349E-09  2.02280E-09  2.07959E-09  2.20642E-09  2.38223E-09  2.56344E-09  2.72668E-09
   2.83343E-09  2.95517E-09  3.09764E-09  3.00494E-09  2.81129E-09  2.80645E-09  2.64330E-09  2.32658E-09  2.16054E-09  2.00805E-09
   1.81804E-09  1.66841E-09  1.54953E-09  1.45055E-09  1.36498E-09  1.28880E-09  1.21957E-09  1.15578E-09  1.09633E-09  1.04033E-09
   9.86925E-10  9.35289E-10  8.85079E-10  8.36022E-10  7.87932E-10  7.40656E-10  6.93925E-10  6.47462E-10  6.01100E-10  5.54705E-10
   5.08161E-10  4.61392E-10  4.14274E-10  3.66708E-10  3.18594E-10  2.69858E-10  2.20401E-10  1.70154E-10  1.19053E-10  6.70233E-11
   1.39933E-11 -4.00925E-11 -9.52947E-11 -1.51678E-10 -2.09291E-10 -2.68197E-10 -3.28453E-10 -3.90120E-10 -4.53242E-10 -5.17866E-10
  -5.84042E-10 -6.51818E-10 -7.21240E-10 -7.92368E-10 -8.65248E-10 -9.39911E-10 -1.01640E-09 -1.09473E-09 -1.17497E-09 -1.25713E-09
  -1.34126E-09 -1.42738E-09 -1.51548E-09 -1.60560E-09 -1.69772E-09 -1.79184E-09 -1.88786E-09 -1.98558E-09 -2.08461E-09 -2.18456E-09
  -2.28486E-09 -2.38477E-09 -2.48309E-09 -2.57779E-09 -2.66453E-09 -2.73157E-09 -2.72975E-09 -2.50764E-09 -2.27549E-09 -2.12422E-09
  -2.01974E-09 -1.86768E-09 -1.60702E-09 -1.26078E-09 -9.78737E-10 -1.01954E-09 -1.62048E-09 -2.74528E-09 -3.87397E-09 -4.24227E-09
  -4.42830E-09 -4.56488E-09 -4.68103E-09 -4.78606E-09 -4.88373E-09 -4.97572E-09 -5.06283E-09 -5.14546E-09 -5.22375E-09 -5.29775E-09
  -5.36743E-09 -5.43268E-09 -5.49342E-09 -5.54949E-09 -5.60076E-09 -5.64707E-09 -5.68828E-09 -5.72421E-09 -5.75471E-09 -5.77960E-09
  -5.79873E-09 -5.81192E-09 -5.81901E-09 -5.81984E-09 -5.81423E-09 -5.80202E-09 -5.78305E-09 -5.75715E-09 -5.72426E-09 -5.68458E-09
  -5.63834E-09 -5.58577E-09 -5.52713E-09 -5.46264E-09 -5.39253E-09 -5.31706E-09 -5.23644E-09 -5.15093E-09 -5.06075E-09 -4.96613E-09
  -4.86732E-09 -4.76455E-09 -4.65804E-09 -4.54804E-09 -4.43478E-09 -4.31848E-09 -4.19938E-09 -4.07771E-09 -3.95370E-09 -3.82758E-09
  -3.69957E-09 -3.56991E-09 -3.43882E-09 -3.30653E-09 -3.17326E-09 -3.03923E-09 -2.90467E-09 -2.76980E-09 -2.63485E-09 -2.50002E-09
  -2.36554E-09 -2.23163E-09 -2.09851E-09 -1.96638E-09 -1.83546E-09 -1.70596E-09 -1.57811E-09 -1.45208E-09 -1.32812E-09 -1.20642E-09
  -1.08717E-09 -9.70599E-10 -8.56899E-10 -7.46266E-10 -6.38900E-10 -5.34995E-10 -4.34758E-10 -3.38379E-10 -2.46037E-10 -1.57937E-10
  -7.41144E-11  5.53392E-12  8.11173E-11  1.52769E-10  2.20602E-10  2.84728E-10  3.45273E-10  4.02344E-10  4.56069E-10  5.06555E-10
   5.53913E-10  5.98272E-10  6.39727E-10  6.78415E-10  7.14443E-10  7.47904E-10  7.78934E-10  8.07632E-10  8.34122E-10  8.58491E-10
   8.80876E-10  9.01354E-10  9.20075E-10  9.37121E-10  9.52588E-10  9.66596E-10  9.79265E-10  9.90682E-10  1.00095E-09  1.01016E-09
   1.01844E-09  1.02589E-09  1.03261E-09  1.03867E-09  1.04421E-09  1.04929E-09  1.05404E-09  1.05854E-09  1.06289E-09  1.06717E-09
   1.07148E-09  1.07594E-09  1.08059E-09  1.08557E-09  1.09095E-09  1.09679E-09  1.10321E-09  1.11031E-09  1.11812E-09  1.12678E-09
   1.13634E-09  1.14685E-09  1.15838E-09  1.17085E-09  1.18423E-09  1.19847E-09  1.21354E-09  1.22940E-09  1.24600E-09  1.26332E-09
   1.28131E-09  1.29994E-09  1.31917E-09  1.33895E-09  1.35927E-09  1.38007E-09  1.40132E-09  1.42299E-09  1.44505E-09  1.46744E-09
   1.49015E-09  1.51314E-09  1.53636E-09  1.55980E-09  1.58342E-09  1.60717E-09  1.63103E-09  1.65498E-09  1.67896E-09  1.70296E-09
   1.72694E-09  1.75088E-09  1.77473E-09  1.79848E-09  1.82209E-09  1.84552E-09  1.86877E-09  1.89179E-09  1.91455E-09  1.93703E-09
   1.95921E-09  1.98105E-09  2.00253E-09  2.02362E-09  2.04430E-09  2.06454E-09  2.08433E-09  2.10362E-09  2.12241E-09  2.14067E-09
   2.15837E-09  2.17549E-09  2.19201E-09
 Glc      Conc. = 1.44E-09
   7.07322E-09  7.32931E-09  7.66073E-09  8.18169E-09  8.71591E-09  9.15927E-09  9.32639E-09  9.28214E-09  8.87368E-09  8.23788E-09
   7.77225E-09  7.43863E-09  7.22929E-09  7.24011E-09  7.44309E-09  7.71036E-09  8.01646E-09  8.39965E-09  8.79700E-09  9.27081E-09
   9.90190E-09  1.05302E-08  1.09169E-08  1.08771E-08  1.02006E-08  9.12477E-09  8.28602E-09  7.78403E-09  7.51043E-09  7.33114E-09
   7.10820E-09  6.87764E-09  6.69880E-09  6.46531E-09  6.16067E-09  5.92029E-09  5.70575E-09  5.44437E-09  5.19011E-09  4.98626E-09
   4.81402E-09  4.66072E-09  4.52161E-09  4.39307E-09  4.27296E-09  4.15991E-09  4.05277E-09  3.95075E-09  3.85323E-09  3.75973E-09
   3.66982E-09  3.58325E-09  3.49976E-09  3.41916E-09  3.34124E-09  3.26580E-09  3.19269E-09  3.12175E-09  3.05286E-09  2.98592E-09
   2.92081E-09  2.85746E-09  2.79576E-09  2.73565E-09  2.67706E-09  2.61990E-09  2.56413E-09  2.50967E-09  2.45650E-09  2.40453E-09
   2.35373E-09  2.30405E-09  2.25544E-09  2.20786E-09  2.16126E-09  2.11561E-09  2.07086E-09  2.02698E-09  1.98391E-09  1.94164E-09
   1.90012E-09  1.85933E-09  1.81920E-09  1.77973E-09  1.74088E-09  1.70260E-09  1.66487E-09  1.62764E-09  1.59090E-09  1.55461E-09
   1.51873E-09  1.48325E-09  1.44809E-09  1.41328E-09  1.37876E-09  1.34447E-09  1.31041E-09  1.27655E-09  1.24287E-09  1.20931E-09
   1.17588E-09  1.14248E-09  1.10913E-09  1.07582E-09  1.04244E-09  1.00903E-09  9.75510E-10  9.41838E-10  9.07969E-10  8.73854E-10
   8.39444E-10  8.04699E-10  7.69568E-10  7.34006E-10  6.97968E-10  6.61402E-10  6.24268E-10  5.86518E-10  5.48102E-10  5.08979E-10
   4.69097E-10  4.28415E-10  3.86883E-10  3.44459E-10  3.01091E-10  2.56742E-10  2.11355E-10  1.64895E-10  1.17310E-10  6.85556E-11
   1.85873E-11 -3.26371E-11 -8.51631E-11 -1.39042E-10 -1.94309E-10 -2.51013E-10 -3.09193E-10 -3.68897E-10 -4.30162E-10 -4.93030E-10
  -5.57547E-10 -6.23752E-10 -6.91677E-10 -7.61365E-10 -8.32859E-10 -9.06185E-10 -9.81379E-10 -1.05847E-09 -1.13749E-09 -1.21845E-09
  -1.30139E-09 -1.38631E-09 -1.47321E-09 -1.56210E-09 -1.65295E-09 -1.74574E-09 -1.84035E-09 -1.93653E-09 -2.03387E-09 -2.13190E-09
  -2.22999E-09 -2.32723E-09 -2.42226E-09 -2.51265E-09 -2.59344E-09 -2.65146E-09 -2.63470E-09 -2.34471E-09 -2.02809E-09 -1.80928E-09
  -1.65457E-09 -1.44898E-09 -1.11255E-09 -6.64925E-10 -2.80294E-10 -2.72429E-10 -9.44885E-10 -2.28494E-09 -3.69180E-09 -4.16368E-09
  -4.37609E-09 -4.52262E-09 -4.64334E-09 -4.75072E-09 -4.84967E-09 -4.94236E-09 -5.02986E-09 -5.11269E-09 -5.19109E-09 -5.26512E-09
  -5.33479E-09 -5.40002E-09 -5.46072E-09 -5.51675E-09 -5.56798E-09 -5.61426E-09 -5.65544E-09 -5.69135E-09 -5.72183E-09 -5.74672E-09
  -5.76584E-09 -5.77905E-09 -5.78616E-09 -5.78700E-09 -5.78143E-09 -5.76926E-09 -5.75033E-09 -5.72449E-09 -5.69166E-09 -5.65204E-09
  -5.60587E-09 -5.55339E-09 -5.49482E-09 -5.43042E-09 -5.36040E-09 -5.28502E-09 -5.20451E-09 -5.11910E-09 -5.02902E-09 -4.93452E-09
  -4.83582E-09 -4.73316E-09 -4.62678E-09 -4.51690E-09 -4.40376E-09 -4.28759E-09 -4.16862E-09 -4.04708E-09 -3.92321E-09 -3.79722E-09
