 LCModel (Version 6.3-1R) Copyright: S.W. Provencher.          Ref.: Magn. Reson. Med. 30:672-679 (1993).                
 onepulse 29x10_ftSpec_smooth_lcm
 26 lines in following concentration table = NCONC+1
    Conc.  %SD /Cr+PCr  Metabolite                                         
    0.000 999%   0.000 Ala                                                 
    0.000 999%   0.000 Asp                                                 
    0.000 999%   0.000 Cr                                                  
 6.79E-11 372%   0.542 GABA                                                
 4.02E-11 999%   0.321 Glc                                                 
 7.43E-10  36%   5.931 Gln                                                 
    0.000 999%   0.000 Glu                                                 
    0.000 999%   0.000 Glyc                                                
    0.000 999%   0.000 GPC                                                 
    0.000 999%   0.000 GSH                                                 
 6.52E-10  33%   5.206 Ins                                                 
    0.000 999%   0.000 Lac                                                 
 1.13E-10 127%   0.900 NAAG                                                
 2.32E-10  87%   1.852 NAA                                                 
    0.000 999%   0.000 PCh                                                 
 1.25E-10 108%   1.000 PCr                                                 
 5.86E-10  86%   4.675 PE                                                  
 3.10E-12 999% 2.5E-02 Scyllo                                              
 1.17E-09  38%   9.317 Ser                                                 
 2.08E-10 286%   1.661 Tau                                                 
    0.000 999%   0.000 GPC+PCh                                             
 3.45E-10  36%   2.751 NAA+NAAG                                            
 6.52E-10  33%   5.206 Ins+Glyc                                            
 1.25E-10 108%   1.000 Cr+PCr                                              
 7.43E-10  36%   5.931 Glu+Gln                                             
   6 lines in following misc. output table
  FWHM = 0.112 ppm    S/N =   3                                            
  Data shift = 0.391 ppm                                                   
  Ph:  -4 deg     -33.9 deg/ppm                                            
  alphaB,S = 3.7E-01,   2.8E+01                                            
   11 spline knots.   Ns = 5(1)                                            
  ( 8) 4 infls.   ( 5) 3 extrs.                                            
  363 points on ppm-axis = NY
      4.250000     4.238821     4.227641     4.216462     4.205282     4.194103     4.182923     4.171744     4.160564     4.149385
      4.138206     4.127026     4.115847     4.104667     4.093488     4.082308     4.071129     4.059949     4.048770     4.037591
      4.026411     4.015232     4.004052     3.992873     3.981693     3.970514     3.959334     3.948155     3.936975     3.925796
      3.914617     3.903437     3.892258     3.881078     3.869899     3.858719     3.847540     3.836360     3.825181     3.814002
      3.802822     3.791643     3.780463     3.769284     3.758104     3.746925     3.735745     3.724566     3.713387     3.702207
      3.691028     3.679848     3.668669     3.657489     3.646310     3.635130     3.623951     3.612772     3.601592     3.590413
      3.579233     3.568054     3.556874     3.545695     3.534515     3.523336     3.512156     3.500977     3.489798     3.478618
      3.467439     3.456259     3.445080     3.433900     3.422721     3.411541     3.400362     3.389183     3.378003     3.366824
      3.355644     3.344465     3.333285     3.322106     3.310926     3.299747     3.288568     3.277388     3.266209     3.255029
      3.243850     3.232670     3.221491     3.210311     3.199132     3.187953     3.176773     3.165594     3.154414     3.143235
      3.132055     3.120876     3.109696     3.098517     3.087337     3.076158     3.064979     3.053799     3.042620     3.031440
      3.020261     3.009081     2.997902     2.986722     2.975543     2.964364     2.953184     2.942005     2.930825     2.919646
      2.908466     2.897287     2.886107     2.874928     2.863749     2.852569     2.841390     2.830210     2.819031     2.807851
      2.796672     2.785492     2.774313     2.763134     2.751954     2.740775     2.729595     2.718416     2.707236     2.696057
      2.684877     2.673698     2.662519     2.651339     2.640160     2.628980     2.617801     2.606621     2.595442     2.584262
      2.573083     2.561903     2.550724     2.539545     2.528365     2.517186     2.506006     2.494827     2.483647     2.472468
      2.461288     2.450109     2.438930     2.427750     2.416571     2.405391     2.394212     2.383032     2.371853     2.360673
      2.349494     2.338315     2.327135     2.315956     2.304776     2.293597     2.282417     2.271238     2.260058     2.248879
      2.237700     2.226520     2.215341     2.204161     2.192982     2.181802     2.170623     2.159443     2.148264     2.137084
      2.125905     2.114726     2.103546     2.092367     2.081187     2.070008     2.058828     2.047649     2.036469     2.025290
      2.014111     2.002931     1.991752     1.980572     1.969393     1.958213     1.947034     1.935854     1.924675     1.913496
      1.902316     1.891137     1.879957     1.868778     1.857598     1.846419     1.835239     1.824060     1.812881     1.801701
      1.790522     1.779342     1.768163     1.756983     1.745804     1.734624     1.723445     1.712265     1.701086     1.689907
      1.678727     1.667548     1.656368     1.645189     1.634009     1.622830     1.611650     1.600471     1.589292     1.578112
      1.566933     1.555753     1.544574     1.533394     1.522215     1.511035     1.499856     1.488677     1.477497     1.466318
      1.455138     1.443959     1.432779     1.421600     1.410420     1.399241     1.388062     1.376882     1.365703     1.354523
      1.343344     1.332164     1.320985     1.309805     1.298626     1.287446     1.276267     1.265088     1.253908     1.242729
      1.231549     1.220370     1.209190     1.198011     1.186831     1.175652     1.164473     1.153293     1.142114     1.130934
      1.119755     1.108575     1.097396     1.086216     1.075037     1.063858     1.052678     1.041499     1.030319     1.019140
      1.007960     0.996781     0.985601     0.974422     0.963243     0.952063     0.940884     0.929704     0.918525     0.907345
      0.896166     0.884986     0.873807     0.862628     0.851448     0.840269     0.829089     0.817910     0.806730     0.795551
      0.784371     0.773192     0.762012     0.750833     0.739654     0.728474     0.717295     0.706115     0.694936     0.683756
      0.672577     0.661397     0.650218     0.639039     0.627859     0.616680     0.605500     0.594321     0.583141     0.571962
      0.560782     0.549603     0.538424     0.527244     0.516065     0.504885     0.493706     0.482526     0.471347     0.460167
      0.448988     0.437809     0.426629     0.415450     0.404270     0.393091     0.381911     0.370732     0.359552     0.348373
      0.337193     0.326014     0.314835     0.303655     0.292476     0.281296     0.270117     0.258937     0.247758     0.236578
      0.225399     0.214220     0.203040
 NY phased data points follow
   3.35843E-09  2.48540E-09  2.93477E-09  2.05333E-09  2.28092E-09  1.84387E-09  2.25726E-09  1.70849E-09  2.19507E-09  2.02457E-09
   2.26530E-09  2.35029E-09  3.10480E-09  2.51346E-09  3.18486E-09  2.61830E-09  3.27010E-09  2.68783E-09  2.94343E-09  2.29179E-09
   2.62680E-09  2.47519E-09  3.06037E-09  2.98105E-09  2.91746E-09  2.17864E-09  2.41443E-09  1.82686E-09  2.87211E-09  3.27607E-09
   4.08787E-09  4.11461E-09  4.32345E-09  3.87089E-09  3.74485E-09  3.45430E-09  3.67182E-09  3.28812E-09  3.56339E-09  3.09710E-09
   3.26128E-09  3.18380E-09  3.66402E-09  3.07657E-09  2.89822E-09  2.37533E-09  2.58397E-09  2.34379E-09  2.39887E-09  2.14446E-09
   2.68314E-09  1.92038E-09  1.88315E-09  1.47104E-09  1.26151E-09  1.32436E-09  1.66096E-09  8.21814E-10  1.11702E-09  1.55040E-09
   2.71684E-09  3.29886E-09  3.87438E-09  3.34159E-09  3.58983E-09  3.17932E-09  3.02869E-09  2.89107E-09  2.50649E-09  2.26448E-09
   2.09590E-09  1.60913E-09  1.44710E-09  4.77294E-10  3.87288E-10  3.62249E-10  2.16426E-09  3.92820E-09  4.93362E-09  4.57640E-09
   4.87218E-09  4.89969E-09  4.99885E-09  4.72058E-09  4.78285E-09  4.59110E-09  5.10319E-09  4.97929E-09  5.32899E-09  4.95927E-09
   4.99603E-09  4.68875E-09  4.73276E-09  4.11731E-09  4.46671E-09  4.27836E-09  4.13620E-09  3.79426E-09  4.06827E-09  3.62771E-09
   4.03020E-09  3.12927E-09  3.78039E-09  3.70836E-09  3.83129E-09  3.37867E-09  3.32304E-09  2.72561E-09  2.64231E-09  2.70003E-09
   2.61174E-09  2.62228E-09  2.65737E-09  2.54347E-09  3.01076E-09  2.56718E-09  2.79514E-09  2.69956E-09  2.90686E-09  2.75069E-09
   2.67299E-09  2.48067E-09  2.19593E-09  1.88541E-09  1.79588E-09  1.79131E-09  1.99661E-09  1.93782E-09  2.03347E-09  2.27793E-09
   2.40041E-09  2.63428E-09  2.20370E-09  2.32671E-09  2.10953E-09  1.95147E-09  2.53632E-09  3.22731E-09  3.31015E-09  3.33168E-09
   3.07161E-09  3.16302E-09  3.31306E-09  3.82306E-09  4.11658E-09  4.05713E-09  4.20411E-09  4.23331E-09  4.19624E-09  4.17454E-09
   4.33681E-09  3.98706E-09  4.12249E-09  3.85538E-09  3.94771E-09  4.14551E-09  3.57563E-09  3.60286E-09  3.58075E-09  3.20860E-09
   3.61008E-09  3.02596E-09  3.39426E-09  3.08253E-09  2.65238E-09  1.90099E-09  2.03918E-09  3.39427E-09  6.34063E-09  7.87575E-09
   8.22933E-09  7.87276E-09  7.82058E-09  7.61350E-09  7.54515E-09  7.36053E-09  6.82336E-09  6.81737E-09  6.51218E-09  5.87385E-09
   5.15562E-09  4.46416E-09  3.69195E-09  2.40261E-09  1.66458E-09  5.19641E-10 -1.98288E-10 -9.78585E-10 -2.27179E-09 -2.87865E-09
  -3.80643E-09 -4.63913E-09 -4.78550E-09 -5.37209E-09 -5.44278E-09 -5.56105E-09 -5.54138E-09 -4.87261E-09 -4.54194E-09 -4.10860E-09
  -3.58283E-09 -2.91051E-09 -2.83059E-09 -2.36887E-09 -1.92240E-09 -1.74872E-09 -1.53713E-09 -1.43736E-09 -1.38711E-09 -1.39438E-09
  -1.35791E-09 -1.26341E-09 -1.22622E-09 -1.37568E-09 -1.04740E-09 -1.26566E-09 -1.08405E-09 -1.33262E-09 -1.04704E-09 -9.79515E-10
  -1.01341E-09 -8.49732E-10 -8.78481E-10 -1.07249E-09 -1.29098E-09 -1.02263E-09 -9.89464E-10 -1.18536E-09 -9.79878E-10 -5.80511E-10
  -8.90278E-10 -1.34584E-09 -1.01238E-09 -9.20553E-10 -6.94083E-10 -1.17576E-09 -1.15074E-09 -9.91189E-10 -1.13266E-09 -1.03837E-09
  -1.31797E-09 -1.10763E-09 -1.22069E-09 -1.36812E-09 -1.12865E-09 -1.20196E-09 -8.75372E-10 -1.12515E-09 -8.31945E-10 -6.58989E-10
  -6.05792E-10 -8.17206E-10 -7.85462E-10 -9.54803E-10 -9.33853E-10 -1.08241E-09 -9.12007E-10 -1.03554E-09 -1.16636E-09 -1.08424E-09
  -1.53549E-09 -1.39908E-09 -1.49082E-09 -1.62536E-09 -1.49183E-09 -1.49194E-09 -1.55103E-09 -1.27283E-09 -1.32110E-09 -1.20325E-09
  -7.88365E-10 -7.27062E-10 -7.87988E-10 -5.59589E-10 -5.29276E-10 -4.41733E-10 -4.25063E-10 -4.92888E-10 -4.41352E-10 -5.39735E-10
  -6.48483E-10 -5.26485E-10 -6.06967E-10 -8.74740E-10 -8.33747E-10 -5.41772E-10 -7.94651E-10 -1.13827E-09 -7.87307E-10 -9.83080E-10
  -8.81740E-10 -1.01763E-09 -1.03768E-09 -1.37877E-09 -1.04715E-09 -1.06691E-09 -1.44752E-09 -1.24539E-09 -1.16339E-09 -1.43173E-09
  -1.08559E-09 -1.01895E-09 -1.20851E-09 -1.15786E-09 -1.41757E-09 -1.26735E-09 -1.32512E-09 -1.56417E-09 -1.30567E-09 -1.08320E-09
  -1.28584E-09 -1.37635E-09 -1.38964E-09 -1.29602E-09 -1.54049E-09 -1.48591E-09 -1.54646E-09 -1.63445E-09 -1.44502E-09 -1.56924E-09
  -1.41365E-09 -1.39459E-09 -1.46879E-09 -1.20334E-09 -1.65754E-09 -1.60269E-09 -1.40235E-09 -1.65298E-09 -1.46304E-09 -1.48225E-09
  -1.29178E-09 -1.67056E-09 -1.62282E-09 -1.78180E-09 -1.59161E-09 -1.48113E-09 -1.80878E-09 -1.52182E-09 -1.72555E-09 -1.65702E-09
  -1.75595E-09 -1.93279E-09 -1.64619E-09 -1.76317E-09 -1.70489E-09 -1.67765E-09 -1.65408E-09 -1.48405E-09 -1.67078E-09 -1.74712E-09
  -1.84629E-09 -1.99753E-09 -1.58288E-09 -1.72098E-09 -1.88430E-09 -1.74390E-09 -1.72429E-09 -1.51778E-09 -1.56093E-09 -1.41071E-09
  -1.72998E-09 -1.32497E-09 -2.17165E-09
 NY points of the fit to the data follow
   2.87434E-09  3.21707E-09  3.05500E-09  2.63164E-09  2.42968E-09  2.42434E-09  2.33057E-09  2.04260E-09  1.72411E-09  1.71042E-09
   1.95136E-09  2.14671E-09  2.33207E-09  2.48119E-09  2.72035E-09  2.92198E-09  2.99184E-09  3.25838E-09  3.48542E-09  3.24076E-09
   2.73339E-09  2.33961E-09  2.23696E-09  2.28510E-09  2.38472E-09  2.49670E-09  2.69452E-09  2.91514E-09  3.14343E-09  3.37213E-09
   3.60159E-09  3.75467E-09  3.86974E-09  3.89891E-09  3.97103E-09  3.91672E-09  3.72819E-09  3.45531E-09  3.27855E-09  3.18709E-09
   3.15765E-09  3.14120E-09  3.00850E-09  2.70188E-09  2.51010E-09  2.38412E-09  2.26748E-09  2.15314E-09  2.04970E-09  1.97454E-09
   1.92181E-09  1.88639E-09  1.85691E-09  1.81218E-09  1.76904E-09  1.82728E-09  1.93172E-09  2.06743E-09  2.30484E-09  2.59162E-09
   2.80661E-09  2.97057E-09  3.11095E-09  3.24970E-09  3.35457E-09  3.36926E-09  3.31403E-09  3.27806E-09  3.10956E-09  2.82995E-09
   2.67145E-09  2.60933E-09  2.55771E-09  2.52616E-09  2.52155E-09  2.57573E-09  2.76114E-09  3.22863E-09  3.90184E-09  4.53629E-09
   5.01094E-09  5.29864E-09  5.38292E-09  5.48486E-09  5.70535E-09  5.82676E-09  5.74441E-09  5.41973E-09  4.85532E-09  4.39797E-09
   4.13648E-09  3.95964E-09  3.83685E-09  3.73456E-09  3.63820E-09  3.56744E-09  3.50706E-09  3.44436E-09  3.39308E-09  3.34645E-09
   3.30315E-09  3.26812E-09  3.23747E-09  3.20852E-09  3.18289E-09  3.16023E-09  3.13990E-09  3.12149E-09  3.10454E-09  3.08880E-09
   3.07405E-09  3.06006E-09  3.04665E-09  3.03365E-09  3.02091E-09  3.00831E-09  2.99574E-09  2.98305E-09  2.97016E-09  2.95696E-09
   2.94336E-09  2.92928E-09  2.91463E-09  2.89933E-09  2.88331E-09  2.86650E-09  2.84883E-09  2.83023E-09  2.81063E-09  2.78998E-09
   2.76820E-09  2.74525E-09  2.72107E-09  2.69559E-09  2.66876E-09  2.64054E-09  2.61085E-09  2.57968E-09  2.54704E-09  2.51295E-09
   2.47744E-09  2.44054E-09  2.40227E-09  2.36267E-09  2.32176E-09  2.27958E-09  2.23616E-09  2.19155E-09  2.14579E-09  2.09892E-09
   2.05100E-09  2.00208E-09  1.95223E-09  1.90154E-09  1.85010E-09  1.79805E-09  1.74558E-09  1.69293E-09  1.64047E-09  1.58879E-09
   1.53883E-09  1.49224E-09  1.45213E-09  1.42500E-09  1.42661E-09  1.50480E-09  1.87517E-09  3.56406E-09  5.79892E-09  7.43940E-09
   8.06266E-09  7.97847E-09  7.72494E-09  7.64020E-09  7.77111E-09  7.89586E-09  7.43220E-09  5.62789E-09  2.73199E-09  1.58220E-09
   1.15867E-09  9.22752E-10  7.60189E-10  6.34031E-10  5.28782E-10  4.36793E-10  3.53859E-10  2.77458E-10  2.06010E-10  1.38452E-10
   7.40715E-11  1.23416E-11 -4.70913E-11 -1.04516E-10 -1.60132E-10 -2.14097E-10 -2.66526E-10 -3.17516E-10 -3.67134E-10 -4.15441E-10
  -4.62475E-10 -5.08270E-10 -5.52851E-10 -5.96236E-10 -6.38440E-10 -6.79476E-10 -7.19347E-10 -7.58057E-10 -7.95610E-10 -8.32001E-10
  -8.67229E-10 -9.01294E-10 -9.34195E-10 -9.65929E-10 -9.96476E-10 -1.02584E-09 -1.05402E-09 -1.08101E-09 -1.10679E-09 -1.13136E-09
  -1.15473E-09 -1.17687E-09 -1.19777E-09 -1.21746E-09 -1.23590E-09 -1.25309E-09 -1.26904E-09 -1.28374E-09 -1.29721E-09 -1.30950E-09
  -1.32066E-09 -1.33074E-09 -1.33976E-09 -1.34779E-09 -1.35486E-09 -1.36102E-09 -1.36632E-09 -1.37078E-09 -1.37446E-09 -1.37741E-09
  -1.37965E-09 -1.38124E-09 -1.38222E-09 -1.38262E-09 -1.38249E-09 -1.38187E-09 -1.38079E-09 -1.37931E-09 -1.37745E-09 -1.37525E-09
  -1.37276E-09 -1.37001E-09 -1.36703E-09 -1.36387E-09 -1.36057E-09 -1.35714E-09 -1.35364E-09 -1.35009E-09 -1.34653E-09 -1.34299E-09
  -1.33950E-09 -1.33610E-09 -1.33281E-09 -1.32967E-09 -1.32670E-09 -1.32393E-09 -1.32139E-09 -1.31911E-09 -1.31712E-09 -1.31543E-09
  -1.31407E-09 -1.31308E-09 -1.31246E-09 -1.31222E-09 -1.31234E-09 -1.31282E-09 -1.31363E-09 -1.31475E-09 -1.31618E-09 -1.31789E-09
  -1.31987E-09 -1.32210E-09 -1.32457E-09 -1.32726E-09 -1.33016E-09 -1.33324E-09 -1.33649E-09 -1.33990E-09 -1.34345E-09 -1.34712E-09
  -1.35091E-09 -1.35478E-09 -1.35874E-09 -1.36276E-09 -1.36682E-09 -1.37092E-09 -1.37504E-09 -1.37915E-09 -1.38326E-09 -1.38734E-09
  -1.39138E-09 -1.39536E-09 -1.39927E-09 -1.40309E-09 -1.40682E-09 -1.41044E-09 -1.41392E-09 -1.41728E-09 -1.42047E-09 -1.42351E-09
  -1.42636E-09 -1.42902E-09 -1.43148E-09 -1.43372E-09 -1.43574E-09 -1.43751E-09 -1.43903E-09 -1.44028E-09 -1.44127E-09 -1.44196E-09
  -1.44237E-09 -1.44246E-09 -1.44225E-09 -1.44171E-09 -1.44083E-09 -1.43962E-09 -1.43805E-09 -1.43613E-09 -1.43383E-09 -1.43116E-09
  -1.42811E-09 -1.42466E-09 -1.42082E-09 -1.41656E-09 -1.41190E-09 -1.40681E-09 -1.40129E-09 -1.39534E-09 -1.38895E-09 -1.38211E-09
  -1.37482E-09 -1.36706E-09 -1.35885E-09 -1.35016E-09 -1.34100E-09 -1.33136E-09 -1.32124E-09 -1.31063E-09 -1.29953E-09 -1.28793E-09
  -1.27583E-09 -1.26323E-09 -1.25013E-09 -1.23651E-09 -1.22239E-09 -1.20775E-09 -1.19259E-09 -1.17692E-09 -1.16073E-09 -1.14402E-09
  -1.12679E-09 -1.10904E-09 -1.09077E-09
 NY background values follow
     1.980E-10    2.089E-10    2.200E-10    2.313E-10    2.428E-10    2.545E-10    2.664E-10    2.785E-10    2.908E-10    3.033E-10
     3.160E-10    3.289E-10    3.419E-10    3.552E-10    3.687E-10    3.824E-10    3.962E-10    4.103E-10    4.245E-10    4.389E-10
     4.535E-10    4.683E-10    4.833E-10    4.984E-10    5.138E-10    5.293E-10    5.450E-10    5.608E-10    5.769E-10    5.931E-10
     6.095E-10    6.260E-10    6.427E-10    6.596E-10    6.767E-10    6.939E-10    7.113E-10    7.289E-10    7.466E-10    7.645E-10
     7.825E-10    8.007E-10    8.191E-10    8.376E-10    8.563E-10    8.751E-10    8.941E-10    9.132E-10    9.325E-10    9.519E-10
     9.714E-10    9.911E-10    1.011E-09    1.031E-09    1.051E-09    1.071E-09    1.091E-09    1.112E-09    1.132E-09    1.153E-09
     1.174E-09    1.195E-09    1.215E-09    1.236E-09    1.258E-09    1.279E-09    1.300E-09    1.321E-09    1.342E-09    1.364E-09
     1.385E-09    1.407E-09    1.428E-09    1.450E-09    1.471E-09    1.493E-09    1.515E-09    1.536E-09    1.558E-09    1.580E-09
     1.601E-09    1.623E-09    1.644E-09    1.666E-09    1.687E-09    1.709E-09    1.730E-09    1.752E-09    1.773E-09    1.794E-09
     1.815E-09    1.837E-09    1.858E-09    1.879E-09    1.899E-09    1.920E-09    1.940E-09    1.960E-09    1.980E-09    2.000E-09
     2.019E-09    2.038E-09    2.056E-09    2.074E-09    2.091E-09    2.108E-09    2.125E-09    2.141E-09    2.156E-09    2.170E-09
     2.184E-09    2.197E-09    2.210E-09    2.221E-09    2.232E-09    2.242E-09    2.251E-09    2.259E-09    2.266E-09    2.272E-09
     2.277E-09    2.280E-09    2.283E-09    2.284E-09    2.284E-09    2.283E-09    2.281E-09    2.277E-09    2.272E-09    2.266E-09
     2.258E-09    2.248E-09    2.237E-09    2.224E-09    2.210E-09    2.194E-09    2.176E-09    2.157E-09    2.136E-09    2.113E-09
     2.089E-09    2.063E-09    2.036E-09    2.007E-09    1.976E-09    1.944E-09    1.911E-09    1.877E-09    1.841E-09    1.804E-09
     1.765E-09    1.726E-09    1.685E-09    1.644E-09    1.601E-09    1.557E-09    1.513E-09    1.467E-09    1.421E-09    1.374E-09
     1.326E-09    1.278E-09    1.229E-09    1.179E-09    1.129E-09    1.078E-09    1.027E-09    9.755E-10    9.238E-10    8.717E-10
     8.195E-10    7.671E-10    7.146E-10    6.621E-10    6.096E-10    5.571E-10    5.048E-10    4.527E-10    4.007E-10    3.491E-10
     2.978E-10    2.469E-10    1.964E-10    1.464E-10    9.686E-11    4.785E-11   -6.093E-13   -4.852E-11   -9.585E-11   -1.426E-10
    -1.887E-10   -2.342E-10   -2.789E-10   -3.231E-10   -3.665E-10   -4.092E-10   -4.511E-10   -4.923E-10   -5.327E-10   -5.722E-10
    -6.110E-10   -6.489E-10   -6.860E-10   -7.222E-10   -7.575E-10   -7.918E-10   -8.253E-10   -8.578E-10   -8.894E-10   -9.199E-10
    -9.495E-10   -9.781E-10   -1.006E-09   -1.032E-09   -1.058E-09   -1.082E-09   -1.105E-09   -1.128E-09   -1.149E-09   -1.169E-09
    -1.188E-09   -1.205E-09   -1.222E-09   -1.237E-09   -1.252E-09   -1.265E-09   -1.277E-09   -1.288E-09   -1.297E-09   -1.306E-09
    -1.313E-09   -1.319E-09   -1.325E-09   -1.329E-09   -1.333E-09   -1.335E-09   -1.337E-09   -1.338E-09   -1.339E-09   -1.338E-09
    -1.337E-09   -1.336E-09   -1.333E-09   -1.331E-09   -1.328E-09   -1.324E-09   -1.320E-09   -1.315E-09   -1.310E-09   -1.305E-09
    -1.300E-09   -1.294E-09   -1.289E-09   -1.283E-09   -1.277E-09   -1.270E-09   -1.264E-09   -1.258E-09   -1.252E-09   -1.246E-09
    -1.240E-09   -1.234E-09   -1.228E-09   -1.222E-09   -1.217E-09   -1.211E-09   -1.206E-09   -1.202E-09   -1.197E-09   -1.193E-09
    -1.190E-09   -1.186E-09   -1.183E-09   -1.181E-09   -1.179E-09   -1.177E-09   -1.176E-09   -1.175E-09   -1.174E-09   -1.174E-09
    -1.173E-09   -1.174E-09   -1.174E-09   -1.175E-09   -1.175E-09   -1.177E-09   -1.178E-09   -1.179E-09   -1.181E-09   -1.183E-09
    -1.184E-09   -1.186E-09   -1.189E-09   -1.191E-09   -1.193E-09   -1.195E-09   -1.198E-09   -1.200E-09   -1.202E-09   -1.205E-09
    -1.207E-09   -1.209E-09   -1.211E-09   -1.213E-09   -1.215E-09   -1.217E-09   -1.219E-09   -1.221E-09   -1.223E-09   -1.224E-09
    -1.225E-09   -1.226E-09   -1.227E-09   -1.228E-09   -1.229E-09   -1.229E-09   -1.229E-09   -1.229E-09   -1.228E-09   -1.228E-09
    -1.226E-09   -1.225E-09   -1.224E-09   -1.222E-09   -1.219E-09   -1.217E-09   -1.214E-09   -1.211E-09   -1.207E-09   -1.203E-09
    -1.199E-09   -1.194E-09   -1.189E-09   -1.183E-09   -1.178E-09   -1.171E-09   -1.165E-09   -1.157E-09   -1.150E-09   -1.142E-09
    -1.133E-09   -1.124E-09   -1.115E-09   -1.105E-09   -1.095E-09   -1.084E-09   -1.073E-09   -1.061E-09   -1.049E-09   -1.037E-09
    -1.024E-09   -1.010E-09   -9.959E-10   -9.813E-10   -9.662E-10   -9.505E-10   -9.344E-10   -9.178E-10   -9.007E-10   -8.831E-10
    -8.649E-10   -8.463E-10   -8.271E-10
 GABA     Conc. = 6.79E-11
   1.65118E-10  1.75413E-10  1.85888E-10  1.96537E-10  2.07358E-10  2.18346E-10  2.29497E-10  2.40805E-10  2.52266E-10  2.63874E-10
   2.75622E-10  2.87501E-10  2.99507E-10  3.11628E-10  3.23854E-10  3.36177E-10  3.48577E-10  3.61033E-10  3.73529E-10  3.86038E-10
   3.98527E-10  4.10960E-10  4.23288E-10  4.35447E-10  4.47368E-10  4.58946E-10  4.70072E-10  4.80700E-10  4.91321E-10  5.07876E-10
   5.31645E-10  5.52294E-10  5.76968E-10  6.14394E-10  6.54577E-10  6.93137E-10  7.32839E-10  7.74258E-10  8.14314E-10  8.47002E-10
   8.69938E-10  8.96780E-10  9.23294E-10  9.25905E-10  9.29286E-10  9.45235E-10  9.52361E-10  9.56262E-10  9.64326E-10  9.75042E-10
   9.87480E-10  1.00111E-09  1.01557E-09  1.03064E-09  1.04617E-09  1.06202E-09  1.07809E-09  1.09428E-09  1.11055E-09  1.12698E-09
   1.14402E-09  1.16447E-09  1.19638E-09  1.23003E-09  1.26000E-09  1.30114E-09  1.34776E-09  1.38905E-09  1.42684E-09  1.46364E-09
   1.49935E-09  1.52935E-09  1.54830E-09  1.56141E-09  1.58485E-09  1.59227E-09  1.58402E-09  1.59699E-09  1.61111E-09  1.61761E-09
   1.63274E-09  1.65051E-09  1.66659E-09  1.69126E-09  1.72129E-09  1.74855E-09  1.77821E-09  1.81127E-09  1.84507E-09  1.87834E-09
   1.90596E-09  1.93171E-09  1.96417E-09  1.98684E-09  1.99676E-09  2.01879E-09  2.03819E-09  2.04502E-09  2.05756E-09  2.07222E-09
   2.08388E-09  2.09633E-09  2.10960E-09  2.12334E-09  2.13727E-09  2.15117E-09  2.16491E-09  2.17838E-09  2.19148E-09  2.20415E-09
   2.21631E-09  2.22789E-09  2.23883E-09  2.24907E-09  2.25857E-09  2.26727E-09  2.27514E-09  2.28212E-09  2.28817E-09  2.29324E-09
   2.29728E-09  2.30025E-09  2.30212E-09  2.30283E-09  2.30234E-09  2.30062E-09  2.29762E-09  2.29329E-09  2.28761E-09  2.28051E-09
   2.27198E-09  2.26195E-09  2.25040E-09  2.23728E-09  2.22255E-09  2.20618E-09  2.18812E-09  2.16836E-09  2.14691E-09  2.12383E-09
   2.09914E-09  2.07289E-09  2.04510E-09  2.01581E-09  1.98507E-09  1.95291E-09  1.91938E-09  1.88452E-09  1.84837E-09  1.81097E-09
   1.77237E-09  1.73261E-09  1.69174E-09  1.64981E-09  1.60685E-09  1.56293E-09  1.51809E-09  1.47238E-09  1.42586E-09  1.37857E-09
   1.33061E-09  1.28202E-09  1.23293E-09  1.18350E-09  1.13411E-09  1.08584E-09  1.04410E-09  1.02665E-09  1.01487E-09  9.89798E-10
   9.46626E-10  8.92431E-10  8.36670E-10  7.84469E-10  7.35831E-10  6.85994E-10  6.23817E-10  5.37013E-10  4.36104E-10  3.70188E-10
   3.13303E-10  2.59383E-10  2.06992E-10  1.55636E-10  1.05104E-10  5.52982E-11  6.17859E-12 -4.22854E-11 -9.00873E-11 -1.37233E-10
  -1.83705E-10 -2.29504E-10 -2.74599E-10 -3.18990E-10 -3.62653E-10 -4.05575E-10 -4.47733E-10 -4.89114E-10 -5.29698E-10 -5.69471E-10
  -6.08411E-10 -6.46501E-10 -6.83727E-10 -7.20066E-10 -7.55505E-10 -7.90031E-10 -8.23622E-10 -8.56265E-10 -8.87942E-10 -9.18638E-10
  -9.48336E-10 -9.77023E-10 -1.00469E-09 -1.03132E-09 -1.05689E-09 -1.08139E-09 -1.10482E-09 -1.12716E-09 -1.14839E-09 -1.16851E-09
  -1.18751E-09 -1.20536E-09 -1.22206E-09 -1.23762E-09 -1.25201E-09 -1.26521E-09 -1.27724E-09 -1.28808E-09 -1.29776E-09 -1.30632E-09
  -1.31380E-09 -1.32025E-09 -1.32571E-09 -1.33022E-09 -1.33383E-09 -1.33657E-09 -1.33849E-09 -1.33963E-09 -1.34003E-09 -1.33973E-09
  -1.33878E-09 -1.33721E-09 -1.33507E-09 -1.33239E-09 -1.32922E-09 -1.32560E-09 -1.32156E-09 -1.31714E-09 -1.31238E-09 -1.30732E-09
  -1.30199E-09 -1.29644E-09 -1.29070E-09 -1.28481E-09 -1.27879E-09 -1.27269E-09 -1.26654E-09 -1.26038E-09 -1.25422E-09 -1.24812E-09
  -1.24210E-09 -1.23619E-09 -1.23042E-09 -1.22482E-09 -1.21942E-09 -1.21424E-09 -1.20932E-09 -1.20469E-09 -1.20036E-09 -1.19636E-09
  -1.19272E-09 -1.18946E-09 -1.18660E-09 -1.18414E-09 -1.18207E-09 -1.18037E-09 -1.17903E-09 -1.17802E-09 -1.17734E-09 -1.17696E-09
  -1.17687E-09 -1.17706E-09 -1.17750E-09 -1.17818E-09 -1.17908E-09 -1.18019E-09 -1.18149E-09 -1.18297E-09 -1.18460E-09 -1.18638E-09
  -1.18829E-09 -1.19030E-09 -1.19242E-09 -1.19461E-09 -1.19687E-09 -1.19918E-09 -1.20153E-09 -1.20389E-09 -1.20626E-09 -1.20862E-09
  -1.21095E-09 -1.21324E-09 -1.21548E-09 -1.21765E-09 -1.21974E-09 -1.22173E-09 -1.22361E-09 -1.22537E-09 -1.22699E-09 -1.22846E-09
  -1.22977E-09 -1.23090E-09 -1.23184E-09 -1.23259E-09 -1.23312E-09 -1.23342E-09 -1.23348E-09 -1.23329E-09 -1.23285E-09 -1.23213E-09
  -1.23113E-09 -1.22985E-09 -1.22826E-09 -1.22636E-09 -1.22414E-09 -1.22160E-09 -1.21872E-09 -1.21549E-09 -1.21191E-09 -1.20796E-09
  -1.20364E-09 -1.19895E-09 -1.19387E-09 -1.18839E-09 -1.18251E-09 -1.17623E-09 -1.16953E-09 -1.16240E-09 -1.15485E-09 -1.14687E-09
  -1.13844E-09 -1.12957E-09 -1.12024E-09 -1.11046E-09 -1.10021E-09 -1.08950E-09 -1.07832E-09 -1.06666E-09 -1.05452E-09 -1.04190E-09
  -1.02879E-09 -1.01519E-09 -1.00110E-09 -9.86509E-10 -9.71419E-10 -9.55828E-10 -9.39733E-10 -9.23134E-10 -9.06026E-10 -8.88411E-10
  -8.70285E-10 -8.51650E-10 -8.32503E-10
 Glc      Conc. = 4.02E-11
   1.56958E-10  1.81751E-10  2.02677E-10  2.24363E-10  2.45717E-10  2.68124E-10  2.87374E-10  3.06169E-10  3.20106E-10  3.24470E-10
   3.28766E-10  3.33954E-10  3.39133E-10  3.48815E-10  3.68849E-10  3.98167E-10  4.31941E-10  4.66702E-10  4.96629E-10  5.21131E-10
   5.46340E-10  5.73327E-10  6.00286E-10  6.27226E-10  6.46351E-10  6.51929E-10  6.54836E-10  6.61177E-10  6.71816E-10  6.85981E-10
   6.99566E-10  7.11864E-10  7.26035E-10  7.40326E-10  7.52174E-10  7.64845E-10  7.79147E-10  7.92777E-10  8.05937E-10  8.19977E-10
   8.34802E-10  8.50205E-10  8.66102E-10  8.82418E-10  8.99103E-10  9.16125E-10  9.33453E-10  9.51062E-10  9.68932E-10  9.87045E-10
   1.00539E-09  1.02394E-09  1.04270E-09  1.06164E-09  1.08077E-09  1.10007E-09  1.11954E-09  1.13915E-09  1.15892E-09  1.17882E-09
   1.19886E-09  1.21902E-09  1.23929E-09  1.25968E-09  1.28018E-09  1.30077E-09  1.32145E-09  1.34222E-09  1.36306E-09  1.38398E-09
   1.40496E-09  1.42600E-09  1.44709E-09  1.46824E-09  1.48942E-09  1.51063E-09  1.53187E-09  1.55314E-09  1.57441E-09  1.59570E-09
   1.61698E-09  1.63827E-09  1.65954E-09  1.68079E-09  1.70202E-09  1.72322E-09  1.74438E-09  1.76549E-09  1.78656E-09  1.80756E-09
   1.82851E-09  1.84938E-09  1.87016E-09  1.89082E-09  1.91133E-09  1.93167E-09  1.95180E-09  1.97169E-09  1.99130E-09  2.01061E-09
   2.02958E-09  2.04818E-09  2.06638E-09  2.08414E-09  2.10142E-09  2.11820E-09  2.13443E-09  2.15008E-09  2.16512E-09  2.17950E-09
   2.19320E-09  2.20617E-09  2.21837E-09  2.22978E-09  2.24034E-09  2.25003E-09  2.25880E-09  2.26662E-09  2.27345E-09  2.27924E-09
   2.28397E-09  2.28758E-09  2.29005E-09  2.29132E-09  2.29137E-09  2.29015E-09  2.28763E-09  2.28376E-09  2.27850E-09  2.27181E-09
   2.26366E-09  2.25401E-09  2.24281E-09  2.23003E-09  2.21563E-09  2.19957E-09  2.18180E-09  2.16232E-09  2.14116E-09  2.11834E-09
   2.09390E-09  2.06789E-09  2.04034E-09  2.01128E-09  1.98076E-09  1.94882E-09  1.91550E-09  1.88083E-09  1.84488E-09  1.80767E-09
   1.76925E-09  1.72967E-09  1.68898E-09  1.64721E-09  1.60442E-09  1.56066E-09  1.51597E-09  1.47041E-09  1.42403E-09  1.37687E-09
   1.32902E-09  1.28051E-09  1.23145E-09  1.18196E-09  1.13227E-09  1.08303E-09  1.03741E-09  1.00603E-09  9.77988E-10  9.42024E-10
   8.95242E-10  8.41820E-10  7.87395E-10  7.35055E-10  6.84841E-10  6.33990E-10  5.75958E-10  5.03422E-10  4.22383E-10  3.62216E-10
   3.07606E-10  2.54924E-10  2.03328E-10  1.52538E-10  1.02434E-10  5.29686E-11  4.12904E-12 -4.40982E-11 -9.16958E-11 -1.38662E-10
  -1.84974E-10 -2.30629E-10 -2.75593E-10 -3.19863E-10 -3.63416E-10 -4.06234E-10 -4.48296E-10 -4.89586E-10 -5.30085E-10 -5.69777E-10
  -6.08640E-10 -6.46658E-10 -6.83814E-10 -7.20087E-10 -7.55462E-10 -7.89927E-10 -8.23460E-10 -8.56046E-10 -8.87670E-10 -9.18312E-10
  -9.47960E-10 -9.76598E-10 -1.00422E-09 -1.03080E-09 -1.05633E-09 -1.08079E-09 -1.10417E-09 -1.12647E-09 -1.14767E-09 -1.16774E-09
  -1.18670E-09 -1.20452E-09 -1.22119E-09 -1.23671E-09 -1.25106E-09 -1.26423E-09 -1.27623E-09 -1.28704E-09 -1.29669E-09 -1.30522E-09
