 LCModel (Version 6.3-1R) Copyright: S.W. Provencher.          Ref.: Magn. Reson. Med. 30:672-679 (1993).                
 onepulse 29x19_ftSpec_smooth_lcm
 26 lines in following concentration table = NCONC+1
    Conc.  %SD /Cr+PCr  Metabolite                                         
    0.000 999%   0.000 Ala                                                 
 2.11E-10 582%   0.597 Asp                                                 
    0.000 999%   0.000 Cr                                                  
 6.27E-10 155%   1.776 GABA                                                
    0.000 999%   0.000 Glc                                                 
 2.99E-11 999% 8.5E-02 Gln                                                 
    0.000 999%   0.000 Glu                                                 
    0.000 999%   0.000 Glyc                                                
    0.000 999%   0.000 GPC                                                 
 9.13E-10  87%   2.584 GSH                                                 
 2.04E-09  30%   5.778 Ins                                                 
    0.000 999%   0.000 Lac                                                 
 1.40E-10 341%   0.396 NAAG                                                
 5.97E-10 101%   1.691 NAA                                                 
    0.000 999%   0.000 PCh                                                 
 3.53E-10 142%   1.000 PCr                                                 
 1.99E-09  62%   5.646 PE                                                  
 2.46E-10 167%   0.697 Scyllo                                              
 3.69E-09  66%  10.449 Ser                                                 
 2.20E-10 681%   0.622 Tau                                                 
    0.000 999%   0.000 GPC+PCh                                             
 7.37E-10  50%   2.088 NAA+NAAG                                            
 2.04E-09  30%   5.778 Ins+Glyc                                            
 3.53E-10 142%   1.000 Cr+PCr                                              
 2.99E-11 999% 8.5E-02 Glu+Gln                                             
   6 lines in following misc. output table
  FWHM = 0.123 ppm    S/N =   2                                            
  Data shift = 0.458 ppm                                                   
  Ph: 109 deg      17.3 deg/ppm                                            
  alphaB,S = 6.9E-01,   2.6E+01                                            
    8 spline knots.   Ns = 5(1)                                            
  (12) 4 infls.   (11) 3 extrs.                                            
  363 points on ppm-axis = NY
      4.250000     4.238821     4.227641     4.216462     4.205282     4.194103     4.182923     4.171744     4.160564     4.149385
      4.138206     4.127026     4.115847     4.104667     4.093488     4.082308     4.071129     4.059949     4.048770     4.037591
      4.026411     4.015232     4.004052     3.992873     3.981693     3.970514     3.959334     3.948155     3.936975     3.925796
      3.914617     3.903437     3.892258     3.881078     3.869899     3.858719     3.847540     3.836360     3.825181     3.814002
      3.802822     3.791643     3.780463     3.769284     3.758104     3.746925     3.735745     3.724566     3.713387     3.702207
      3.691028     3.679848     3.668669     3.657489     3.646310     3.635130     3.623951     3.612772     3.601592     3.590413
      3.579233     3.568054     3.556874     3.545695     3.534515     3.523336     3.512156     3.500977     3.489798     3.478618
      3.467439     3.456259     3.445080     3.433900     3.422721     3.411541     3.400362     3.389183     3.378003     3.366824
      3.355644     3.344465     3.333285     3.322106     3.310926     3.299747     3.288568     3.277388     3.266209     3.255029
      3.243850     3.232670     3.221491     3.210311     3.199132     3.187953     3.176773     3.165594     3.154414     3.143235
      3.132055     3.120876     3.109696     3.098517     3.087337     3.076158     3.064979     3.053799     3.042620     3.031440
      3.020261     3.009081     2.997902     2.986722     2.975543     2.964364     2.953184     2.942005     2.930825     2.919646
      2.908466     2.897287     2.886107     2.874928     2.863749     2.852569     2.841390     2.830210     2.819031     2.807851
      2.796672     2.785492     2.774313     2.763134     2.751954     2.740775     2.729595     2.718416     2.707236     2.696057
      2.684877     2.673698     2.662519     2.651339     2.640160     2.628980     2.617801     2.606621     2.595442     2.584262
      2.573083     2.561903     2.550724     2.539545     2.528365     2.517186     2.506006     2.494827     2.483647     2.472468
      2.461288     2.450109     2.438930     2.427750     2.416571     2.405391     2.394212     2.383032     2.371853     2.360673
      2.349494     2.338315     2.327135     2.315956     2.304776     2.293597     2.282417     2.271238     2.260058     2.248879
      2.237700     2.226520     2.215341     2.204161     2.192982     2.181802     2.170623     2.159443     2.148264     2.137084
      2.125905     2.114726     2.103546     2.092367     2.081187     2.070008     2.058828     2.047649     2.036469     2.025290
      2.014111     2.002931     1.991752     1.980572     1.969393     1.958213     1.947034     1.935854     1.924675     1.913496
      1.902316     1.891137     1.879957     1.868778     1.857598     1.846419     1.835239     1.824060     1.812881     1.801701
      1.790522     1.779342     1.768163     1.756983     1.745804     1.734624     1.723445     1.712265     1.701086     1.689907
      1.678727     1.667548     1.656368     1.645189     1.634009     1.622830     1.611650     1.600471     1.589292     1.578112
      1.566933     1.555753     1.544574     1.533394     1.522215     1.511035     1.499856     1.488677     1.477497     1.466318
      1.455138     1.443959     1.432779     1.421600     1.410420     1.399241     1.388062     1.376882     1.365703     1.354523
      1.343344     1.332164     1.320985     1.309805     1.298626     1.287446     1.276267     1.265088     1.253908     1.242729
      1.231549     1.220370     1.209190     1.198011     1.186831     1.175652     1.164473     1.153293     1.142114     1.130934
      1.119755     1.108575     1.097396     1.086216     1.075037     1.063858     1.052678     1.041499     1.030319     1.019140
      1.007960     0.996781     0.985601     0.974422     0.963243     0.952063     0.940884     0.929704     0.918525     0.907345
      0.896166     0.884986     0.873807     0.862628     0.851448     0.840269     0.829089     0.817910     0.806730     0.795551
      0.784371     0.773192     0.762012     0.750833     0.739654     0.728474     0.717295     0.706115     0.694936     0.683756
      0.672577     0.661397     0.650218     0.639039     0.627859     0.616680     0.605500     0.594321     0.583141     0.571962
      0.560782     0.549603     0.538424     0.527244     0.516065     0.504885     0.493706     0.482526     0.471347     0.460167
      0.448988     0.437809     0.426629     0.415450     0.404270     0.393091     0.381911     0.370732     0.359552     0.348373
      0.337193     0.326014     0.314835     0.303655     0.292476     0.281296     0.270117     0.258937     0.247758     0.236578
      0.225399     0.214220     0.203040
 NY phased data points follow
   1.37944E-08  1.20369E-08  1.31296E-08  1.13147E-08  1.35400E-08  1.19688E-08  1.34026E-08  1.23041E-08  1.34560E-08  1.17190E-08
   1.31012E-08  1.20390E-08  1.25205E-08  1.15515E-08  1.23692E-08  1.08302E-08  1.24948E-08  1.12357E-08  1.24446E-08  1.08822E-08
   1.24251E-08  1.12043E-08  1.24961E-08  1.21417E-08  1.33772E-08  1.29898E-08  1.32035E-08  1.23306E-08  1.34352E-08  1.12559E-08
   1.21880E-08  1.12716E-08  1.10324E-08  1.04182E-08  1.09026E-08  9.85912E-09  1.01299E-08  9.30094E-09  9.29228E-09  8.94869E-09
   8.97726E-09  8.20855E-09  8.67986E-09  7.64923E-09  8.44588E-09  7.25332E-09  7.80214E-09  7.58795E-09  7.37586E-09  7.05652E-09
   7.01879E-09  7.13483E-09  7.57900E-09  7.75105E-09  8.70216E-09  9.47053E-09  9.98138E-09  1.08446E-08  1.05255E-08  9.73706E-09
   9.56293E-09  9.41094E-09  8.69268E-09  8.32739E-09  7.84623E-09  7.39460E-09  7.45486E-09  6.59193E-09  6.16596E-09  7.48455E-09
   8.67766E-09  1.01657E-08  1.08793E-08  1.20678E-08  1.24345E-08  1.33898E-08  1.26757E-08  1.27452E-08  1.26005E-08  1.23989E-08
   1.22994E-08  1.25803E-08  1.21762E-08  1.21417E-08  1.17855E-08  1.11525E-08  1.11013E-08  1.04909E-08  1.01716E-08  1.06079E-08
   9.56635E-09  1.00441E-08  9.27211E-09  9.41700E-09  9.37022E-09  9.34706E-09  9.24594E-09  9.41799E-09  8.95160E-09  8.80422E-09
   8.51942E-09  8.09655E-09  7.35367E-09  7.67457E-09  6.80705E-09  7.32793E-09  6.98809E-09  7.11945E-09  6.51425E-09  7.10574E-09
   7.19995E-09  6.97885E-09  6.95712E-09  6.74675E-09  6.38822E-09  6.49077E-09  5.93956E-09  5.60967E-09  5.34200E-09  5.39605E-09
   5.64569E-09  5.18125E-09  5.05135E-09  5.04011E-09  5.60709E-09  4.68133E-09  4.63952E-09  4.58766E-09  4.40977E-09  4.40299E-09
   4.53216E-09  4.85631E-09  5.09347E-09  5.04002E-09  5.65663E-09  5.56590E-09  5.69002E-09  6.53771E-09  6.49472E-09  6.59321E-09
   6.29787E-09  6.81214E-09  7.40821E-09  7.15970E-09  6.93511E-09  7.39790E-09  7.27244E-09  7.14222E-09  7.87772E-09  7.27586E-09
   8.04797E-09  7.68603E-09  7.69557E-09  7.96065E-09  7.99942E-09  7.89264E-09  8.18599E-09  8.32721E-09  8.54511E-09  9.71007E-09
   1.04428E-08  1.24986E-08  1.33325E-08  1.56668E-08  1.69544E-08  1.82110E-08  1.93247E-08  1.93679E-08  1.97820E-08  1.95427E-08
   1.97007E-08  1.98701E-08  1.95742E-08  1.92641E-08  1.98013E-08  1.93623E-08  1.89187E-08  1.93615E-08  1.95675E-08  1.86800E-08
   1.82257E-08  1.83781E-08  1.70762E-08  1.64319E-08  1.61485E-08  1.48527E-08  1.30547E-08  1.20993E-08  9.42535E-09  7.35932E-09
   5.40709E-09  3.20502E-09 -8.99180E-11 -2.67182E-09 -5.56469E-09 -7.97753E-09 -9.96947E-09 -1.14055E-08 -1.31596E-08 -1.37225E-08
  -1.47606E-08 -1.41996E-08 -1.43016E-08 -1.32900E-08 -1.25512E-08 -1.12463E-08 -9.95335E-09 -8.22749E-09 -6.63656E-09 -5.74462E-09
  -4.63104E-09 -3.86798E-09 -3.98988E-09 -3.33127E-09 -2.93494E-09 -2.24580E-09 -2.61725E-09 -1.66520E-09 -2.58550E-09 -2.07225E-09
  -2.30392E-09 -1.87309E-09 -2.53393E-09 -1.57070E-09 -1.70917E-09 -1.33851E-09 -2.01391E-09 -1.38350E-09 -2.06264E-09 -9.55192E-10
  -1.49797E-09 -1.01655E-09 -1.74583E-09 -1.26472E-09 -1.91655E-09 -1.14712E-09 -1.29442E-09 -1.19478E-09 -1.57129E-09 -9.21043E-10
  -1.58777E-09 -9.91767E-10 -1.91698E-09 -3.00924E-10 -1.37970E-09 -3.13394E-10 -1.55481E-09 -9.46764E-10 -9.36949E-10 -3.49051E-10
  -1.00803E-09 -3.77265E-10 -1.07029E-09 -5.39734E-10 -1.52410E-09 -6.97869E-10 -1.79098E-09 -1.43115E-09 -2.04944E-09 -1.09931E-09
  -1.84418E-09 -7.84793E-10 -1.64840E-09 -1.45419E-09 -1.50935E-09 -1.95957E-10 -1.64667E-09 -8.60601E-10 -1.00842E-09  2.53687E-10
  -1.13458E-09 -1.85850E-10 -4.21129E-10 -2.83423E-11 -1.07891E-09  3.65141E-11 -1.58339E-09  1.20821E-10 -1.30518E-09 -6.35975E-10
  -1.19744E-09 -5.50842E-12 -1.71215E-09 -8.28893E-10 -1.66581E-09 -8.21384E-10 -1.08762E-09 -9.28326E-10 -1.18767E-09 -1.04441E-09
  -1.11978E-09 -7.45885E-10 -1.37740E-09 -1.07379E-09 -1.80659E-09 -7.82702E-10 -1.87215E-09 -1.05700E-09 -1.91356E-09 -1.28416E-09
  -1.68367E-09 -9.60436E-10 -1.70419E-09 -1.08330E-09 -1.94670E-09 -1.35324E-09 -2.22502E-09 -1.14005E-09 -2.15040E-09 -9.46110E-10
  -2.02517E-09 -1.41008E-09 -2.40103E-09 -1.21779E-09 -2.40396E-09 -1.82741E-09 -2.60998E-09 -2.00994E-09 -2.25911E-09 -1.90963E-09
  -2.40093E-09 -1.81547E-09 -2.78060E-09 -1.48972E-09 -2.94633E-09 -1.53513E-09 -3.14198E-09 -1.87733E-09 -2.92180E-09 -1.67491E-09
  -3.13021E-09 -1.82424E-09 -2.77537E-09 -2.31047E-09 -2.94598E-09 -2.16338E-09 -3.10087E-09 -2.26599E-09 -3.05136E-09 -2.39047E-09
  -2.98867E-09 -2.21873E-09 -2.55874E-09 -2.63183E-09 -3.20772E-09 -2.66937E-09 -3.07599E-09 -2.19215E-09 -3.41379E-09 -2.16518E-09
  -3.61924E-09 -2.86461E-09 -3.94711E-09 -2.81013E-09 -3.98557E-09 -2.75080E-09 -3.59810E-09 -2.65668E-09 -3.59888E-09 -2.81256E-09
  -3.46950E-09 -3.15121E-09 -3.84570E-09
 NY points of the fit to the data follow
   1.59326E-08  1.30688E-08  1.21733E-08  1.23017E-08  1.26051E-08  1.21938E-08  1.19184E-08  1.24736E-08  1.28147E-08  1.23961E-08
   1.22932E-08  1.21988E-08  1.23711E-08  1.24686E-08  1.21151E-08  1.17393E-08  1.20252E-08  1.21269E-08  1.11035E-08  1.02789E-08
   1.07703E-08  1.20079E-08  1.26264E-08  1.30462E-08  1.34503E-08  1.38308E-08  1.35556E-08  1.26891E-08  1.18004E-08  1.16851E-08
   1.15478E-08  1.13539E-08  1.10036E-08  1.07590E-08  1.02021E-08  9.66182E-09  9.42408E-09  9.53652E-09  9.50343E-09  9.31797E-09
   8.98726E-09  8.45109E-09  7.67500E-09  7.32745E-09  7.24814E-09  7.10482E-09  6.94433E-09  6.84900E-09  7.22836E-09  7.70881E-09
   8.25743E-09  8.62469E-09  8.78553E-09  8.97962E-09  9.10753E-09  9.12748E-09  9.35040E-09  9.52643E-09  9.52046E-09  9.34130E-09
   9.18169E-09  9.10831E-09  9.18689E-09  9.14570E-09  9.18892E-09  9.40521E-09  9.45098E-09  9.38729E-09  9.51356E-09  9.83319E-09
   1.00837E-08  1.01413E-08  1.03194E-08  1.05182E-08  1.06568E-08  1.09513E-08  1.16617E-08  1.28906E-08  1.32077E-08  1.28300E-08
   1.22454E-08  1.18258E-08  1.15886E-08  1.14307E-08  1.13628E-08  1.10455E-08  1.02418E-08  9.03341E-09  7.86447E-09  7.77722E-09
   7.81922E-09  7.89590E-09  7.95228E-09  7.89103E-09  7.85518E-09  7.90423E-09  7.84822E-09  7.78158E-09  7.79489E-09  7.78938E-09
   7.78322E-09  7.79647E-09  7.81339E-09  7.83266E-09  7.85319E-09  7.87330E-09  7.89211E-09  7.90928E-09  7.92447E-09  7.93759E-09
   7.94857E-09  7.95717E-09  7.96346E-09  7.96746E-09  7.96917E-09  7.96865E-09  7.96584E-09  7.96069E-09  7.95318E-09  7.94339E-09
   7.93121E-09  7.91674E-09  7.89991E-09  7.88075E-09  7.85923E-09  7.83533E-09  7.80903E-09  7.78038E-09  7.74931E-09  7.71583E-09
   7.67993E-09  7.64157E-09  7.60079E-09  7.55755E-09  7.51184E-09  7.46361E-09  7.41296E-09  7.35978E-09  7.30411E-09  7.24591E-09
   7.18524E-09  7.12208E-09  7.05644E-09  6.98831E-09  6.91776E-09  6.84482E-09  6.76955E-09  6.69214E-09  6.61277E-09  6.53168E-09
   6.44912E-09  6.36543E-09  6.28099E-09  6.19631E-09  6.11201E-09  6.02895E-09  5.94829E-09  5.87167E-09  5.80151E-09  5.74153E-09
   5.69772E-09  5.68053E-09  5.70957E-09  5.82651E-09  6.13606E-09  6.98422E-09  1.01210E-08  1.74548E-08  2.17701E-08  2.24289E-08
   2.15673E-08  2.06827E-08  2.03505E-08  2.08336E-08  2.19338E-08  2.25459E-08  2.06637E-08  1.46562E-08  7.25905E-09  5.16428E-09
   4.29757E-09  3.79575E-09  3.44604E-09  3.17349E-09  2.94525E-09  2.74477E-09  2.56289E-09  2.39417E-09  2.23509E-09  2.08344E-09
   1.93773E-09  1.79683E-09  1.66004E-09  1.52679E-09  1.39675E-09  1.26960E-09  1.14511E-09  1.02321E-09  9.03762E-10  7.86674E-10
   6.71931E-10  5.59509E-10  4.49411E-10  3.41631E-10  2.36173E-10  1.33104E-10  3.24228E-11 -6.58332E-11 -1.61631E-10 -2.54870E-10
  -3.45591E-10 -4.33676E-10 -5.19096E-10 -6.01807E-10 -6.81774E-10 -7.58891E-10 -8.33136E-10 -9.04478E-10 -9.72817E-10 -1.03823E-09
  -1.10076E-09 -1.16049E-09 -1.21746E-09 -1.27176E-09 -1.32343E-09 -1.37255E-09 -1.41918E-09 -1.46337E-09 -1.50520E-09 -1.54471E-09
  -1.58199E-09 -1.61708E-09 -1.65006E-09 -1.68097E-09 -1.70989E-09 -1.73687E-09 -1.76197E-09 -1.78526E-09 -1.80679E-09 -1.82663E-09
  -1.84483E-09 -1.86146E-09 -1.87658E-09 -1.89023E-09 -1.90248E-09 -1.91340E-09 -1.92303E-09 -1.93145E-09 -1.93870E-09 -1.94483E-09
  -1.94992E-09 -1.95400E-09 -1.95717E-09 -1.95942E-09 -1.96084E-09 -1.96152E-09 -1.96146E-09 -1.96073E-09 -1.95940E-09 -1.95749E-09
  -1.95508E-09 -1.95223E-09 -1.94897E-09 -1.94535E-09 -1.94143E-09 -1.93725E-09 -1.93288E-09 -1.92833E-09 -1.92369E-09 -1.91898E-09
  -1.91426E-09 -1.90956E-09 -1.90495E-09 -1.90043E-09 -1.89611E-09 -1.89197E-09 -1.88808E-09 -1.88450E-09 -1.88122E-09 -1.87832E-09
  -1.87584E-09 -1.87380E-09 -1.87225E-09 -1.87120E-09 -1.87072E-09 -1.87083E-09 -1.87158E-09 -1.87295E-09 -1.87503E-09 -1.87784E-09
  -1.88138E-09 -1.88568E-09 -1.89071E-09 -1.89644E-09 -1.90283E-09 -1.90986E-09 -1.91749E-09 -1.92570E-09 -1.93445E-09 -1.94372E-09
  -1.95349E-09 -1.96371E-09 -1.97436E-09 -1.98541E-09 -1.99684E-09 -2.00861E-09 -2.02070E-09 -2.03309E-09 -2.04573E-09 -2.05861E-09
  -2.07169E-09 -2.08496E-09 -2.09838E-09 -2.11193E-09 -2.12558E-09 -2.13931E-09 -2.15309E-09 -2.16689E-09 -2.18069E-09 -2.19447E-09
  -2.20820E-09 -2.22185E-09 -2.23541E-09 -2.24885E-09 -2.26214E-09 -2.27526E-09 -2.28820E-09 -2.30092E-09 -2.31341E-09 -2.32564E-09
  -2.33759E-09 -2.34925E-09 -2.36058E-09 -2.37158E-09 -2.38222E-09 -2.39248E-09 -2.40234E-09 -2.41178E-09 -2.42079E-09 -2.42934E-09
  -2.43742E-09 -2.44501E-09 -2.45210E-09 -2.45867E-09 -2.46468E-09 -2.47016E-09 -2.47506E-09 -2.47938E-09 -2.48310E-09 -2.48620E-09
  -2.48868E-09 -2.49052E-09 -2.49170E-09 -2.49222E-09 -2.49206E-09 -2.49121E-09 -2.48967E-09 -2.48741E-09 -2.48444E-09 -2.48073E-09
  -2.47628E-09 -2.47108E-09 -2.46513E-09
 NY background values follow
     7.651E-09    7.687E-09    7.721E-09    7.755E-09    7.788E-09    7.820E-09    7.851E-09    7.881E-09    7.910E-09    7.939E-09
     7.966E-09    7.993E-09    8.019E-09    8.044E-09    8.069E-09    8.092E-09    8.115E-09    8.137E-09    8.158E-09    8.179E-09
     8.198E-09    8.217E-09    8.235E-09    8.253E-09    8.269E-09    8.285E-09    8.300E-09    8.315E-09    8.329E-09    8.342E-09
     8.354E-09    8.366E-09    8.377E-09    8.388E-09    8.397E-09    8.407E-09    8.415E-09    8.423E-09    8.430E-09    8.437E-09
     8.443E-09    8.449E-09    8.454E-09    8.459E-09    8.463E-09    8.466E-09    8.470E-09    8.472E-09    8.474E-09    8.476E-09
     8.477E-09    8.478E-09    8.478E-09    8.478E-09    8.478E-09    8.477E-09    8.476E-09    8.475E-09    8.473E-09    8.471E-09
     8.469E-09    8.466E-09    8.463E-09    8.460E-09    8.457E-09    8.453E-09    8.450E-09    8.446E-09    8.442E-09    8.437E-09
     8.433E-09    8.428E-09    8.424E-09    8.419E-09    8.414E-09    8.410E-09    8.405E-09    8.399E-09    8.394E-09    8.388E-09
     8.383E-09    8.376E-09    8.370E-09    8.363E-09    8.356E-09    8.349E-09    8.341E-09    8.332E-09    8.324E-09    8.314E-09
     8.304E-09    8.294E-09    8.283E-09    8.271E-09    8.259E-09    8.246E-09    8.232E-09    8.217E-09    8.202E-09    8.186E-09
     8.168E-09    8.150E-09    8.131E-09    8.112E-09    8.091E-09    8.069E-09    8.045E-09    8.021E-09    7.996E-09    7.969E-09
     7.942E-09    7.913E-09    7.882E-09    7.851E-09    7.818E-09    7.783E-09    7.747E-09    7.710E-09    7.671E-09    7.631E-09
     7.589E-09    7.545E-09    7.500E-09    7.453E-09    7.404E-09    7.353E-09    7.301E-09    7.247E-09    7.191E-09    7.133E-09
     7.073E-09    7.011E-09    6.947E-09    6.881E-09    6.813E-09    6.742E-09    6.670E-09    6.595E-09    6.518E-09    6.439E-09
     6.358E-09    6.274E-09    6.188E-09    6.099E-09    6.008E-09    5.915E-09    5.819E-09    5.720E-09    5.619E-09    5.516E-09
     5.411E-09    5.304E-09    5.194E-09    5.083E-09    4.970E-09    4.855E-09    4.738E-09    4.619E-09    4.499E-09    4.377E-09
     4.254E-09    4.130E-09    4.004E-09    3.877E-09    3.750E-09    3.621E-09    3.491E-09    3.360E-09    3.228E-09    3.096E-09
     2.963E-09    2.829E-09    2.695E-09    2.561E-09    2.426E-09    2.292E-09    2.157E-09    2.022E-09    1.887E-09    1.752E-09
     1.617E-09    1.483E-09    1.348E-09    1.215E-09    1.082E-09    9.490E-10    8.171E-10    6.860E-10    5.557E-10    4.263E-10
     2.979E-10    1.706E-10    4.442E-11   -8.053E-11   -2.041E-10   -3.264E-10   -4.472E-10   -5.664E-10   -6.841E-10   -8.000E-10
    -9.142E-10   -1.027E-09   -1.137E-09   -1.245E-09   -1.352E-09   -1.456E-09   -1.558E-09   -1.658E-09   -1.755E-09   -1.850E-09
    -1.943E-09   -2.033E-09   -2.120E-09   -2.205E-09   -2.287E-09   -2.366E-09   -2.442E-09   -2.515E-09   -2.586E-09   -2.653E-09
    -2.717E-09   -2.779E-09   -2.838E-09   -2.894E-09   -2.947E-09   -2.998E-09   -3.046E-09   -3.092E-09   -3.135E-09   -3.176E-09
    -3.215E-09   -3.251E-09   -3.286E-09   -3.318E-09   -3.348E-09   -3.376E-09   -3.402E-09   -3.426E-09   -3.448E-09   -3.469E-09
    -3.488E-09   -3.505E-09   -3.521E-09   -3.535E-09   -3.548E-09   -3.559E-09   -3.569E-09   -3.577E-09   -3.585E-09   -3.591E-09
    -3.596E-09   -3.600E-09   -3.603E-09   -3.605E-09   -3.606E-09   -3.606E-09   -3.605E-09   -3.604E-09   -3.602E-09   -3.599E-09
    -3.596E-09   -3.592E-09   -3.588E-09   -3.583E-09   -3.578E-09   -3.573E-09   -3.567E-09   -3.561E-09   -3.555E-09   -3.549E-09
    -3.543E-09   -3.537E-09   -3.530E-09   -3.524E-09   -3.518E-09   -3.512E-09   -3.506E-09   -3.500E-09   -3.495E-09   -3.490E-09
    -3.485E-09   -3.481E-09   -3.477E-09   -3.473E-09   -3.470E-09   -3.468E-09   -3.466E-09   -3.465E-09   -3.464E-09   -3.464E-09
    -3.465E-09   -3.466E-09   -3.468E-09   -3.471E-09   -3.474E-09   -3.478E-09   -3.482E-09   -3.487E-09   -3.492E-09   -3.498E-09
    -3.504E-09   -3.511E-09   -3.518E-09   -3.525E-09   -3.533E-09   -3.541E-09   -3.549E-09   -3.558E-09   -3.566E-09   -3.575E-09
    -3.584E-09   -3.593E-09   -3.603E-09   -3.612E-09   -3.621E-09   -3.631E-09   -3.640E-09   -3.649E-09   -3.658E-09   -3.668E-09
    -3.677E-09   -3.686E-09   -3.695E-09   -3.703E-09   -3.712E-09   -3.720E-09   -3.728E-09   -3.736E-09   -3.743E-09   -3.750E-09
    -3.757E-09   -3.764E-09   -3.770E-09   -3.775E-09   -3.781E-09   -3.786E-09   -3.790E-09   -3.794E-09   -3.798E-09   -3.801E-09
    -3.803E-09   -3.805E-09   -3.806E-09   -3.807E-09   -3.807E-09   -3.807E-09   -3.806E-09   -3.805E-09   -3.802E-09   -3.800E-09
    -3.796E-09   -3.792E-09   -3.787E-09   -3.781E-09   -3.775E-09   -3.768E-09   -3.760E-09   -3.752E-09   -3.742E-09   -3.732E-09
    -3.721E-09   -3.710E-09   -3.697E-09
 Asp      Conc. = 2.11E-10
   7.73586E-09  7.73474E-09  7.75506E-09  7.76570E-09  7.78251E-09  7.79807E-09  7.80956E-09  7.84265E-09  7.88026E-09  7.91673E-09
   7.95155E-09  7.98490E-09  8.01693E-09  8.04767E-09  8.07685E-09  8.10483E-09  8.13176E-09  8.15771E-09  8.18275E-09  8.20692E-09
   8.23029E-09  8.25289E-09  8.27477E-09  8.29599E-09  8.31659E-09  8.33665E-09  8.35623E-09  8.37541E-09  8.39428E-09  8.41296E-09
   8.43164E-09  8.45051E-09  8.46990E-09  8.49036E-09  8.51275E-09  8.53882E-09  8.56829E-09  8.58705E-09  8.60067E-09  8.60498E-09
   8.61200E-09  8.63185E-09  8.67530E-09  8.71899E-09  8.77449E-09  8.79057E-09  8.75235E-09  8.71294E-09  8.72726E-09  8.73845E-09
   8.74389E-09  8.74059E-09  8.70492E-09  8.63579E-09  8.57150E-09  8.52010E-09  8.51854E-09  8.52831E-09  8.50484E-09  8.46330E-09
   8.45408E-09  8.44503E-09  8.43651E-09  8.44361E-09  8.44535E-09  8.43240E-09  8.41834E-09  8.41206E-09  8.40804E-09  8.40481E-09
   8.40181E-09  8.39883E-09  8.39585E-09  8.39274E-09  8.38952E-09  8.38613E-09  8.38255E-09  8.37874E-09  8.37468E-09  8.37036E-09
   8.36571E-09  8.36075E-09  8.35543E-09  8.34972E-09  8.34363E-09  8.33710E-09  8.33010E-09  8.32262E-09  8.31463E-09  8.30609E-09
   8.29697E-09  8.28727E-09  8.27690E-09  8.26590E-09  8.25419E-09  8.24174E-09  8.22855E-09  8.21456E-09  8.19975E-09  8.18408E-09
   8.16752E-09  8.15004E-09  8.13159E-09  8.11217E-09  8.09171E-09  8.07019E-09  8.04756E-09  8.02384E-09  7.99894E-09  7.97279E-09
   7.94547E-09  7.91685E-09  7.88691E-09  7.85563E-09  7.82296E-09  7.78889E-09  7.75337E-09  7.71635E-09  7.67780E-09  7.63773E-09
   7.59600E-09  7.55268E-09  7.50767E-09  7.46096E-09  7.41252E-09  7.36228E-09  7.31020E-09  7.25631E-09  7.20051E-09  7.14279E-09
   7.08311E-09  7.02141E-09  6.95771E-09  6.89194E-09  6.82406E-09  6.75401E-09  6.68185E-09  6.60744E-09  6.53080E-09  6.45186E-09
   6.37063E-09  6.28706E-09  6.20112E-09  6.11273E-09  6.02193E-09  5.92865E-09  5.83289E-09  5.73472E-09  5.63421E-09  5.53144E-09
   5.42649E-09  5.31944E-09  5.21036E-09  5.09935E-09  4.98647E-09  4.87184E-09  4.75554E-09  4.63768E-09  4.51839E-09  4.39780E-09
   4.27607E-09  4.15352E-09  4.03052E-09  3.90790E-09  3.78751E-09  3.67515E-09  3.59904E-09  3.61671E-09  3.57770E-09  3.46355E-09
   3.31651E-09  3.16751E-09  3.02833E-09  2.90471E-09  2.79423E-09  2.67705E-09  2.51472E-09  2.27074E-09  1.98594E-09  1.81051E-09
   1.66112E-09  1.51939E-09  1.38101E-09  1.24459E-09  1.10953E-09  9.75580E-10  8.42659E-10  7.10769E-10  5.79845E-10  4.49964E-10
   3.21200E-10  1.93553E-10  6.71192E-11 -5.80505E-11 -1.81848E-10 -3.04243E-10 -4.25178E-10 -5.44518E-10 -6.62221E-10 -7.78244E-10
  -8.92484E-10 -1.00487E-09 -1.11533E-09 -1.22380E-09 -1.33022E-09 -1.43447E-09 -1.53652E-09 -1.63631E-09 -1.73375E-09 -1.82874E-09
  -1.92130E-09 -2.01127E-09 -2.09863E-09 -2.18330E-09 -2.26525E-09 -2.34436E-09 -2.42059E-09 -2.49391E-09 -2.56420E-09 -2.63155E-09
  -2.69597E-09 -2.75757E-09 -2.81637E-09 -2.87244E-09 -2.92584E-09 -2.97664E-09 -3.02489E-09 -3.07065E-09 -3.11398E-09 -3.15494E-09
  -3.19360E-09 -3.23001E-09 -3.26423E-09 -3.29633E-09 -3.32636E-09 -3.35438E-09 -3.38046E-09 -3.40465E-09 -3.42702E-09 -3.44761E-09
  -3.46649E-09 -3.48374E-09 -3.49939E-09 -3.51351E-09 -3.52615E-09 -3.53737E-09 -3.54725E-09 -3.55583E-09 -3.56316E-09 -3.56931E-09
  -3.57434E-09 -3.57828E-09 -3.58124E-09 -3.58321E-09 -3.58428E-09 -3.58452E-09 -3.58395E-09 -3.58264E-09 -3.58065E-09 -3.57802E-09
  -3.57480E-09 -3.57107E-09 -3.56686E-09 -3.56223E-09 -3.55721E-09 -3.55186E-09 -3.54626E-09 -3.54040E-09 -3.53438E-09 -3.52822E-09
  -3.52197E-09 -3.51568E-09 -3.50941E-09 -3.50316E-09 -3.49704E-09 -3.49103E-09 -3.48521E-09 -3.47961E-09 -3.47427E-09 -3.46922E-09
  -3.46453E-09 -3.46022E-09 -3.45633E-09 -3.45288E-09 -3.44992E-09 -3.44750E-09 -3.44564E-09 -3.44435E-09 -3.44370E-09 -3.44371E-09
  -3.44439E-09 -3.44578E-09 -3.44782E-09 -3.45050E-09 -3.45378E-09 -3.45765E-09 -3.46205E-09 -3.46696E-09 -3.47237E-09 -3.47823E-09
  -3.48453E-09 -3.49122E-09 -3.49828E-09 -3.50569E-09 -3.51342E-09 -3.52143E-09 -3.52970E-09 -3.53821E-09 -3.54692E-09 -3.55581E-09
  -3.56486E-09 -3.57403E-09 -3.58330E-09 -3.59264E-09 -3.60203E-09 -3.61145E-09 -3.62086E-09 -3.63024E-09 -3.63957E-09 -3.64883E-09
  -3.65799E-09 -3.66701E-09 -3.67589E-09 -3.68460E-09 -3.69312E-09 -3.70141E-09 -3.70947E-09 -3.71727E-09 -3.72479E-09 -3.73200E-09
  -3.73889E-09 -3.74543E-09 -3.75160E-09 -3.75738E-09 -3.76277E-09 -3.76773E-09 -3.77225E-09 -3.77630E-09 -3.77988E-09 -3.78295E-09
  -3.78551E-09 -3.78753E-09 -3.78902E-09 -3.78993E-09 -3.79026E-09 -3.79000E-09 -3.78913E-09 -3.78763E-09 -3.78549E-09 -3.78270E-09
  -3.77925E-09 -3.77511E-09 -3.77028E-09 -3.76475E-09 -3.75851E-09 -3.75153E-09 -3.74382E-09 -3.73536E-09 -3.72615E-09 -3.71617E-09
  -3.70541E-09 -3.69387E-09 -3.68154E-09
 GABA     Conc. = 6.27E-10
   7.95436E-09  7.99498E-09  8.03499E-09  8.07442E-09  8.11329E-09  8.15165E-09  8.18952E-09  8.22695E-09  8.26400E-09  8.30073E-09
   8.33719E-09  8.37351E-09  8.40972E-09  8.44592E-09  8.48231E-09  8.51894E-09  8.55599E-09  8.59386E-09  8.63273E-09  8.67292E-09
   8.71502E-09  8.75964E-09  8.80766E-09  8.86037E-09  8.91955E-09  8.98811E-09  9.07103E-09  9.17732E-09  9.32509E-09  9.50898E-09
   9.54313E-09  9.61526E-09  9.84059E-09  9.86992E-09  9.78350E-09  9.79965E-09  9.77738E-09  9.66691E-09  9.49369E-09  9.29740E-09
   9.14447E-09  9.06520E-09  8.81897E-09  8.59796E-09  8.62884E-09  8.58064E-09  8.46133E-09  8.46631E-09  8.49688E-09  8.53216E-09
   8.56809E-09  8.60356E-09  8.63908E-09  8.67552E-09  8.71360E-09  8.75441E-09  8.79985E-09  8.85249E-09  8.91638E-09  8.99899E-09
   9.11471E-09  9.29265E-09  9.41463E-09  9.43450E-09  9.58121E-09  9.69264E-09  9.62655E-09  9.56357E-09  9.53428E-09  9.46890E-09
   9.34251E-09  9.16351E-09  8.97567E-09  8.86509E-09  8.72857E-09  8.48941E-09  8.43568E-09  8.47454E-09  8.43635E-09  8.46614E-09
   8.54136E-09  8.56028E-09  8.65105E-09  8.80640E-09  8.84147E-09  8.87531E-09  8.97601E-09  9.02128E-09  9.02457E-09  9.00559E-09
   8.95532E-09  8.92628E-09  8.88683E-09  8.73688E-09  8.62375E-09  8.60068E-09  8.47708E-09  8.34824E-09  8.30489E-09  8.24809E-09
   8.18703E-09  8.14707E-09  8.11666E-09  8.09073E-09  8.06680E-09  8.04360E-09  8.02053E-09  7.99724E-09  7.97341E-09  7.94880E-09
   7.92325E-09  7.89646E-09  7.86844E-09  7.83913E-09  7.80850E-09  7.77654E-09  7.74315E-09  7.70823E-09  7.67174E-09  7.63369E-09
   7.59395E-09  7.55258E-09  7.50949E-09  7.46466E-09  7.41805E-09  7.36961E-09  7.31928E-09  7.26711E-09  7.21299E-09  7.15690E-09
   7.09882E-09  7.03867E-09  6.97650E-09  6.91222E-09  6.84580E-09  6.77718E-09  6.70642E-09  6.63338E-09  6.55808E-09  6.48046E-09
   6.40053E-09  6.31824E-09  6.23355E-09  6.14641E-09  6.05683E-09  5.96477E-09  5.87021E-09  5.77325E-09  5.67395E-09  5.57241E-09
   5.46869E-09  5.36290E-09  5.25511E-09  5.14544E-09  5.03399E-09  4.92088E-09  4.80624E-09  4.69024E-09  4.57308E-09  4.45504E-09
   4.33648E-09  4.21806E-09  4.10084E-09  3.98704E-09  3.88195E-09  3.80222E-09  3.82842E-09  4.13989E-09  4.28770E-09  4.21210E-09
   4.03807E-09  3.85835E-09  3.70837E-09  3.60531E-09  3.54240E-09  3.46140E-09  3.24843E-09  2.79301E-09  2.20976E-09  1.95174E-09
   1.77305E-09  1.61707E-09  1.47051E-09  1.32893E-09  1.19041E-09  1.05405E-09  9.19392E-10  7.86232E-10  6.54372E-10  5.23797E-10
   3.94518E-10  2.66496E-10  1.39794E-10  1.44395E-11 -1.09476E-10 -2.31937E-10 -3.52894E-10 -4.72223E-10 -5.89887E-10 -7.05847E-10
  -8.20006E-10 -9.32301E-10 -1.04265E-09 -1.15100E-09 -1.25729E-09 -1.36142E-09 -1.46333E-09 -1.56298E-09 -1.66028E-09 -1.75513E-09
  -1.84754E-09 -1.93737E-09 -2.02458E-09 -2.10912E-09 -2.19093E-09 -2.26989E-09 -2.34599E-09 -2.41917E-09 -2.48933E-09 -2.55655E-09
  -2.62085E-09 -2.68233E-09 -2.74100E-09 -2.79696E-09 -2.85025E-09 -2.90094E-09 -2.94908E-09 -2.99474E-09 -3.03798E-09 -3.07884E-09
