 LCModel (Version 6.3-1R) Copyright: S.W. Provencher.          Ref.: Magn. Reson. Med. 30:672-679 (1993).                
 onepulse 29x17_ftSpec_smooth_lcm
 26 lines in following concentration table = NCONC+1
    Conc.  %SD /Cr+PCr  Metabolite                                         
    0.000 999%   0.000 Ala                                                 
    0.000 999%   0.000 Asp                                                 
    0.000 999%   0.000 Cr                                                  
    0.000 999%   0.000 GABA                                                
 1.33E-10 895%   1.055 Glc                                                 
 9.69E-10  79%   7.675 Gln                                                 
    0.000 999%   0.000 Glu                                                 
    0.000 999%   0.000 Glyc                                                
 1.63E-10  93%   1.287 GPC                                                 
    0.000 999%   0.000 GSH                                                 
 1.46E-09  45%  11.563 Ins                                                 
    0.000 999%   0.000 Lac                                                 
 2.10E-10 197%   1.663 NAAG                                                
 4.91E-10 117%   3.893 NAA                                                 
    0.000 999%   0.000 PCh                                                 
 1.26E-10 246%   1.000 PCr                                                 
    0.000 999%   0.000 PE                                                  
 9.30E-11 388%   0.737 Scyllo                                              
 5.74E-09  21%  45.452 Ser                                                 
 3.07E-10 374%   2.434 Tau                                                 
 1.63E-10  93%   1.287 GPC+PCh                                             
 7.01E-10  51%   5.556 NAA+NAAG                                            
 1.46E-09  45%  11.563 Ins+Glyc                                            
 1.26E-10 246%   1.000 Cr+PCr                                              
 9.69E-10  79%   7.675 Glu+Gln                                             
   6 lines in following misc. output table
  FWHM = 0.112 ppm    S/N =   2                                            
  Data shift = 0.380 ppm                                                   
  Ph: -37 deg     -35.3 deg/ppm                                            
  alphaB,S = 8.4E-01,   1.7E+01                                            
    8 spline knots.   Ns = 5(1)                                            
  (12) 4 infls.   ( 9) 1 extrs.                                            
  363 points on ppm-axis = NY
      4.250000     4.238821     4.227641     4.216462     4.205282     4.194103     4.182923     4.171744     4.160564     4.149385
      4.138206     4.127026     4.115847     4.104667     4.093488     4.082308     4.071129     4.059949     4.048770     4.037591
      4.026411     4.015232     4.004052     3.992873     3.981693     3.970514     3.959334     3.948155     3.936975     3.925796
      3.914617     3.903437     3.892258     3.881078     3.869899     3.858719     3.847540     3.836360     3.825181     3.814002
      3.802822     3.791643     3.780463     3.769284     3.758104     3.746925     3.735745     3.724566     3.713387     3.702207
      3.691028     3.679848     3.668669     3.657489     3.646310     3.635130     3.623951     3.612772     3.601592     3.590413
      3.579233     3.568054     3.556874     3.545695     3.534515     3.523336     3.512156     3.500977     3.489798     3.478618
      3.467439     3.456259     3.445080     3.433900     3.422721     3.411541     3.400362     3.389183     3.378003     3.366824
      3.355644     3.344465     3.333285     3.322106     3.310926     3.299747     3.288568     3.277388     3.266209     3.255029
      3.243850     3.232670     3.221491     3.210311     3.199132     3.187953     3.176773     3.165594     3.154414     3.143235
      3.132055     3.120876     3.109696     3.098517     3.087337     3.076158     3.064979     3.053799     3.042620     3.031440
      3.020261     3.009081     2.997902     2.986722     2.975543     2.964364     2.953184     2.942005     2.930825     2.919646
      2.908466     2.897287     2.886107     2.874928     2.863749     2.852569     2.841390     2.830210     2.819031     2.807851
      2.796672     2.785492     2.774313     2.763134     2.751954     2.740775     2.729595     2.718416     2.707236     2.696057
      2.684877     2.673698     2.662519     2.651339     2.640160     2.628980     2.617801     2.606621     2.595442     2.584262
      2.573083     2.561903     2.550724     2.539545     2.528365     2.517186     2.506006     2.494827     2.483647     2.472468
      2.461288     2.450109     2.438930     2.427750     2.416571     2.405391     2.394212     2.383032     2.371853     2.360673
      2.349494     2.338315     2.327135     2.315956     2.304776     2.293597     2.282417     2.271238     2.260058     2.248879
      2.237700     2.226520     2.215341     2.204161     2.192982     2.181802     2.170623     2.159443     2.148264     2.137084
      2.125905     2.114726     2.103546     2.092367     2.081187     2.070008     2.058828     2.047649     2.036469     2.025290
      2.014111     2.002931     1.991752     1.980572     1.969393     1.958213     1.947034     1.935854     1.924675     1.913496
      1.902316     1.891137     1.879957     1.868778     1.857598     1.846419     1.835239     1.824060     1.812881     1.801701
      1.790522     1.779342     1.768163     1.756983     1.745804     1.734624     1.723445     1.712265     1.701086     1.689907
      1.678727     1.667548     1.656368     1.645189     1.634009     1.622830     1.611650     1.600471     1.589292     1.578112
      1.566933     1.555753     1.544574     1.533394     1.522215     1.511035     1.499856     1.488677     1.477497     1.466318
      1.455138     1.443959     1.432779     1.421600     1.410420     1.399241     1.388062     1.376882     1.365703     1.354523
      1.343344     1.332164     1.320985     1.309805     1.298626     1.287446     1.276267     1.265088     1.253908     1.242729
      1.231549     1.220370     1.209190     1.198011     1.186831     1.175652     1.164473     1.153293     1.142114     1.130934
      1.119755     1.108575     1.097396     1.086216     1.075037     1.063858     1.052678     1.041499     1.030319     1.019140
      1.007960     0.996781     0.985601     0.974422     0.963243     0.952063     0.940884     0.929704     0.918525     0.907345
      0.896166     0.884986     0.873807     0.862628     0.851448     0.840269     0.829089     0.817910     0.806730     0.795551
      0.784371     0.773192     0.762012     0.750833     0.739654     0.728474     0.717295     0.706115     0.694936     0.683756
      0.672577     0.661397     0.650218     0.639039     0.627859     0.616680     0.605500     0.594321     0.583141     0.571962
      0.560782     0.549603     0.538424     0.527244     0.516065     0.504885     0.493706     0.482526     0.471347     0.460167
      0.448988     0.437809     0.426629     0.415450     0.404270     0.393091     0.381911     0.370732     0.359552     0.348373
      0.337193     0.326014     0.314835     0.303655     0.292476     0.281296     0.270117     0.258937     0.247758     0.236578
      0.225399     0.214220     0.203040
 NY phased data points follow
   1.08973E-08  1.29958E-08  1.09262E-08  1.28099E-08  1.06023E-08  1.23565E-08  9.64048E-09  1.15717E-08  9.26739E-09  1.11201E-08
   8.75610E-09  1.16741E-08  9.50006E-09  1.17324E-08  1.00806E-08  1.17376E-08  9.60750E-09  1.18965E-08  1.01734E-08  1.10337E-08
   9.43884E-09  1.08160E-08  8.89519E-09  1.13593E-08  9.43000E-09  1.09997E-08  8.94043E-09  1.12854E-08  9.06786E-09  1.13604E-08
   1.04439E-08  1.27783E-08  1.16115E-08  1.29768E-08  1.13328E-08  1.26742E-08  1.02275E-08  1.18239E-08  9.99050E-09  1.07490E-08
   9.40082E-09  1.04601E-08  8.61596E-09  9.58004E-09  8.09971E-09  9.24045E-09  8.12402E-09  8.83688E-09  7.08599E-09  8.13485E-09
   6.30754E-09  8.17253E-09  6.50588E-09  7.35114E-09  6.32872E-09  6.72090E-09  5.95900E-09  6.49346E-09  5.50701E-09  7.02605E-09
   6.43657E-09  8.35523E-09  8.87438E-09  9.98934E-09  1.00413E-08  1.03861E-08  8.94111E-09  9.05908E-09  8.16708E-09  8.37562E-09
   6.98861E-09  6.98776E-09  5.75763E-09  6.84172E-09  4.82688E-09  5.75402E-09  6.16740E-09  8.71277E-09  9.24688E-09  1.17794E-08
   1.17773E-08  1.30381E-08  1.26343E-08  1.32906E-08  1.20693E-08  1.25931E-08  1.15107E-08  1.21436E-08  1.17571E-08  1.18568E-08
   1.08987E-08  1.14774E-08  9.94624E-09  1.07431E-08  8.93386E-09  9.81740E-09  9.14626E-09  9.16387E-09  8.59843E-09  9.09419E-09
   8.26991E-09  9.15360E-09  7.80742E-09  8.36838E-09  7.99973E-09  7.96419E-09  7.00480E-09  7.32386E-09  6.23649E-09  6.18227E-09
   5.83038E-09  6.10429E-09  5.83648E-09  6.11763E-09  5.57379E-09  5.76672E-09  5.88768E-09  6.55662E-09  5.75541E-09  6.23262E-09
   5.39709E-09  6.07779E-09  5.27179E-09  4.88458E-09  4.00387E-09  4.47021E-09  4.32049E-09  5.14898E-09  3.90176E-09  4.30619E-09
   4.33615E-09  5.05523E-09  3.69182E-09  4.49424E-09  4.01737E-09  4.47133E-09  3.78302E-09  5.22962E-09  4.81042E-09  5.85442E-09
   5.64041E-09  6.56055E-09  6.11808E-09  6.97279E-09  6.88506E-09  7.86415E-09  6.92603E-09  7.80118E-09  7.62228E-09  8.43830E-09
   7.28843E-09  7.97666E-09  7.48508E-09  8.13049E-09  7.51309E-09  8.71673E-09  7.33341E-09  8.54809E-09  7.45429E-09  8.48858E-09
   7.51839E-09  8.42415E-09  7.75076E-09  8.40537E-09  7.85982E-09  9.14865E-09  9.36935E-09  1.16411E-08  1.30394E-08  1.50132E-08
   1.69723E-08  1.76908E-08  1.76458E-08  1.77269E-08  1.68932E-08  1.67060E-08  1.53228E-08  1.56831E-08  1.43965E-08  1.40452E-08
   1.27661E-08  1.27829E-08  1.12628E-08  1.08040E-08  9.50291E-09  9.05186E-09  6.71314E-09  6.04634E-09  4.42392E-09  2.72276E-09
   6.67199E-10 -4.22804E-10 -4.08133E-09 -4.80428E-09 -7.34206E-09 -9.50985E-09 -1.19949E-08 -1.27813E-08 -1.49988E-08 -1.58709E-08
  -1.70645E-08 -1.71622E-08 -1.82311E-08 -1.63796E-08 -1.65364E-08 -1.48474E-08 -1.39301E-08 -1.20389E-08 -1.06406E-08 -8.86084E-09
  -7.39377E-09 -5.43381E-09 -5.12133E-09 -3.72453E-09 -3.49719E-09 -1.81183E-09 -2.95804E-09 -1.62650E-09 -2.90041E-09 -2.06783E-09
  -2.19968E-09 -1.47187E-09 -1.93310E-09 -1.43469E-09 -1.56530E-09 -1.71990E-09 -2.34455E-09 -1.14959E-09 -1.51182E-09 -1.23676E-09
  -1.54473E-09 -1.31537E-09 -1.61693E-09 -1.56169E-09 -1.45202E-09 -9.50048E-10 -7.35654E-10 -4.96539E-10 -1.52454E-09 -1.05848E-09
  -1.42805E-09 -1.21516E-09 -1.08696E-09 -8.90778E-10 -1.75111E-09 -3.98837E-10 -1.55427E-09 -9.89431E-11 -1.19021E-09 -4.53726E-10
  -9.06950E-11  1.84786E-10 -6.58233E-10 -7.05686E-10 -5.74567E-10 -2.46283E-10 -1.05676E-09 -7.41760E-10 -1.21694E-09 -7.68045E-10
  -1.10356E-09 -1.01363E-09 -1.37972E-09 -1.19372E-09 -1.45817E-09 -6.56665E-10 -9.01471E-10 -2.41690E-10 -7.18619E-10 -1.91697E-10
  -4.64767E-10  2.71552E-10  1.28022E-10  6.19111E-11  2.10423E-12  8.50869E-10  2.15342E-10  5.15720E-10  3.99149E-11  3.80219E-10
  -5.60139E-10 -1.75613E-10 -7.87856E-10 -6.11370E-10 -3.44698E-10 -5.01486E-10 -8.53432E-10 -2.32383E-10 -7.78457E-10 -8.03101E-10
  -9.24739E-10 -1.00981E-09 -5.69292E-10 -5.57357E-10 -9.67670E-10 -7.49602E-10 -8.26621E-10 -2.14847E-10 -1.20279E-09 -6.17906E-10
  -1.33257E-09 -8.12914E-10 -1.03145E-09 -8.10617E-10 -8.47163E-10 -5.93784E-10 -6.56409E-10 -5.50322E-10 -8.17902E-10 -3.49198E-10
  -1.09587E-09 -5.35735E-10 -1.17362E-09 -6.12908E-10 -8.81779E-10 -4.61478E-10 -7.40450E-10 -1.15259E-09 -1.18481E-09 -4.36416E-10
  -8.20412E-10 -8.54645E-10 -9.74239E-10 -4.69997E-10 -7.55427E-10 -6.18024E-10 -7.52991E-10 -5.00907E-10 -9.06172E-10 -4.31818E-10
  -8.58126E-10 -5.61284E-10 -6.16060E-10 -9.81682E-10 -8.55215E-10 -4.01623E-10 -6.20151E-10 -8.36956E-10 -2.83702E-10 -8.78207E-10
  -7.39428E-10 -4.38665E-10 -3.47334E-10 -3.32455E-10 -4.15094E-10 -2.63517E-10 -2.67160E-10 -2.88666E-10 -4.56319E-10 -5.00862E-10
  -1.09922E-09 -4.35899E-10 -3.87608E-10  5.47144E-11 -2.84006E-10 -5.36207E-10 -3.08910E-10 -1.03774E-09 -3.42348E-10 -4.62868E-10
   1.57528E-11  8.46696E-11  2.06204E-11
 NY points of the fit to the data follow
   9.68013E-09  1.24694E-08  1.31450E-08  1.14231E-08  1.10730E-08  1.20084E-08  1.23265E-08  1.13144E-08  1.00598E-08  9.71686E-09
   9.59858E-09  9.54345E-09  9.59263E-09  9.92014E-09  1.05670E-08  1.08894E-08  1.07034E-08  1.11261E-08  1.18877E-08  1.14966E-08
   1.04872E-08  9.72661E-09  9.30137E-09  9.01728E-09  9.17832E-09  9.57801E-09  1.01228E-08  1.06534E-08  1.09874E-08  1.09374E-08
   1.11052E-08  1.14168E-08  1.19201E-08  1.22674E-08  1.21148E-08  1.13188E-08  1.06528E-08  1.01425E-08  9.75833E-09  9.48834E-09
   9.32729E-09  9.22342E-09  9.01818E-09  8.64811E-09  8.39283E-09  8.20573E-09  8.03438E-09  7.86687E-09  7.71125E-09  7.61384E-09
   7.53868E-09  7.49673E-09  7.46773E-09  7.39907E-09  7.34134E-09  7.42000E-09  7.47269E-09  7.66780E-09  8.06153E-09  8.40039E-09
   8.57873E-09  8.74370E-09  8.87930E-09  9.00178E-09  9.09139E-09  9.04783E-09  8.96118E-09  8.88067E-09  8.52945E-09  8.07782E-09
   7.81898E-09  7.74330E-09  7.68189E-09  7.52926E-09  7.45950E-09  7.51083E-09  7.80978E-09  8.66763E-09  9.79493E-09  1.07515E-08
   1.15140E-08  1.20584E-08  1.22790E-08  1.25277E-08  1.29491E-08  1.32583E-08  1.33475E-08  1.28195E-08  1.16122E-08  1.06391E-08
   1.00878E-08  9.71047E-09  9.42750E-09  9.20123E-09  9.00685E-09  8.83456E-09  8.68552E-09  8.55569E-09  8.43557E-09  8.31642E-09
   8.20680E-09  8.11089E-09  8.02063E-09  7.93053E-09  7.84477E-09  7.76310E-09  7.68468E-09  7.60900E-09  7.53527E-09  7.46315E-09
   7.39242E-09  7.32274E-09  7.25389E-09  7.18565E-09  7.11783E-09  7.05027E-09  6.98282E-09  6.91535E-09  6.84770E-09  6.77983E-09
   6.71155E-09  6.64284E-09  6.57357E-09  6.50370E-09  6.43313E-09  6.36179E-09  6.28960E-09  6.21657E-09  6.14259E-09  6.06761E-09
   5.99161E-09  5.91450E-09  5.83630E-09  5.75694E-09  5.67637E-09  5.59455E-09  5.51154E-09  5.42720E-09  5.34158E-09  5.25460E-09
   5.16631E-09  5.07667E-09  4.98568E-09  4.89330E-09  4.79960E-09  4.70456E-09  4.60823E-09  4.51072E-09  4.41215E-09  4.31268E-09
   4.21247E-09  4.11174E-09  4.01073E-09  3.90977E-09  3.80924E-09  3.70966E-09  3.61176E-09  3.51647E-09  3.42523E-09  3.34013E-09
   3.26447E-09  3.20389E-09  3.16849E-09  3.17878E-09  3.28283E-09  3.62405E-09  4.84215E-09  9.42577E-09  1.39249E-08  1.64947E-08
   1.77658E-08  1.82225E-08  1.81962E-08  1.80561E-08  1.81678E-08  1.85236E-08  1.78734E-08  1.39217E-08  6.52481E-09  3.07370E-09
   2.00603E-09  1.47821E-09  1.13961E-09  8.87753E-10  6.82658E-10  5.05738E-10  3.47259E-10  2.01693E-10  6.55931E-11 -6.31602E-11
  -1.85967E-10 -3.03849E-10 -4.17449E-10 -5.27261E-10 -6.33588E-10 -7.36709E-10 -8.36812E-10 -9.33967E-10 -1.02829E-09 -1.11985E-09
  -1.20868E-09 -1.29479E-09 -1.37818E-09 -1.45886E-09 -1.53684E-09 -1.61205E-09 -1.68451E-09 -1.75419E-09 -1.82108E-09 -1.88509E-09
  -1.94627E-09 -2.00452E-09 -2.05985E-09 -2.11222E-09 -2.16162E-09 -2.20797E-09 -2.25127E-09 -2.29152E-09 -2.32864E-09 -2.36271E-09
  -2.39378E-09 -2.42194E-09 -2.44724E-09 -2.46975E-09 -2.48953E-09 -2.50666E-09 -2.52121E-09 -2.53323E-09 -2.54281E-09 -2.55000E-09
  -2.55488E-09 -2.55751E-09 -2.55796E-09 -2.55629E-09 -2.55259E-09 -2.54691E-09 -2.53933E-09 -2.52989E-09 -2.51870E-09 -2.50579E-09
  -2.49123E-09 -2.47512E-09 -2.45750E-09 -2.43843E-09 -2.41799E-09 -2.39624E-09 -2.37325E-09 -2.34909E-09 -2.32381E-09 -2.29747E-09
  -2.27016E-09 -2.24191E-09 -2.21282E-09 -2.18291E-09 -2.15226E-09 -2.12095E-09 -2.08901E-09 -2.05651E-09 -2.02351E-09 -1.99006E-09
  -1.95622E-09 -1.92206E-09 -1.88762E-09 -1.85296E-09 -1.81813E-09 -1.78318E-09 -1.74817E-09 -1.71313E-09 -1.67813E-09 -1.64322E-09
  -1.60843E-09 -1.57382E-09 -1.53943E-09 -1.50530E-09 -1.47148E-09 -1.43800E-09 -1.40492E-09 -1.37226E-09 -1.34006E-09 -1.30837E-09
  -1.27721E-09 -1.24662E-09 -1.21664E-09 -1.18729E-09 -1.15860E-09 -1.13060E-09 -1.10333E-09 -1.07679E-09 -1.05102E-09 -1.02604E-09
  -1.00186E-09 -9.78513E-10 -9.55968E-10 -9.34220E-10 -9.13256E-10 -8.93074E-10 -8.73653E-10 -8.54991E-10 -8.37074E-10 -8.19893E-10
  -8.03441E-10 -7.87704E-10 -7.72677E-10 -7.58348E-10 -7.44707E-10 -7.31746E-10 -7.19460E-10 -7.07838E-10 -6.96868E-10 -6.86544E-10
  -6.76860E-10 -6.67805E-10 -6.59376E-10 -6.51560E-10 -6.44354E-10 -6.37747E-10 -6.31736E-10 -6.26311E-10 -6.21467E-10 -6.17200E-10
  -6.13502E-10 -6.10363E-10 -6.07785E-10 -6.05760E-10 -6.04280E-10 -6.03341E-10 -6.02944E-10 -6.03079E-10 -6.03745E-10 -6.04934E-10
  -6.06647E-10 -6.08878E-10 -6.11624E-10 -6.14883E-10 -6.18654E-10 -6.22932E-10 -6.27716E-10 -6.33003E-10 -6.38796E-10 -6.45086E-10
  -6.51881E-10 -6.59174E-10 -6.66967E-10 -6.75260E-10 -6.84051E-10 -6.93344E-10 -7.03137E-10 -7.13433E-10 -7.24231E-10 -7.35533E-10
  -7.47343E-10 -7.59660E-10 -7.72489E-10 -7.85831E-10 -7.99690E-10 -8.14068E-10 -8.28970E-10 -8.44399E-10 -8.60360E-10 -8.76855E-10
  -8.93890E-10 -9.11471E-10 -9.29600E-10
 NY background values follow
     7.537E-10    8.586E-10    9.624E-10    1.065E-09    1.167E-09    1.268E-09    1.367E-09    1.466E-09    1.563E-09    1.659E-09
     1.754E-09    1.848E-09    1.941E-09    2.033E-09    2.124E-09    2.213E-09    2.301E-09    2.388E-09    2.474E-09    2.559E-09
     2.643E-09    2.725E-09    2.807E-09    2.887E-09    2.966E-09    3.043E-09    3.120E-09    3.195E-09    3.269E-09    3.342E-09
     3.414E-09    3.485E-09    3.554E-09    3.622E-09    3.689E-09    3.755E-09    3.820E-09    3.883E-09    3.946E-09    4.007E-09
     4.067E-09    4.125E-09    4.183E-09    4.239E-09    4.295E-09    4.349E-09    4.402E-09    4.454E-09    4.504E-09    4.554E-09
     4.602E-09    4.649E-09    4.696E-09    4.741E-09    4.785E-09    4.828E-09    4.869E-09    4.910E-09    4.950E-09    4.988E-09
     5.026E-09    5.062E-09    5.098E-09    5.132E-09    5.165E-09    5.198E-09    5.229E-09    5.260E-09    5.289E-09    5.317E-09
     5.345E-09    5.372E-09    5.397E-09    5.422E-09    5.446E-09    5.469E-09    5.490E-09    5.511E-09    5.532E-09    5.551E-09
     5.569E-09    5.586E-09    5.602E-09    5.617E-09    5.632E-09    5.645E-09    5.657E-09    5.668E-09    5.678E-09    5.687E-09
     5.695E-09    5.702E-09    5.708E-09    5.712E-09    5.716E-09    5.718E-09    5.719E-09    5.720E-09    5.718E-09    5.716E-09
     5.712E-09    5.708E-09    5.701E-09    5.694E-09    5.686E-09    5.676E-09    5.664E-09    5.652E-09    5.638E-09    5.622E-09
     5.606E-09    5.587E-09    5.568E-09    5.547E-09    5.524E-09    5.500E-09    5.475E-09    5.448E-09    5.419E-09    5.389E-09
     5.357E-09    5.324E-09    5.289E-09    5.253E-09    5.214E-09    5.174E-09    5.133E-09    5.090E-09    5.045E-09    4.998E-09
     4.949E-09    4.899E-09    4.847E-09    4.793E-09    4.738E-09    4.680E-09    4.621E-09    4.560E-09    4.497E-09    4.432E-09
     4.365E-09    4.296E-09    4.225E-09    4.152E-09    4.078E-09    4.001E-09    3.922E-09    3.842E-09    3.759E-09    3.675E-09
     3.589E-09    3.502E-09    3.413E-09    3.322E-09    3.230E-09    3.137E-09    3.043E-09    2.947E-09    2.850E-09    2.752E-09
     2.653E-09    2.553E-09    2.453E-09    2.351E-09    2.249E-09    2.147E-09    2.043E-09    1.940E-09    1.836E-09    1.732E-09
     1.627E-09    1.523E-09    1.419E-09    1.314E-09    1.210E-09    1.106E-09    1.002E-09    8.986E-10    7.956E-10    6.932E-10
     5.914E-10    4.903E-10    3.899E-10    2.904E-10    1.918E-10    9.424E-11   -2.279E-12   -9.761E-11   -1.918E-10   -2.846E-10
    -3.760E-10   -4.661E-10   -5.546E-10   -6.415E-10   -7.267E-10   -8.102E-10   -8.920E-10   -9.719E-10   -1.050E-09   -1.126E-09
    -1.200E-09   -1.271E-09   -1.341E-09   -1.408E-09   -1.473E-09   -1.536E-09   -1.597E-09   -1.654E-09   -1.710E-09   -1.762E-09
    -1.813E-09   -1.860E-09   -1.905E-09   -1.947E-09   -1.986E-09   -2.023E-09   -2.056E-09   -2.087E-09   -2.114E-09   -2.139E-09
    -2.161E-09   -2.180E-09   -2.197E-09   -2.210E-09   -2.222E-09   -2.230E-09   -2.236E-09   -2.240E-09   -2.241E-09   -2.241E-09
    -2.238E-09   -2.232E-09   -2.225E-09   -2.216E-09   -2.204E-09   -2.191E-09   -2.176E-09   -2.160E-09   -2.141E-09   -2.121E-09
    -2.100E-09   -2.076E-09   -2.052E-09   -2.026E-09   -1.999E-09   -1.971E-09   -1.941E-09   -1.910E-09   -1.879E-09   -1.846E-09
    -1.812E-09   -1.778E-09   -1.743E-09   -1.707E-09   -1.670E-09   -1.633E-09   -1.595E-09   -1.557E-09   -1.518E-09   -1.479E-09
    -1.439E-09   -1.400E-09   -1.360E-09   -1.320E-09   -1.280E-09   -1.239E-09   -1.199E-09   -1.159E-09   -1.119E-09   -1.079E-09
    -1.039E-09   -9.993E-10   -9.600E-10   -9.211E-10   -8.825E-10   -8.443E-10   -8.065E-10   -7.692E-10   -7.325E-10   -6.962E-10
    -6.606E-10   -6.256E-10   -5.913E-10   -5.576E-10   -5.247E-10   -4.925E-10   -4.611E-10   -4.304E-10   -4.006E-10   -3.716E-10
    -3.435E-10   -3.162E-10   -2.898E-10   -2.642E-10   -2.395E-10   -2.156E-10   -1.925E-10   -1.703E-10   -1.488E-10   -1.281E-10
    -1.081E-10   -8.895E-11   -7.054E-11   -5.286E-11   -3.592E-11   -1.971E-11   -4.215E-12    1.057E-11    2.466E-11    3.806E-11
     5.078E-11    6.282E-11    7.420E-11    8.492E-11    9.498E-11    1.044E-10    1.132E-10    1.213E-10    1.289E-10    1.358E-10
     1.421E-10    1.478E-10    1.529E-10    1.574E-10    1.613E-10    1.647E-10    1.674E-10    1.696E-10    1.712E-10    1.723E-10
     1.728E-10    1.727E-10    1.721E-10    1.709E-10    1.692E-10    1.669E-10    1.641E-10    1.607E-10    1.568E-10    1.524E-10
     1.474E-10    1.419E-10    1.358E-10    1.292E-10    1.221E-10    1.144E-10    1.062E-10    9.743E-11    8.814E-11    7.831E-11
     6.794E-11    5.702E-11    4.555E-11    3.353E-11    2.096E-11    7.832E-12   -5.855E-12   -2.010E-11   -3.492E-11   -5.031E-11
    -6.627E-11   -8.282E-11   -9.994E-11
 Glc      Conc. = 1.33E-10
   5.67312E-10  7.15210E-10  8.47712E-10  9.82576E-10  1.11875E-09  1.26267E-09  1.39081E-09  1.51632E-09  1.62999E-09  1.70286E-09
   1.77095E-09  1.84048E-09  1.90300E-09  1.97795E-09  2.09323E-09  2.23239E-09  2.37328E-09  2.51775E-09  2.65278E-09  2.77478E-09
   2.90196E-09  3.02955E-09  3.15309E-09  3.28498E-09  3.39425E-09  3.44617E-09  3.48050E-09  3.52414E-09  3.57970E-09  3.64667E-09
   3.71048E-09  3.76691E-09  3.82940E-09  3.89220E-09  3.94279E-09  3.99328E-09  4.04884E-09  4.10040E-09  4.14752E-09  4.19565E-09
   4.24470E-09  4.29396E-09  4.34320E-09  4.39215E-09  4.44068E-09  4.48865E-09  4.53601E-09  4.58266E-09  4.62855E-09  4.67367E-09
   4.71794E-09  4.76137E-09  4.80391E-09  4.84556E-09  4.88632E-09  4.92614E-09  4.96503E-09  5.00303E-09  5.04003E-09  5.07613E-09
   5.11129E-09  5.14549E-09  5.17877E-09  5.21110E-09  5.24253E-09  5.27301E-09  5.30258E-09  5.33122E-09  5.35895E-09  5.38579E-09
   5.41172E-09  5.43676E-09  5.46094E-09  5.48423E-09  5.50666E-09  5.52821E-09  5.54887E-09  5.56863E-09  5.58749E-09  5.60543E-09
   5.62243E-09  5.63850E-09  5.65362E-09  5.66777E-09  5.68096E-09  5.69316E-09  5.70435E-09  5.71454E-09  5.72371E-09  5.73183E-09
   5.73890E-09  5.74491E-09  5.74982E-09  5.75366E-09  5.75638E-09  5.75795E-09  5.75840E-09  5.75769E-09  5.75580E-09  5.75272E-09
   5.74843E-09  5.74292E-09  5.73616E-09  5.72816E-09  5.71886E-09  5.70828E-09  5.69637E-09  5.68316E-09  5.66859E-09  5.65263E-09
   5.63532E-09  5.61659E-09  5.59643E-09  5.57483E-09  5.55177E-09  5.52723E-09  5.50121E-09  5.47367E-09  5.44458E-09  5.41399E-09
   5.38177E-09  5.34800E-09  5.31260E-09  5.27559E-09  5.23693E-09  5.19661E-09  5.15459E-09  5.11091E-09  5.06549E-09  5.01835E-09
   4.96946E-09  4.91878E-09  4.86635E-09  4.81212E-09  4.75607E-09  4.69815E-09  4.63845E-09  4.57685E-09  4.51339E-09  4.44801E-09
   4.38075E-09  4.31157E-09  4.24047E-09  4.16739E-09  4.09237E-09  4.01539E-09  3.93644E-09  3.85560E-09  3.77293E-09  3.68849E-09
   3.60236E-09  3.51461E-09  3.42531E-09  3.33453E-09  3.24235E-09  3.14885E-09  3.05412E-09  2.95823E-09  2.86129E-09  2.76339E-09
   2.66465E-09  2.56525E-09  2.46539E-09  2.36550E-09  2.26646E-09  2.17100E-09  2.09265E-09  2.06754E-09  2.02218E-09  1.94863E-09
   1.85998E-09  1.76100E-09  1.65657E-09  1.55212E-09  1.45263E-09  1.35546E-09  1.23748E-09  1.06519E-09  8.54973E-10  7.24750E-10
   6.13111E-10  5.07076E-10  4.03734E-10  3.02219E-10  2.02163E-10  1.03432E-10  5.99942E-12 -9.00985E-11 -1.84894E-10 -2.78308E-10
  -3.70261E-10 -4.60746E-10 -5.49669E-10 -6.36985E-10 -7.22591E-10 -8.06461E-10 -8.88541E-10 -9.68713E-10 -1.04694E-09 -1.12318E-09
  -1.19736E-09 -1.26941E-09 -1.33926E-09 -1.40687E-09 -1.47220E-09 -1.53514E-09 -1.59568E-09 -1.65375E-09 -1.70932E-09 -1.76228E-09
  -1.81267E-09 -1.86036E-09 -1.90534E-09 -1.94757E-09 -1.98702E-09 -2.02360E-09 -2.05731E-09 -2.08812E-09 -2.11597E-09 -2.14091E-09
  -2.16300E-09 -2.18232E-09 -2.19890E-09 -2.21283E-09 -2.22415E-09 -2.23294E-09 -2.23926E-09 -2.24317E-09 -2.24473E-09 -2.24402E-09
  -2.24110E-09 -2.23603E-09 -2.22887E-09 -2.21971E-09 -2.20859E-09 -2.19558E-09 -2.18076E-09 -2.16418E-09 -2.14592E-09 -2.12603E-09
  -2.10458E-09 -2.08165E-09 -2.05729E-09 -2.03156E-09 -2.00454E-09 -1.97628E-09 -1.94686E-09 -1.91633E-09 -1.88477E-09 -1.85221E-09
  -1.81876E-09 -1.78443E-09 -1.74933E-09 -1.71348E-09 -1.67695E-09 -1.63983E-09 -1.60214E-09 -1.56396E-09 -1.52534E-09 -1.48634E-09
  -1.44701E-09 -1.40741E-09 -1.36760E-09 -1.32763E-09 -1.28755E-09 -1.24740E-09 -1.20726E-09 -1.16715E-09 -1.12713E-09 -1.08725E-09
  -1.04756E-09 -1.00809E-09 -9.68910E-10 -9.30034E-10 -8.91532E-10 -8.53422E-10 -8.15756E-10 -7.78575E-10 -7.41902E-10 -7.05785E-10
  -6.70260E-10 -6.35354E-10 -6.01106E-10 -5.67534E-10 -5.34678E-10 -5.02565E-10 -4.71223E-10 -4.40660E-10 -4.10923E-10 -3.82023E-10
  -3.53975E-10 -3.26799E-10 -3.00476E-10 -2.74998E-10 -2.50352E-10 -2.26533E-10 -2.03522E-10 -1.81316E-10 -1.59902E-10 -1.39269E-10
  -1.19410E-10 -1.00311E-10 -8.19671E-11 -6.43657E-11 -4.74966E-11 -3.13522E-11 -1.59254E-11 -1.20632E-12  1.28164E-11  2.61499E-11
   3.88007E-11  5.07798E-11  6.20905E-11  7.27462E-11  8.27501E-11  9.21119E-11  1.00836E-10  1.08934E-10  1.16408E-10  1.23265E-10
   1.29512E-10  1.35159E-10  1.40205E-10  1.44657E-10  1.48524E-10  1.51810E-10  1.54514E-10  1.56648E-10  1.58210E-10  1.59210E-10
   1.59647E-10  1.59527E-10  1.58854E-10  1.57629E-10  1.55854E-10  1.53533E-10  1.50668E-10  1.47261E-10  1.43311E-10  1.38826E-10
   1.33799E-10  1.28237E-10  1.22137E-10  1.15499E-10  1.08328E-10  1.00617E-10  9.23691E-11  8.35823E-11  7.42567E-11  6.43896E-11
   5.39797E-11  4.30254E-11  3.15241E-11  1.94734E-11  6.87020E-12 -6.28823E-12 -2.00054E-11 -3.42850E-11 -4.91309E-11 -6.45471E-11
  -8.05385E-11 -9.71095E-11 -1.14265E-10
 Gln      Conc. = 9.69E-10
  -1.11213E-10  7.58164E-11  3.22941E-10  6.13716E-10  9.11872E-10  1.21897E-09  1.52322E-09  1.78462E-09  1.97173E-09  2.24244E-09
   2.39886E-09  2.42399E-09  2.53161E-09  2.50566E-09  2.49037E-09  2.49950E-09  2.52465E-09  2.56011E-09  2.60252E-09  2.64974E-09
   2.70031E-09  2.75316E-09  2.80745E-09  2.86257E-09  2.91823E-09  2.97435E-09  3.03028E-09  3.08592E-09  3.14122E-09  3.19585E-09
   3.24966E-09  3.30251E-09  3.35426E-09  3.40482E-09  3.45407E-09  3.50193E-09  3.54824E-09  3.59290E-09  3.63578E-09  3.67674E-09
   3.71567E-09  3.75239E-09  3.78683E-09  3.81876E-09  3.84786E-09  3.87392E-09  3.89659E-09  3.91486E-09  3.92900E-09  3.93904E-09
   3.94284E-09  3.94074E-09  3.93462E-09  3.93437E-09  4.01975E-09  4.23357E-09  4.37789E-09  4.59167E-09  4.96344E-09  5.32096E-09
   5.60609E-09  5.91754E-09  6.22548E-09  6.49286E-09  6.65410E-09  6.63395E-09  6.57736E-09  6.62602E-09  6.41103E-09  6.10032E-09
   5.91724E-09  5.85917E-09  5.82301E-09  5.79871E-09  5.90744E-09  6.13934E-09  6.34543E-09  6.57881E-09  6.82425E-09  7.05044E-09
   7.27757E-09  7.46119E-09  7.47362E-09  7.49530E-09  7.54779E-09  7.38072E-09  7.21021E-09  7.12701E-09  6.96351E-09  6.81802E-09
   6.70884E-09  6.62336E-09  6.55478E-09  6.49787E-09  6.44803E-09  6.40400E-09  6.36466E-09  6.32855E-09  6.29508E-09  6.26379E-09
   6.23400E-09  6.20514E-09  6.17691E-09  6.14910E-09  6.12156E-09  6.09410E-09  6.06648E-09  6.03859E-09  6.01028E-09  5.98141E-09
   5.95197E-09  5.92178E-09  5.89079E-09  5.85894E-09  5.82616E-09  5.79239E-09  5.75757E-09  5.72166E-09  5.68457E-09  5.64633E-09
   5.60679E-09  5.56601E-09  5.52389E-09  5.48043E-09  5.43557E-09  5.38928E-09  5.34151E-09  5.29230E-09  5.24154E-09  5.18924E-09
   5.13538E-09  5.07989E-09  5.02281E-09  4.96407E-09  4.90366E-09  4.84152E-09  4.77773E-09  4.71217E-09  4.64486E-09  4.57576E-09
   4.50488E-09  4.43219E-09  4.35769E-09  4.28131E-09  4.20310E-09  4.12303E-09  4.04110E-09  3.95738E-09  3.87193E-09  3.78483E-09
   3.69615E-09  3.60598E-09  3.51440E-09  3.42151E-09  3.32739E-09  3.23218E-09  3.13601E-09  3.03902E-09  2.94145E-09  2.84357E-09
   2.74577E-09  2.64875E-09  2.55365E-09  2.46284E-09  2.38200E-09  2.32886E-09  2.38899E-09  2.85163E-09  3.18421E-09  3.30992E-09
   3.32327E-09  3.26010E-09  3.15538E-09  3.04806E-09  2.97511E-09  2.92323E-09  2.73105E-09  2.14746E-09  1.24342E-09  9.20807E-10
   7.44184E-10  6.06452E-10  4.84276E-10  3.70138E-10  2.60911E-10  1.55115E-10  5.19939E-11 -4.88438E-11 -1.47698E-10 -2.44664E-10
  -3.39784E-10 -4.33132E-10 -5.24678E-10 -6.14419E-10 -7.02290E-10 -7.88287E-10 -8.72379E-10 -9.54464E-10 -1.03452E-09 -1.11251E-09
  -1.18837E-09 -1.26204E-09 -1.33347E-09 -1.40260E-09 -1.46940E-09 -1.53378E-09 -1.59572E-09 -1.65516E-09 -1.71206E-09 -1.76633E-09
  -1.81798E-09 -1.86693E-09 -1.91313E-09 -1.95656E-09 -1.99719E-09 -2.03493E-09 -2.06977E-09 -2.10170E-09 -2.13065E-09 -2.15667E-09
  -2.17983E-09 -2.20019E-09 -2.21781E-09 -2.23275E-09 -2.24507E-09 -2.25484E-09 -2.26213E-09 -2.26700E-09 -2.26951E-09 -2.26973E-09
