 LCModel (Version 6.3-1R) Copyright: S.W. Provencher.          Ref.: Magn. Reson. Med. 30:672-679 (1993).                
 onepulse 29x18_ftSpec_smooth_lcm
 26 lines in following concentration table = NCONC+1
    Conc.  %SD /Cr+PCr  Metabolite                                         
    0.000 999%   0.000 Ala                                                 
    0.000 999%   0.000 Asp                                                 
    0.000 999%   0.000 Cr                                                  
    0.000 999%   0.000 GABA                                                
 2.88E-10 336%   6.020 Glc                                                 
 1.11E-09  68%  23.184 Gln                                                 
    0.000 999%   0.000 Glu                                                 
    0.000 999%   0.000 Glyc                                                
 1.55E-10  74%   3.233 GPC                                                 
    0.000 999%   0.000 GSH                                                 
 1.31E-09  46%  27.426 Ins                                                 
    0.000 999%   0.000 Lac                                                 
 3.60E-10 127%   7.516 NAAG                                                
 1.58E-10 387%   3.298 NAA                                                 
    0.000 999%   0.000 PCh                                                 
 4.79E-11 615%   1.000 PCr                                                 
    0.000 999%   0.000 PE                                                  
 1.69E-10 142%   3.533 Scyllo                                              
 5.39E-09  18% 112.630 Ser                                                 
    0.000 999%   0.000 Tau                                                 
 1.55E-10  74%   3.233 GPC+PCh                                             
 5.18E-10  72%  10.814 NAA+NAAG                                            
 1.31E-09  46%  27.426 Ins+Glyc                                            
 4.79E-11 615%   1.000 Cr+PCr                                              
 1.11E-09  68%  23.184 Glu+Gln                                             
   6 lines in following misc. output table
  FWHM = 0.089 ppm    S/N =   2                                            
  Data shift = 0.380 ppm                                                   
  Ph: -67 deg     -51.1 deg/ppm                                            
  alphaB,S = 5.4E+01,   5.1E+01                                            
    7 spline knots.   Ns = 5(1)                                            
  (10) 2 infls.   ( 7) 1 extrs.                                            
  363 points on ppm-axis = NY
      4.250000     4.238821     4.227641     4.216462     4.205282     4.194103     4.182923     4.171744     4.160564     4.149385
      4.138206     4.127026     4.115847     4.104667     4.093488     4.082308     4.071129     4.059949     4.048770     4.037591
      4.026411     4.015232     4.004052     3.992873     3.981693     3.970514     3.959334     3.948155     3.936975     3.925796
      3.914617     3.903437     3.892258     3.881078     3.869899     3.858719     3.847540     3.836360     3.825181     3.814002
      3.802822     3.791643     3.780463     3.769284     3.758104     3.746925     3.735745     3.724566     3.713387     3.702207
      3.691028     3.679848     3.668669     3.657489     3.646310     3.635130     3.623951     3.612772     3.601592     3.590413
      3.579233     3.568054     3.556874     3.545695     3.534515     3.523336     3.512156     3.500977     3.489798     3.478618
      3.467439     3.456259     3.445080     3.433900     3.422721     3.411541     3.400362     3.389183     3.378003     3.366824
      3.355644     3.344465     3.333285     3.322106     3.310926     3.299747     3.288568     3.277388     3.266209     3.255029
      3.243850     3.232670     3.221491     3.210311     3.199132     3.187953     3.176773     3.165594     3.154414     3.143235
      3.132055     3.120876     3.109696     3.098517     3.087337     3.076158     3.064979     3.053799     3.042620     3.031440
      3.020261     3.009081     2.997902     2.986722     2.975543     2.964364     2.953184     2.942005     2.930825     2.919646
      2.908466     2.897287     2.886107     2.874928     2.863749     2.852569     2.841390     2.830210     2.819031     2.807851
      2.796672     2.785492     2.774313     2.763134     2.751954     2.740775     2.729595     2.718416     2.707236     2.696057
      2.684877     2.673698     2.662519     2.651339     2.640160     2.628980     2.617801     2.606621     2.595442     2.584262
      2.573083     2.561903     2.550724     2.539545     2.528365     2.517186     2.506006     2.494827     2.483647     2.472468
      2.461288     2.450109     2.438930     2.427750     2.416571     2.405391     2.394212     2.383032     2.371853     2.360673
      2.349494     2.338315     2.327135     2.315956     2.304776     2.293597     2.282417     2.271238     2.260058     2.248879
      2.237700     2.226520     2.215341     2.204161     2.192982     2.181802     2.170623     2.159443     2.148264     2.137084
      2.125905     2.114726     2.103546     2.092367     2.081187     2.070008     2.058828     2.047649     2.036469     2.025290
      2.014111     2.002931     1.991752     1.980572     1.969393     1.958213     1.947034     1.935854     1.924675     1.913496
      1.902316     1.891137     1.879957     1.868778     1.857598     1.846419     1.835239     1.824060     1.812881     1.801701
      1.790522     1.779342     1.768163     1.756983     1.745804     1.734624     1.723445     1.712265     1.701086     1.689907
      1.678727     1.667548     1.656368     1.645189     1.634009     1.622830     1.611650     1.600471     1.589292     1.578112
      1.566933     1.555753     1.544574     1.533394     1.522215     1.511035     1.499856     1.488677     1.477497     1.466318
      1.455138     1.443959     1.432779     1.421600     1.410420     1.399241     1.388062     1.376882     1.365703     1.354523
      1.343344     1.332164     1.320985     1.309805     1.298626     1.287446     1.276267     1.265088     1.253908     1.242729
      1.231549     1.220370     1.209190     1.198011     1.186831     1.175652     1.164473     1.153293     1.142114     1.130934
      1.119755     1.108575     1.097396     1.086216     1.075037     1.063858     1.052678     1.041499     1.030319     1.019140
      1.007960     0.996781     0.985601     0.974422     0.963243     0.952063     0.940884     0.929704     0.918525     0.907345
      0.896166     0.884986     0.873807     0.862628     0.851448     0.840269     0.829089     0.817910     0.806730     0.795551
      0.784371     0.773192     0.762012     0.750833     0.739654     0.728474     0.717295     0.706115     0.694936     0.683756
      0.672577     0.661397     0.650218     0.639039     0.627859     0.616680     0.605500     0.594321     0.583141     0.571962
      0.560782     0.549603     0.538424     0.527244     0.516065     0.504885     0.493706     0.482526     0.471347     0.460167
      0.448988     0.437809     0.426629     0.415450     0.404270     0.393091     0.381911     0.370732     0.359552     0.348373
      0.337193     0.326014     0.314835     0.303655     0.292476     0.281296     0.270117     0.258937     0.247758     0.236578
      0.225399     0.214220     0.203040
 NY phased data points follow
   1.34452E-08  1.58041E-08  1.30013E-08  1.52629E-08  1.24106E-08  1.47367E-08  1.12034E-08  1.37205E-08  1.09898E-08  1.31069E-08
   1.04758E-08  1.38948E-08  1.10307E-08  1.36136E-08  1.14000E-08  1.34268E-08  1.07557E-08  1.33769E-08  1.10513E-08  1.24136E-08
   1.05659E-08  1.21868E-08  1.00272E-08  1.27533E-08  1.03422E-08  1.23264E-08  1.00062E-08  1.27018E-08  1.02123E-08  1.29316E-08
   1.14495E-08  1.38050E-08  1.20688E-08  1.32451E-08  1.13996E-08  1.30061E-08  9.96037E-09  1.19924E-08  9.79779E-09  1.06706E-08
   9.18882E-09  1.04950E-08  8.36958E-09  9.73289E-09  7.97929E-09  9.20575E-09  7.93222E-09  8.82322E-09  7.08929E-09  8.38163E-09
   6.45130E-09  8.50395E-09  6.45835E-09  7.91735E-09  6.70283E-09  7.46225E-09  6.47853E-09  7.27920E-09  6.65570E-09  8.17951E-09
   7.59403E-09  9.53584E-09  9.60336E-09  1.07406E-08  1.06038E-08  1.06745E-08  9.12004E-09  9.51177E-09  8.58825E-09  8.63955E-09
   7.42886E-09  7.58986E-09  6.65103E-09  7.64920E-09  5.94699E-09  7.10880E-09  7.86393E-09  1.01634E-08  1.05695E-08  1.24164E-08
   1.25185E-08  1.35213E-08  1.31868E-08  1.32543E-08  1.22882E-08  1.26779E-08  1.16917E-08  1.21847E-08  1.16818E-08  1.16490E-08
   1.08826E-08  1.11338E-08  9.74854E-09  1.04080E-08  8.84509E-09  9.55401E-09  9.00839E-09  8.78542E-09  8.64621E-09  8.59546E-09
   8.20849E-09  8.66711E-09  7.79331E-09  8.31839E-09  7.96747E-09  7.75881E-09  7.08596E-09  7.29695E-09  6.32953E-09  6.25811E-09
   6.01319E-09  5.94286E-09  6.03696E-09  6.07045E-09  5.75295E-09  5.75021E-09  6.13166E-09  6.54284E-09  5.90355E-09  6.15464E-09
   5.52988E-09  5.81624E-09  5.40639E-09  5.03355E-09  4.44211E-09  4.70760E-09  4.61174E-09  5.22457E-09  4.32411E-09  4.47594E-09
   4.57101E-09  5.29844E-09  4.01863E-09  4.53947E-09  4.25230E-09  4.56625E-09  4.17245E-09  5.12314E-09  5.02482E-09  5.74960E-09
   5.61669E-09  6.55252E-09  6.17719E-09  6.84661E-09  7.05298E-09  7.56776E-09  6.97360E-09  7.41623E-09  7.62312E-09  8.33563E-09
   7.52252E-09  7.77720E-09  7.85035E-09  8.06463E-09  7.76928E-09  8.75615E-09  7.64909E-09  8.79427E-09  7.90523E-09  8.53032E-09
   8.15928E-09  8.64175E-09  8.33327E-09  8.97570E-09  8.70820E-09  9.70694E-09  1.04646E-08  1.20900E-08  1.36115E-08  1.49499E-08
   1.70665E-08  1.79040E-08  1.84982E-08  1.89739E-08  1.82963E-08  1.83695E-08  1.73738E-08  1.75667E-08  1.68908E-08  1.64920E-08
   1.56310E-08  1.58362E-08  1.47007E-08  1.42226E-08  1.37658E-08  1.34362E-08  1.15434E-08  1.10019E-08  1.00407E-08  8.35661E-09
   6.89012E-09  6.11695E-09  3.22767E-09  1.74412E-09 -1.62762E-10 -2.84495E-09 -5.32205E-09 -6.69905E-09 -9.23056E-09 -1.14690E-08
  -1.34152E-08 -1.48046E-08 -1.64648E-08 -1.61632E-08 -1.67721E-08 -1.65680E-08 -1.60250E-08 -1.51763E-08 -1.38779E-08 -1.25808E-08
  -1.10155E-08 -9.24474E-09 -8.15498E-09 -6.55317E-09 -5.50634E-09 -3.70674E-09 -3.89420E-09 -2.73353E-09 -3.09355E-09 -2.91388E-09
  -2.61095E-09 -2.03362E-09 -1.98338E-09 -1.91737E-09 -1.63644E-09 -2.21246E-09 -2.33026E-09 -1.80346E-09 -1.67438E-09 -1.83427E-09
  -1.47674E-09 -1.47903E-09 -1.49028E-09 -1.78411E-09 -1.54418E-09 -1.53544E-09 -8.79808E-10 -9.56033E-10 -1.24458E-09 -1.45065E-09
  -1.34296E-09 -1.53773E-09 -1.09399E-09 -1.03771E-09 -1.59014E-09 -9.58958E-10 -1.31209E-09 -9.55989E-10 -1.07753E-09 -1.23379E-09
  -1.46523E-10 -5.03308E-10 -3.17685E-10 -1.23470E-09 -6.55961E-10 -4.79585E-10 -6.26935E-10 -8.96110E-10 -8.10377E-10 -9.57558E-10
  -8.17727E-10 -1.33863E-09 -1.03715E-09 -1.64540E-09 -1.61605E-09 -1.49044E-09 -1.05111E-09 -1.11402E-09 -7.13672E-10 -1.06117E-09
  -9.65351E-10 -5.60422E-10 -8.94263E-11 -8.91257E-10 -3.60687E-10  4.19736E-11  3.66064E-10 -3.63631E-10  1.67977E-10  1.19832E-10
  -1.88138E-10 -5.36773E-10 -2.55965E-10 -1.27451E-09 -4.85407E-11 -1.00355E-09 -6.13507E-10 -8.05911E-10 -2.38014E-10 -1.50857E-09
  -7.57354E-10 -1.59946E-09 -6.51968E-10 -9.66244E-10 -8.81374E-10 -1.12927E-09 -1.00484E-09 -7.34770E-10 -9.74479E-10 -1.20594E-09
  -1.24978E-09 -1.50702E-09 -9.32057E-10 -1.69194E-09 -1.02473E-09 -1.53470E-09 -1.00084E-09 -1.20275E-09 -1.03446E-09 -1.15200E-09
  -1.11003E-09 -1.49061E-09 -1.33596E-09 -1.73526E-09 -1.10280E-09 -1.56735E-09 -7.76029E-10 -1.80819E-09 -1.62379E-09 -1.83565E-09
  -1.06538E-09 -2.10723E-09 -1.64757E-09 -1.98779E-09 -1.41839E-09 -1.75726E-09 -1.53403E-09 -1.75716E-09 -1.63451E-09 -2.01149E-09
  -1.26153E-09 -2.20500E-09 -1.16581E-09 -2.49947E-09 -1.52140E-09 -2.16196E-09 -1.27973E-09 -2.53952E-09 -1.20442E-09 -2.22868E-09
  -1.84314E-09 -2.17030E-09 -1.61385E-09 -2.21690E-09 -1.56867E-09 -2.17939E-09 -1.53316E-09 -1.99868E-09 -1.51539E-09 -1.98395E-09
  -2.21863E-09 -2.47620E-09 -1.88571E-09 -2.16584E-09 -1.47854E-09 -2.58737E-09 -1.53160E-09 -2.98317E-09 -2.19001E-09 -2.88280E-09
  -1.89817E-09 -2.60820E-09 -1.68207E-09
 NY points of the fit to the data follow
   1.27270E-08  1.42768E-08  1.45695E-08  1.41671E-08  1.43433E-08  1.46108E-08  1.42094E-08  1.30093E-08  1.17389E-08  1.10823E-08
   1.08539E-08  1.09884E-08  1.13234E-08  1.17890E-08  1.22728E-08  1.25449E-08  1.26012E-08  1.26134E-08  1.24381E-08  1.18313E-08
   1.12059E-08  1.07979E-08  1.04891E-08  1.02417E-08  1.03258E-08  1.07576E-08  1.13577E-08  1.18826E-08  1.21392E-08  1.21824E-08
   1.24206E-08  1.26571E-08  1.27259E-08  1.25086E-08  1.19317E-08  1.11823E-08  1.06307E-08  1.02183E-08  9.89799E-09  9.63881E-09
   9.41298E-09  9.19897E-09  8.97620E-09  8.76647E-09  8.60483E-09  8.46410E-09  8.33316E-09  8.21135E-09  8.09612E-09  7.99482E-09
   7.89568E-09  7.80142E-09  7.70811E-09  7.61351E-09  7.58538E-09  7.68842E-09  7.81881E-09  8.02559E-09  8.35109E-09  8.70541E-09
   9.02595E-09  9.33444E-09  9.60206E-09  9.78963E-09  9.82705E-09  9.69975E-09  9.50126E-09  9.23341E-09  8.83349E-09  8.50495E-09
   8.29307E-09  8.18038E-09  8.17377E-09  8.21938E-09  8.32356E-09  8.52873E-09  9.03349E-09  9.83288E-09  1.07659E-08  1.16417E-08
   1.23636E-08  1.28809E-08  1.32037E-08  1.34589E-08  1.35186E-08  1.31605E-08  1.24323E-08  1.14992E-08  1.07465E-08  1.02252E-08
   9.86201E-09  9.58064E-09  9.34810E-09  9.14757E-09  8.96773E-09  8.80584E-09  8.66140E-09  8.52825E-09  8.39985E-09  8.27526E-09
   8.16254E-09  8.06033E-09  7.96099E-09  7.86306E-09  7.77025E-09  7.68204E-09  7.59747E-09  7.51589E-09  7.43665E-09  7.35949E-09
   7.28412E-09  7.21031E-09  7.13785E-09  7.06655E-09  6.99626E-09  6.92682E-09  6.85814E-09  6.79008E-09  6.72261E-09  6.65559E-09
   6.58898E-09  6.52272E-09  6.45676E-09  6.39104E-09  6.32553E-09  6.26019E-09  6.19498E-09  6.12989E-09  6.06490E-09  6.00000E-09
   5.93513E-09  5.87032E-09  5.80555E-09  5.74082E-09  5.67612E-09  5.61147E-09  5.54682E-09  5.48224E-09  5.41773E-09  5.35328E-09
   5.28894E-09  5.22471E-09  5.16064E-09  5.09678E-09  5.03313E-09  4.96978E-09  4.90680E-09  4.84426E-09  4.78226E-09  4.72091E-09
   4.66041E-09  4.60091E-09  4.54263E-09  4.48593E-09  4.43117E-09  4.37887E-09  4.32974E-09  4.28476E-09  4.24532E-09  4.21343E-09
   4.19217E-09  4.18654E-09  4.20513E-09  4.26407E-09  4.39857E-09  4.70306E-09  5.55017E-09  8.26523E-09  1.21963E-08  1.58780E-08
   1.86371E-08  2.04147E-08  2.13996E-08  2.16996E-08  2.11540E-08  1.93431E-08  1.58585E-08  1.09217E-08  6.09159E-09  3.84844E-09
   3.14698E-09  2.80100E-09  2.58116E-09  2.41942E-09  2.28885E-09  2.17670E-09  2.07626E-09  1.98364E-09  1.89648E-09  1.81327E-09
   1.73302E-09  1.65502E-09  1.57878E-09  1.50396E-09  1.43032E-09  1.35766E-09  1.28583E-09  1.21473E-09  1.14430E-09  1.07445E-09
   1.00513E-09  9.36319E-10  8.68005E-10  8.00142E-10  7.32713E-10  6.65734E-10  5.99175E-10  5.33044E-10  4.67330E-10  4.02044E-10
   3.37186E-10  2.72751E-10  2.08748E-10  1.45183E-10  8.20546E-11  1.93904E-11 -4.28266E-11 -1.04584E-10 -1.65869E-10 -2.26669E-10
  -2.86986E-10 -3.46799E-10 -4.06119E-10 -4.64912E-10 -5.23189E-10 -5.80926E-10 -6.38143E-10 -6.94772E-10 -7.50864E-10 -8.06387E-10
  -8.61336E-10 -9.15685E-10 -9.69449E-10 -1.02259E-09 -1.07513E-09 -1.12704E-09 -1.17831E-09 -1.22894E-09 -1.27892E-09 -1.32823E-09
  -1.37688E-09 -1.42483E-09 -1.47210E-09 -1.51868E-09 -1.56455E-09 -1.60970E-09 -1.65412E-09 -1.69781E-09 -1.74076E-09 -1.78295E-09
  -1.82439E-09 -1.86505E-09 -1.90494E-09 -1.94405E-09 -1.98236E-09 -2.01988E-09 -2.05657E-09 -2.09246E-09 -2.12752E-09 -2.16175E-09
  -2.19513E-09 -2.22767E-09 -2.25936E-09 -2.29017E-09 -2.32012E-09 -2.34920E-09 -2.37740E-09 -2.40470E-09 -2.43110E-09 -2.45657E-09
  -2.48118E-09 -2.50483E-09 -2.52758E-09 -2.54939E-09 -2.57026E-09 -2.59019E-09 -2.60917E-09 -2.62719E-09 -2.64426E-09 -2.66036E-09
  -2.67548E-09 -2.68963E-09 -2.70280E-09 -2.71498E-09 -2.72616E-09 -2.73635E-09 -2.74554E-09 -2.75371E-09 -2.76088E-09 -2.76703E-09
  -2.77216E-09 -2.77626E-09 -2.77933E-09 -2.78138E-09 -2.78238E-09 -2.78234E-09 -2.78126E-09 -2.77913E-09 -2.77595E-09 -2.77172E-09
  -2.76643E-09 -2.76008E-09 -2.75266E-09 -2.74418E-09 -2.73463E-09 -2.72401E-09 -2.71232E-09 -2.69956E-09 -2.68571E-09 -2.67079E-09
  -2.65479E-09 -2.63770E-09 -2.61953E-09 -2.60027E-09 -2.57993E-09 -2.55850E-09 -2.53598E-09 -2.51238E-09 -2.48768E-09 -2.46190E-09
  -2.43502E-09 -2.40705E-09 -2.37799E-09 -2.34784E-09 -2.31660E-09 -2.28427E-09 -2.25084E-09 -2.21633E-09 -2.18073E-09 -2.14405E-09
  -2.10627E-09 -2.06741E-09 -2.02747E-09 -1.98644E-09 -1.94433E-09 -1.90114E-09 -1.85688E-09 -1.81154E-09 -1.76512E-09 -1.71763E-09
  -1.66908E-09 -1.61945E-09 -1.56877E-09 -1.51702E-09 -1.46422E-09 -1.41036E-09 -1.35545E-09 -1.29949E-09 -1.24248E-09 -1.18443E-09
  -1.12535E-09 -1.06524E-09 -1.00409E-09 -9.41920E-10 -8.78729E-10 -8.14522E-10 -7.49303E-10 -6.83078E-10 -6.15851E-10 -5.47628E-10
  -4.78412E-10 -4.08211E-10 -3.37028E-10
 NY background values follow
     1.924E-09    2.021E-09    2.117E-09    2.212E-09    2.306E-09    2.399E-09    2.491E-09    2.581E-09    2.670E-09    2.759E-09
     2.846E-09    2.932E-09    3.016E-09    3.100E-09    3.182E-09    3.264E-09    3.344E-09    3.423E-09    3.500E-09    3.577E-09
     3.652E-09    3.726E-09    3.799E-09    3.871E-09    3.942E-09    4.011E-09    4.079E-09    4.146E-09    4.212E-09    4.276E-09
     4.340E-09    4.402E-09    4.463E-09    4.523E-09    4.581E-09    4.638E-09    4.694E-09    4.749E-09    4.803E-09    4.855E-09
     4.907E-09    4.957E-09    5.005E-09    5.053E-09    5.099E-09    5.145E-09    5.189E-09    5.231E-09    5.273E-09    5.313E-09
     5.352E-09    5.390E-09    5.427E-09    5.463E-09    5.497E-09    5.530E-09    5.562E-09    5.593E-09    5.622E-09    5.651E-09
     5.678E-09    5.704E-09    5.729E-09    5.753E-09    5.775E-09    5.796E-09    5.817E-09    5.836E-09    5.854E-09    5.870E-09
     5.886E-09    5.900E-09    5.914E-09    5.926E-09    5.937E-09    5.947E-09    5.956E-09    5.963E-09    5.970E-09    5.975E-09
     5.980E-09    5.983E-09    5.985E-09    5.986E-09    5.986E-09    5.985E-09    5.983E-09    5.980E-09    5.976E-09    5.971E-09
     5.965E-09    5.957E-09    5.949E-09    5.940E-09    5.930E-09    5.918E-09    5.906E-09    5.893E-09    5.879E-09    5.863E-09
     5.847E-09    5.830E-09    5.812E-09    5.793E-09    5.773E-09    5.753E-09    5.731E-09    5.708E-09    5.685E-09    5.660E-09
     5.635E-09    5.609E-09    5.582E-09    5.554E-09    5.525E-09    5.496E-09    5.466E-09    5.435E-09    5.403E-09    5.370E-09
     5.336E-09    5.302E-09    5.267E-09    5.231E-09    5.195E-09    5.158E-09    5.120E-09    5.081E-09    5.042E-09    5.002E-09
     4.961E-09    4.920E-09    4.878E-09    4.835E-09    4.792E-09    4.748E-09    4.703E-09    4.658E-09    4.612E-09    4.566E-09
     4.519E-09    4.472E-09    4.424E-09    4.375E-09    4.326E-09    4.277E-09    4.227E-09    4.176E-09    4.125E-09    4.074E-09
     4.022E-09    3.969E-09    3.917E-09    3.863E-09    3.810E-09    3.756E-09    3.702E-09    3.647E-09    3.592E-09    3.536E-09
     3.481E-09    3.425E-09    3.368E-09    3.311E-09    3.255E-09    3.197E-09    3.140E-09    3.082E-09    3.024E-09    2.966E-09
     2.908E-09    2.849E-09    2.790E-09    2.731E-09    2.672E-09    2.613E-09    2.554E-09    2.494E-09    2.435E-09    2.375E-09
     2.315E-09    2.255E-09    2.195E-09    2.135E-09    2.075E-09    2.015E-09    1.955E-09    1.895E-09    1.835E-09    1.775E-09
     1.716E-09    1.656E-09    1.596E-09    1.536E-09    1.477E-09    1.417E-09    1.358E-09    1.298E-09    1.239E-09    1.180E-09
     1.121E-09    1.063E-09    1.004E-09    9.458E-10    8.877E-10    8.299E-10    7.723E-10    7.149E-10    6.578E-10    6.010E-10
     5.444E-10    4.882E-10    4.322E-10    3.766E-10    3.213E-10    2.664E-10    2.117E-10    1.575E-10    1.036E-10    5.015E-11
    -2.936E-12   -5.560E-11   -1.079E-10   -1.597E-10   -2.111E-10   -2.620E-10   -3.124E-10   -3.624E-10   -4.119E-10   -4.609E-10
    -5.094E-10   -5.574E-10   -6.048E-10   -6.517E-10   -6.981E-10   -7.439E-10   -7.891E-10   -8.337E-10   -8.778E-10   -9.212E-10
    -9.641E-10   -1.006E-09   -1.048E-09   -1.089E-09   -1.129E-09   -1.169E-09   -1.208E-09   -1.246E-09   -1.284E-09   -1.321E-09
    -1.357E-09   -1.392E-09   -1.427E-09   -1.461E-09   -1.494E-09   -1.527E-09   -1.559E-09   -1.590E-09   -1.620E-09   -1.649E-09
    -1.678E-09   -1.706E-09   -1.733E-09   -1.759E-09   -1.785E-09   -1.809E-09   -1.833E-09   -1.856E-09   -1.878E-09   -1.899E-09
    -1.920E-09   -1.939E-09   -1.958E-09   -1.976E-09   -1.992E-09   -2.008E-09   -2.023E-09   -2.037E-09   -2.051E-09   -2.063E-09
    -2.074E-09   -2.085E-09   -2.094E-09   -2.103E-09   -2.110E-09   -2.117E-09   -2.123E-09   -2.127E-09   -2.131E-09   -2.134E-09
    -2.135E-09   -2.136E-09   -2.136E-09   -2.135E-09   -2.133E-09   -2.129E-09   -2.125E-09   -2.120E-09   -2.114E-09   -2.107E-09
    -2.098E-09   -2.089E-09   -2.079E-09   -2.067E-09   -2.055E-09   -2.042E-09   -2.027E-09   -2.012E-09   -1.995E-09   -1.978E-09
    -1.959E-09   -1.940E-09   -1.919E-09   -1.897E-09   -1.874E-09   -1.851E-09   -1.826E-09   -1.800E-09   -1.773E-09   -1.745E-09
    -1.716E-09   -1.685E-09   -1.654E-09   -1.622E-09   -1.589E-09   -1.554E-09   -1.519E-09   -1.482E-09   -1.445E-09   -1.406E-09
    -1.366E-09   -1.326E-09   -1.284E-09   -1.241E-09   -1.197E-09   -1.152E-09   -1.106E-09   -1.060E-09   -1.011E-09   -9.624E-10
    -9.123E-10   -8.612E-10   -8.090E-10   -7.558E-10   -7.016E-10   -6.463E-10   -5.901E-10   -5.328E-10   -4.745E-10   -4.152E-10
    -3.549E-10   -2.936E-10   -2.313E-10   -1.680E-10   -1.037E-10   -3.840E-11    2.786E-11    9.509E-11    1.633E-10    2.325E-10
     3.026E-10    3.737E-10    4.457E-10
 Glc      Conc. = 2.88E-10
   1.54172E-09  1.73786E-09  1.93798E-09  2.14698E-09  2.34628E-09  2.52983E-09  2.67744E-09  2.79310E-09  2.86456E-09  2.89273E-09
   2.91947E-09  2.95138E-09  2.98768E-09  3.04433E-09  3.14866E-09  3.30385E-09  3.49983E-09  3.72447E-09  3.94855E-09  4.16062E-09
   4.37018E-09  4.56456E-09  4.72205E-09  4.83276E-09  4.87515E-09  4.85796E-09  4.84339E-09  4.85641E-09  4.89334E-09  4.94252E-09
   4.98701E-09  5.02649E-09  5.06850E-09  5.10358E-09  5.12728E-09  5.15350E-09  5.18195E-09  5.20502E-09  5.22668E-09  5.25224E-09
   5.28067E-09  5.31077E-09  5.34198E-09  5.37382E-09  5.40596E-09  5.43818E-09  5.47027E-09  5.50212E-09  5.53356E-09  5.56450E-09
   5.59491E-09  5.62466E-09  5.65370E-09  5.68204E-09  5.70957E-09  5.73628E-09  5.76213E-09  5.78712E-09  5.81119E-09  5.83434E-09
   5.85655E-09  5.87781E-09  5.89812E-09  5.91744E-09  5.93576E-09  5.95310E-09  5.96944E-09  5.98475E-09  5.99906E-09  6.01234E-09
   6.02461E-09  6.03587E-09  6.04606E-09  6.05527E-09  6.06342E-09  6.07057E-09  6.07666E-09  6.08175E-09  6.08578E-09  6.08880E-09
   6.09079E-09  6.09176E-09  6.09174E-09  6.09069E-09  6.08863E-09  6.08557E-09  6.08147E-09  6.07637E-09  6.07033E-09  6.06327E-09
   6.05521E-09  6.04613E-09  6.03612E-09  6.02514E-09  6.01319E-09  6.00029E-09  5.98643E-09  5.97164E-09  5.95589E-09  5.93923E-09
   5.92162E-09  5.90310E-09  5.88367E-09  5.86334E-09  5.84210E-09  5.81998E-09  5.79697E-09  5.77309E-09  5.74835E-09  5.72275E-09
   5.69629E-09  5.66899E-09  5.64085E-09  5.61190E-09  5.58213E-09  5.55156E-09  5.52019E-09  5.48802E-09  5.45508E-09  5.42137E-09
   5.38689E-09  5.35167E-09  5.31570E-09  5.27900E-09  5.24159E-09  5.20346E-09  5.16462E-09  5.12509E-09  5.08488E-09  5.04402E-09
   5.00247E-09  4.96028E-09  4.91745E-09  4.87400E-09  4.82993E-09  4.78527E-09  4.73997E-09  4.69411E-09  4.64769E-09  4.60069E-09
   4.55316E-09  4.50508E-09  4.45649E-09  4.40740E-09  4.35778E-09  4.30768E-09  4.25711E-09  4.20608E-09  4.15461E-09  4.10268E-09
   4.05039E-09  3.99767E-09  3.94457E-09  3.89113E-09  3.83736E-09  3.78328E-09  3.72892E-09  3.67435E-09  3.61962E-09  3.56481E-09
   3.51002E-09  3.45546E-09  3.40147E-09  3.34862E-09  3.29846E-09  3.25512E-09  3.23741E-09  3.29636E-09  3.37465E-09  3.43140E-09
   3.45406E-09  3.44577E-09  3.41389E-09  3.35971E-09  3.27445E-09  3.14187E-09  2.95081E-09  2.71936E-09  2.51633E-09  2.41880E-09
   2.34488E-09  2.27776E-09  2.21342E-09  2.15045E-09  2.08827E-09  2.02656E-09  1.96517E-09  1.90401E-09  1.84303E-09  1.78219E-09
   1.72149E-09  1.66090E-09  1.60044E-09  1.54009E-09  1.47987E-09  1.41979E-09  1.35984E-09  1.30004E-09  1.24040E-09  1.18093E-09
   1.12163E-09  1.06251E-09  1.00360E-09  9.44903E-10  8.86412E-10  8.28167E-10  7.70157E-10  7.12405E-10  6.54912E-10  5.97702E-10
   5.40784E-10  4.84161E-10  4.27849E-10  3.71861E-10  3.16201E-10  2.60901E-10  2.05950E-10  1.51363E-10  9.71572E-11  4.33476E-11
  -1.00655E-11 -6.30580E-11 -1.15638E-10 -1.67770E-10 -2.19463E-10 -2.70691E-10 -3.21472E-10 -3.71738E-10 -4.21537E-10 -4.70836E-10
  -5.19628E-10 -5.67888E-10 -6.15628E-10 -6.62812E-10 -7.09448E-10 -7.55527E-10 -8.01028E-10 -8.45945E-10 -8.90268E-10 -9.33987E-10
  -9.77097E-10 -1.01957E-09 -1.06143E-09 -1.10264E-09 -1.14320E-09 -1.18310E-09 -1.22233E-09 -1.26087E-09 -1.29873E-09 -1.33588E-09
  -1.37233E-09 -1.40806E-09 -1.44306E-09 -1.47735E-09 -1.51087E-09 -1.54366E-09 -1.57568E-09 -1.60692E-09 -1.63740E-09 -1.66710E-09
  -1.69599E-09 -1.72409E-09 -1.75139E-09 -1.77785E-09 -1.80350E-09 -1.82832E-09 -1.85231E-09 -1.87545E-09 -1.89774E-09 -1.91914E-09
  -1.93971E-09 -1.95938E-09 -1.97818E-09 -1.99610E-09 -2.01312E-09 -2.02923E-09 -2.04445E-09 -2.05875E-09 -2.07213E-09 -2.08458E-09
  -2.09611E-09 -2.10670E-09 -2.11635E-09 -2.12505E-09 -2.13279E-09 -2.13958E-09 -2.14541E-09 -2.15027E-09 -2.15416E-09 -2.15707E-09
  -2.15900E-09 -2.15994E-09 -2.15990E-09 -2.15885E-09 -2.15681E-09 -2.15377E-09 -2.14972E-09 -2.14466E-09 -2.13859E-09 -2.13150E-09
  -2.12339E-09 -2.11425E-09 -2.10409E-09 -2.09290E-09 -2.08068E-09 -2.06743E-09 -2.05313E-09 -2.03780E-09 -2.02143E-09 -2.00401E-09
  -1.98555E-09 -1.96604E-09 -1.94548E-09 -1.92388E-09 -1.90122E-09 -1.87750E-09 -1.85274E-09 -1.82692E-09 -1.80004E-09 -1.77211E-09
  -1.74311E-09 -1.71307E-09 -1.68196E-09 -1.64980E-09 -1.61658E-09 -1.58230E-09 -1.54697E-09 -1.51057E-09 -1.47313E-09 -1.43462E-09
  -1.39507E-09 -1.35446E-09 -1.31279E-09 -1.27008E-09 -1.22632E-09 -1.18151E-09 -1.13565E-09 -1.08875E-09 -1.04081E-09 -9.91822E-10
  -9.41800E-10 -8.90744E-10 -8.38655E-10 -7.85535E-10 -7.31390E-10 -6.76219E-10 -6.20027E-10 -5.62818E-10 -5.04594E-10 -4.45360E-10
  -3.85119E-10 -3.23875E-10 -2.61631E-10 -1.98393E-10 -1.34163E-10 -6.89472E-11 -2.74954E-12  6.44253E-11  1.32572E-10  2.01687E-10
   2.71764E-10  3.42798E-10  4.14784E-10
 Gln      Conc. = 1.11E-09
   9.43995E-10  1.15407E-09  1.43502E-09  1.77995E-09  2.16090E-09  2.54574E-09  2.89930E-09  3.19104E-09  3.41394E-09  3.60346E-09
   3.66971E-09  3.67408E-09  3.67891E-09  3.62127E-09  3.59136E-09  3.58699E-09  3.59905E-09  3.62189E-09  3.65208E-09  3.68738E-09
   3.72627E-09  3.76764E-09  3.81073E-09  3.85499E-09  3.90006E-09  3.94563E-09  3.99123E-09  4.03673E-09  4.08190E-09  4.12646E-09
   4.17026E-09  4.21314E-09  4.25497E-09  4.29563E-09  4.33500E-09  4.37299E-09  4.40945E-09  4.44428E-09  4.47730E-09  4.50841E-09
   4.53746E-09  4.56429E-09  4.58880E-09  4.61081E-09  4.63003E-09  4.64625E-09  4.65914E-09  4.66803E-09  4.67280E-09  4.67333E-09
   4.66860E-09  4.65857E-09  4.64507E-09  4.63725E-09  4.69512E-09  4.86587E-09  5.05686E-09  5.31744E-09  5.70549E-09  6.15402E-09
   6.59570E-09  7.02240E-09  7.38963E-09  7.64343E-09  7.74261E-09  7.69107E-09  7.57039E-09  7.38523E-09  7.04515E-09  6.73519E-09
   6.51575E-09  6.36734E-09  6.30548E-09  6.32030E-09  6.44787E-09  6.69074E-09  6.97458E-09  7.28980E-09  7.61395E-09  7.91356E-09
   8.15654E-09  8.29323E-09  8.30216E-09  8.26700E-09  8.15947E-09  7.93078E-09  7.72655E-09  7.54829E-09  7.34560E-09  7.18127E-09
   7.05335E-09  6.94947E-09  6.86240E-09  6.78680E-09  6.71922E-09  6.65809E-09  6.60205E-09  6.54989E-09  6.50088E-09  6.45440E-09
   6.40978E-09  6.36657E-09  6.32452E-09  6.28342E-09  6.24308E-09  6.20330E-09  6.16388E-09  6.12471E-09  6.08567E-09  6.04668E-09
   6.00764E-09  5.96851E-09  5.92923E-09  5.88974E-09  5.85000E-09  5.80998E-09  5.76964E-09  5.72893E-09  5.68788E-09  5.64643E-09
   5.60457E-09  5.56229E-09  5.51958E-09  5.47642E-09  5.43282E-09  5.38875E-09  5.34422E-09  5.29921E-09  5.25375E-09  5.20782E-09
   5.16141E-09  5.11454E-09  5.06719E-09  5.01940E-09  4.97113E-09  4.92243E-09  4.87324E-09  4.82363E-09  4.77359E-09  4.72310E-09
   4.67221E-09  4.62090E-09  4.56920E-09  4.51713E-09  4.46465E-09  4.41182E-09  4.35865E-09  4.30515E-09  4.25134E-09  4.19723E-09
   4.14289E-09  4.08832E-09  4.03354E-09  3.97864E-09  3.92366E-09  3.86865E-09  3.81374E-09  3.75906E-09  3.70481E-09  3.65124E-09
   3.59879E-09  3.54816E-09  3.50057E-09  3.45835E-09  3.42702E-09  3.42213E-09  3.51220E-09  3.89986E-09  4.36737E-09  4.75453E-09
   5.01078E-09  5.14754E-09  5.19338E-09  5.15406E-09  4.99660E-09  4.65870E-09  4.09554E-09  3.37264E-09  2.75077E-09  2.54010E-09
   2.42479E-09  2.33661E-09  2.25949E-09  2.18788E-09  2.11938E-09  2.05279E-09  1.98745E-09  1.92299E-09  1.85917E-09  1.79582E-09
   1.73287E-09  1.67024E-09  1.60789E-09  1.54577E-09  1.48390E-09  1.42224E-09  1.36080E-09  1.29956E-09  1.23854E-09  1.17773E-09
   1.11714E-09  1.05676E-09  9.96640E-10  9.36750E-10  8.77098E-10  8.17719E-10  7.58598E-10  6.99758E-10  6.41198E-10  5.82941E-10
   5.24994E-10  4.67360E-10  4.10055E-10  3.53089E-10  2.96467E-10  2.40220E-10  1.84336E-10  1.28830E-10  7.37188E-11  1.90166E-11
  -3.52764E-11 -8.91369E-11 -1.42573E-10 -1.95550E-10 -2.48076E-10 -3.00127E-10 -3.51721E-10 -4.02788E-10 -4.53379E-10 -5.03459E-10
