 LCModel (Version 6.3-1R) Copyright: S.W. Provencher.          Ref.: Magn. Reson. Med. 30:672-679 (1993).                
 onepulse 29x12_ftSpec_smooth_lcm
 26 lines in following concentration table = NCONC+1
    Conc.  %SD   /Cr    Metabolite                                         
 2.74E-10  60%   0.000 Ala                                                 
 1.26E-09  31%   0.000 Asp                                                 
    0.000 999%   0.000 Cr                                                  
 8.56E-10  32%   0.000 GABA                                                
 1.56E-09  26%   0.000 Glc                                                 
 1.83E-11 999%   0.000 Gln                                                 
    0.000 999%   0.000 Glu                                                 
    0.000 999%   0.000 Glyc                                                
    0.000 999%   0.000 GPC                                                 
 3.75E-10  61%   0.000 GSH                                                 
 6.32E-10  38%   0.000 Ins                                                 
    0.000 999%   0.000 Lac                                                 
 6.80E-10  19%   0.000 NAAG                                                
    0.000 999%   0.000 NAA                                                 
    0.000 999%   0.000 PCh                                                 
    0.000 999%   0.000 PCr                                                 
 1.49E-09  24%   0.000 PE                                                  
    0.000 999%   0.000 Scyllo                                              
    0.000 999%   0.000 Ser                                                 
    0.000 999%   0.000 Tau                                                 
    0.000 999%   0.000 GPC+PCh                                             
 6.80E-10  19%   0.000 NAA+NAAG                                            
 6.32E-10  38%   0.000 Ins+Glyc                                            
    0.000 999%   0.000 Cr+PCr                                              
 1.83E-11 999%   0.000 Glu+Gln                                             
   6 lines in following misc. output table
  FWHM = 0.123 ppm    S/N =   4                                            
  Data shift = 0.481 ppm                                                   
  Ph:  36 deg     -37.8 deg/ppm                                            
  alphaB,S = 8.0E-01,   6.4E+00                                            
   10 spline knots.   Ns = 5(1)                                            
  (11) 6 infls.   (11) 5 extrs.                                            
  363 points on ppm-axis = NY
      4.250000     4.238821     4.227641     4.216462     4.205282     4.194103     4.182923     4.171744     4.160564     4.149385
      4.138206     4.127026     4.115847     4.104667     4.093488     4.082308     4.071129     4.059949     4.048770     4.037591
      4.026411     4.015232     4.004052     3.992873     3.981693     3.970514     3.959334     3.948155     3.936975     3.925796
      3.914617     3.903437     3.892258     3.881078     3.869899     3.858719     3.847540     3.836360     3.825181     3.814002
      3.802822     3.791643     3.780463     3.769284     3.758104     3.746925     3.735745     3.724566     3.713387     3.702207
      3.691028     3.679848     3.668669     3.657489     3.646310     3.635130     3.623951     3.612772     3.601592     3.590413
      3.579233     3.568054     3.556874     3.545695     3.534515     3.523336     3.512156     3.500977     3.489798     3.478618
      3.467439     3.456259     3.445080     3.433900     3.422721     3.411541     3.400362     3.389183     3.378003     3.366824
      3.355644     3.344465     3.333285     3.322106     3.310926     3.299747     3.288568     3.277388     3.266209     3.255029
      3.243850     3.232670     3.221491     3.210311     3.199132     3.187953     3.176773     3.165594     3.154414     3.143235
      3.132055     3.120876     3.109696     3.098517     3.087337     3.076158     3.064979     3.053799     3.042620     3.031440
      3.020261     3.009081     2.997902     2.986722     2.975543     2.964364     2.953184     2.942005     2.930825     2.919646
      2.908466     2.897287     2.886107     2.874928     2.863749     2.852569     2.841390     2.830210     2.819031     2.807851
      2.796672     2.785492     2.774313     2.763134     2.751954     2.740775     2.729595     2.718416     2.707236     2.696057
      2.684877     2.673698     2.662519     2.651339     2.640160     2.628980     2.617801     2.606621     2.595442     2.584262
      2.573083     2.561903     2.550724     2.539545     2.528365     2.517186     2.506006     2.494827     2.483647     2.472468
      2.461288     2.450109     2.438930     2.427750     2.416571     2.405391     2.394212     2.383032     2.371853     2.360673
      2.349494     2.338315     2.327135     2.315956     2.304776     2.293597     2.282417     2.271238     2.260058     2.248879
      2.237700     2.226520     2.215341     2.204161     2.192982     2.181802     2.170623     2.159443     2.148264     2.137084
      2.125905     2.114726     2.103546     2.092367     2.081187     2.070008     2.058828     2.047649     2.036469     2.025290
      2.014111     2.002931     1.991752     1.980572     1.969393     1.958213     1.947034     1.935854     1.924675     1.913496
      1.902316     1.891137     1.879957     1.868778     1.857598     1.846419     1.835239     1.824060     1.812881     1.801701
      1.790522     1.779342     1.768163     1.756983     1.745804     1.734624     1.723445     1.712265     1.701086     1.689907
      1.678727     1.667548     1.656368     1.645189     1.634009     1.622830     1.611650     1.600471     1.589292     1.578112
      1.566933     1.555753     1.544574     1.533394     1.522215     1.511035     1.499856     1.488677     1.477497     1.466318
      1.455138     1.443959     1.432779     1.421600     1.410420     1.399241     1.388062     1.376882     1.365703     1.354523
      1.343344     1.332164     1.320985     1.309805     1.298626     1.287446     1.276267     1.265088     1.253908     1.242729
      1.231549     1.220370     1.209190     1.198011     1.186831     1.175652     1.164473     1.153293     1.142114     1.130934
      1.119755     1.108575     1.097396     1.086216     1.075037     1.063858     1.052678     1.041499     1.030319     1.019140
      1.007960     0.996781     0.985601     0.974422     0.963243     0.952063     0.940884     0.929704     0.918525     0.907345
      0.896166     0.884986     0.873807     0.862628     0.851448     0.840269     0.829089     0.817910     0.806730     0.795551
      0.784371     0.773192     0.762012     0.750833     0.739654     0.728474     0.717295     0.706115     0.694936     0.683756
      0.672577     0.661397     0.650218     0.639039     0.627859     0.616680     0.605500     0.594321     0.583141     0.571962
      0.560782     0.549603     0.538424     0.527244     0.516065     0.504885     0.493706     0.482526     0.471347     0.460167
      0.448988     0.437809     0.426629     0.415450     0.404270     0.393091     0.381911     0.370732     0.359552     0.348373
      0.337193     0.326014     0.314835     0.303655     0.292476     0.281296     0.270117     0.258937     0.247758     0.236578
      0.225399     0.214220     0.203040
 NY phased data points follow
   6.38472E-09  6.96461E-09  6.87721E-09  7.50881E-09  7.59807E-09  7.58995E-09  7.46312E-09  7.11739E-09  7.55441E-09  7.00867E-09
   6.46620E-09  6.14671E-09  6.32820E-09  6.72026E-09  7.20402E-09  7.14724E-09  6.42446E-09  5.92311E-09  5.96593E-09  5.94368E-09
   7.20425E-09  7.83075E-09  8.35707E-09  8.71345E-09  8.20206E-09  7.19293E-09  6.80221E-09  6.78851E-09  6.76644E-09  6.43777E-09
   6.59135E-09  5.90607E-09  6.16645E-09  5.71450E-09  6.15368E-09  5.16553E-09  4.96156E-09  4.51424E-09  4.67188E-09  4.44621E-09
   4.64055E-09  4.33382E-09  4.60231E-09  3.80747E-09  3.55768E-09  2.85262E-09  3.02240E-09  3.11947E-09  3.23039E-09  2.04449E-09
   2.75732E-09  3.42840E-09  5.19228E-09  6.27077E-09  6.82726E-09  6.02368E-09  6.18991E-09  5.43468E-09  5.29356E-09  4.60401E-09
   4.46167E-09  3.55587E-09  3.67256E-09  2.99107E-09  2.80331E-09  1.17464E-09  8.98786E-10  1.15400E-09  3.65495E-09  5.98694E-09
   7.77887E-09  7.34593E-09  7.57152E-09  7.32945E-09  7.88632E-09  6.97703E-09  7.29423E-09  6.63907E-09  7.42424E-09  7.30648E-09
   7.64231E-09  7.22746E-09  7.30408E-09  6.53694E-09  6.92515E-09  6.10815E-09  6.61995E-09  5.99187E-09  6.40775E-09  5.17566E-09
   5.74473E-09  4.91171E-09  5.83047E-09  4.89993E-09  5.47519E-09  5.46412E-09  5.79064E-09  5.31293E-09  5.01367E-09  4.17342E-09
   3.69371E-09  3.78193E-09  3.81048E-09  3.69592E-09  3.84577E-09  3.27382E-09  4.15395E-09  3.57985E-09  3.94886E-09  3.79776E-09
   4.12705E-09  4.03935E-09  4.15273E-09  3.39667E-09  3.14002E-09  2.56257E-09  2.29485E-09  2.15552E-09  2.65010E-09  2.43997E-09
   2.36351E-09  2.20410E-09  2.53407E-09  2.41111E-09  2.54179E-09  2.34205E-09  2.18812E-09  1.26652E-09  1.54086E-09  2.24161E-09
   3.13471E-09  3.02293E-09  2.95177E-09  2.48449E-09  2.85982E-09  2.94149E-09  4.22157E-09  3.85058E-09  4.20648E-09  4.16027E-09
   4.81495E-09  3.97739E-09  4.67667E-09  4.20362E-09  4.40920E-09  3.75747E-09  4.26875E-09  4.40602E-09  4.18568E-09  3.56849E-09
   4.05394E-09  3.42487E-09  3.84642E-09  3.14504E-09  3.75049E-09  3.39531E-09  2.71948E-09  4.71328E-10 -7.69615E-10 -4.70787E-10
   3.05916E-09  6.57478E-09  8.98064E-09  9.47670E-09  1.00243E-08  1.00212E-08  1.09402E-08  1.10142E-08  1.14832E-08  1.16222E-08
   1.25175E-08  1.24969E-08  1.29368E-08  1.26269E-08  1.30139E-08  1.23847E-08  1.21905E-08  1.18849E-08  1.13890E-08  1.09267E-08
   1.03470E-08  8.95108E-09  8.52254E-09  6.57102E-09  5.96137E-09  4.79614E-09  3.82791E-09  2.39997E-09  1.25270E-09  3.72685E-10
  -6.02263E-10 -1.51588E-09 -1.61377E-09 -2.25638E-09 -2.30923E-09 -2.81456E-09 -2.64302E-09 -2.20332E-09 -1.48064E-09 -1.64912E-09
  -1.35287E-09 -1.20307E-09 -7.36367E-10 -1.02183E-09 -2.88696E-10 -6.83453E-10  9.74817E-12 -6.95746E-10 -3.44292E-10 -6.31354E-10
  -7.38389E-10 -3.15794E-10 -3.18739E-10 -2.40686E-10 -2.02765E-11  3.37318E-11 -4.46178E-11 -5.96762E-10 -4.55704E-11 -2.70641E-10
  -5.61602E-10 -2.32950E-10  1.68851E-10 -1.81630E-10 -3.52087E-10 -3.09489E-10 -8.79723E-12 -8.56306E-11 -9.38147E-11 -2.40646E-10
  -2.69691E-11 -8.28187E-11 -1.48928E-10 -4.71492E-10 -2.76016E-10 -6.52611E-10 -5.37672E-10 -6.22047E-10 -6.66386E-10 -5.75112E-10
  -5.92297E-10 -4.08542E-10 -1.84693E-10 -2.03900E-10  5.71388E-11  1.43511E-10  7.17481E-11  1.95279E-11 -2.57174E-10  2.60014E-10
  -4.40999E-11  3.34762E-10  2.56297E-10 -4.18411E-10 -6.79485E-11 -6.11118E-10 -7.40300E-10 -7.05004E-10 -1.04263E-09 -1.01918E-09
  -1.43293E-09 -1.03541E-09 -1.08562E-09 -1.33469E-09 -8.82738E-10 -1.14010E-09 -7.20731E-10 -6.42610E-10 -2.41835E-10 -1.30066E-10
  -1.39084E-10  4.72276E-11 -7.96315E-11 -1.53825E-10  2.11866E-10  6.45503E-11 -7.78591E-11  2.98327E-11  3.88192E-10 -2.90501E-10
  -5.94483E-11  3.04062E-10 -2.96603E-11  2.53877E-10  5.17993E-10  3.32439E-10 -1.30671E-10  3.76631E-10  8.60165E-11  8.12746E-11
   1.22999E-10  4.27879E-10 -1.87064E-10  1.34441E-11 -1.82578E-11  3.95471E-10  9.56257E-12  6.85483E-11  1.93449E-10 -2.54106E-11
  -3.13660E-10 -5.27379E-11 -1.82688E-10 -2.43177E-11  8.74274E-11  3.36134E-10 -4.39549E-11  2.81825E-10  1.38355E-10 -9.65383E-12
   1.87971E-10  1.16633E-11 -2.24581E-10 -1.15312E-10 -3.87078E-10 -3.29126E-11  1.58334E-10  1.00258E-10 -1.83333E-10  1.28960E-10
  -5.94139E-11 -1.30030E-10 -8.86138E-11  1.72704E-10 -1.90719E-10 -6.61294E-11 -2.03074E-10 -1.26753E-11 -2.25137E-12  8.33890E-11
  -6.58162E-12  2.10757E-10  3.21253E-10 -8.43740E-11 -1.21723E-10 -1.81509E-11  2.02384E-11 -1.68622E-10 -2.10932E-10  1.27583E-10
  -3.78381E-11  2.46602E-10  9.39259E-11  2.75469E-10 -4.60978E-10  4.75447E-10 -1.41434E-10 -1.34441E-10 -1.57518E-10  1.24810E-10
  -1.23225E-10 -6.80893E-11 -1.16216E-10  4.57593E-11  3.28486E-10 -9.03256E-11 -2.75457E-10  3.56113E-10  9.13717E-11  1.81093E-10
  -1.45716E-10  1.12115E-10 -4.17189E-12
 NY points of the fit to the data follow
   7.92008E-09  7.59407E-09  7.38087E-09  6.82861E-09  7.24651E-09  7.45579E-09  7.11372E-09  7.12041E-09  8.19922E-09  6.76349E-09
   5.75730E-09  5.70301E-09  5.75044E-09  6.02933E-09  7.03411E-09  7.38118E-09  7.02557E-09  7.29336E-09  7.32372E-09  6.72349E-09
   7.13059E-09  7.64449E-09  7.63872E-09  7.90356E-09  8.24696E-09  8.14617E-09  7.00616E-09  6.72852E-09  6.65124E-09  6.92519E-09
   6.97700E-09  6.59825E-09  6.56422E-09  6.13744E-09  5.61917E-09  5.42668E-09  5.09606E-09  4.90354E-09  4.80322E-09  4.71102E-09
   4.26352E-09  4.43191E-09  5.03084E-09  4.43717E-09  4.53391E-09  4.62879E-09  4.25385E-09  3.78510E-09  4.23187E-09  4.06347E-09
   4.20113E-09  4.35392E-09  4.33208E-09  4.30074E-09  4.59596E-09  4.20869E-09  3.93781E-09  3.98013E-09  4.24610E-09  3.79500E-09
   3.95978E-09  4.08405E-09  3.94070E-09  3.94733E-09  4.53184E-09  4.83709E-09  4.67074E-09  4.65066E-09  4.94323E-09  5.26740E-09
   5.66139E-09  5.98750E-09  5.91838E-09  5.58854E-09  6.21531E-09  7.42793E-09  7.99058E-09  7.30818E-09  7.36142E-09  7.60228E-09
   7.56325E-09  7.37963E-09  7.19558E-09  7.12408E-09  6.86641E-09  7.45381E-09  7.10278E-09  4.98645E-09  4.60619E-09  4.63016E-09
   4.41323E-09  4.18585E-09  4.34209E-09  4.36802E-09  3.88431E-09  3.93176E-09  3.98839E-09  3.68028E-09  3.68975E-09  3.80033E-09
   3.94948E-09  3.68043E-09  3.77017E-09  4.13527E-09  4.04336E-09  4.02102E-09  4.05102E-09  4.06039E-09  4.07601E-09  4.13584E-09
   4.07806E-09  3.59103E-09  3.68287E-09  3.76589E-09  3.38088E-09  3.25997E-09  3.21112E-09  3.18715E-09  3.17434E-09  3.16734E-09
   3.16359E-09  3.16181E-09  3.16120E-09  3.16125E-09  3.16162E-09  3.16209E-09  3.16251E-09  3.16270E-09  3.16260E-09  3.16213E-09
   3.16122E-09  3.15983E-09  3.15792E-09  3.15546E-09  3.15241E-09  3.14877E-09  3.14450E-09  3.13959E-09  3.13405E-09  3.12786E-09
   3.12102E-09  3.11354E-09  3.10544E-09  3.09672E-09  3.08740E-09  3.07753E-09  3.06713E-09  3.05628E-09  3.04504E-09  3.03352E-09
   3.02182E-09  3.01013E-09  2.99865E-09  2.98768E-09  2.97761E-09  2.96899E-09  2.96260E-09  2.95961E-09  2.96179E-09  2.97188E-09
   2.99447E-09  3.03771E-09  3.11770E-09  3.27071E-09  3.59709E-09  4.48153E-09  8.00683E-09  1.21898E-08  1.16551E-08  1.10935E-08
   1.18206E-08  1.24997E-08  1.29673E-08  1.30540E-08  1.28258E-08  1.27191E-08  1.38182E-08  1.25439E-08  6.74949E-09  3.76735E-09
   2.91906E-09  2.54839E-09  2.33468E-09  2.18964E-09  2.08013E-09  1.99114E-09  1.91492E-09  1.84713E-09  1.78520E-09  1.72746E-09
   1.67283E-09  1.62059E-09  1.57022E-09  1.52138E-09  1.47379E-09  1.42727E-09  1.38168E-09  1.33694E-09  1.29295E-09  1.24969E-09
   1.20711E-09  1.16519E-09  1.12391E-09  1.08328E-09  1.04330E-09  1.00396E-09  9.65299E-10  9.27298E-10  8.89992E-10  8.53355E-10
   8.17384E-10  7.82062E-10  7.47384E-10  7.13338E-10  6.79920E-10  6.47118E-10  6.14934E-10  5.83359E-10  5.52386E-10  5.22011E-10
   4.92238E-10  4.63054E-10  4.34460E-10  4.06453E-10  3.79028E-10  3.52185E-10  3.25925E-10  3.00235E-10  2.75116E-10  2.50576E-10
   2.26608E-10  2.03205E-10  1.80374E-10  1.58104E-10  1.36400E-10  1.15255E-10  9.46700E-11  7.46488E-11  5.51847E-11  3.62782E-11
   1.79286E-11  1.35281E-13 -1.71057E-11 -3.37947E-11 -4.99301E-11 -6.55144E-11 -8.05525E-11 -9.50472E-11 -1.08985E-10 -1.22373E-10
  -1.35220E-10 -1.47526E-10 -1.59284E-10 -1.70494E-10 -1.81173E-10 -1.91302E-10 -2.00894E-10 -2.09942E-10 -2.18456E-10 -2.26434E-10
  -2.33876E-10 -2.40796E-10 -2.47206E-10 -2.53117E-10 -2.58539E-10 -2.63485E-10 -2.67964E-10 -2.71989E-10 -2.75571E-10 -2.78720E-10
  -2.81447E-10 -2.83764E-10 -2.85683E-10 -2.87213E-10 -2.88366E-10 -2.89154E-10 -2.89587E-10 -2.89676E-10 -2.89434E-10 -2.88869E-10
  -2.87994E-10 -2.86820E-10 -2.85359E-10 -2.83620E-10 -2.81615E-10 -2.79356E-10 -2.76852E-10 -2.74117E-10 -2.71160E-10 -2.67991E-10
  -2.64624E-10 -2.61068E-10 -2.57336E-10 -2.53437E-10 -2.49383E-10 -2.45184E-10 -2.40854E-10 -2.36400E-10 -2.31837E-10 -2.27173E-10
  -2.22421E-10 -2.17591E-10 -2.12694E-10 -2.07743E-10 -2.02746E-10 -1.97717E-10 -1.92665E-10 -1.87602E-10 -1.82539E-10 -1.77486E-10
  -1.72456E-10 -1.67457E-10 -1.62495E-10 -1.57567E-10 -1.52673E-10 -1.47811E-10 -1.42980E-10 -1.38180E-10 -1.33409E-10 -1.28665E-10
  -1.23951E-10 -1.19260E-10 -1.14595E-10 -1.09955E-10 -1.05339E-10 -1.00744E-10 -9.61692E-11 -9.16151E-11 -8.70795E-11 -8.25611E-11
  -7.80616E-11 -7.35774E-11 -6.91057E-11 -6.46515E-11 -6.02077E-11 -5.57753E-11 -5.13555E-11 -4.69446E-11 -4.25420E-11 -3.81463E-11
  -3.37582E-11 -2.93757E-11 -2.49975E-11 -2.06228E-11 -1.62496E-11 -1.18779E-11 -7.50866E-12 -3.13682E-12  1.23607E-12  5.61334E-12
   9.99234E-12  1.43773E-11  1.87668E-11  2.31649E-11  2.75716E-11  3.19846E-11  3.64069E-11  4.08442E-11  4.52905E-11  4.97505E-11
   5.42247E-11  5.87138E-11  6.32195E-11
 NY background values follow
    -1.808E-09   -1.763E-09   -1.719E-09   -1.674E-09   -1.629E-09   -1.584E-09   -1.539E-09   -1.494E-09   -1.449E-09   -1.404E-09
    -1.359E-09   -1.314E-09   -1.269E-09   -1.224E-09   -1.179E-09   -1.133E-09   -1.088E-09   -1.043E-09   -9.985E-10   -9.535E-10
    -9.086E-10   -8.637E-10   -8.189E-10   -7.741E-10   -7.294E-10   -6.847E-10   -6.401E-10   -5.956E-10   -5.511E-10   -5.068E-10
    -4.625E-10   -4.183E-10   -3.742E-10   -3.302E-10   -2.863E-10   -2.425E-10   -1.988E-10   -1.552E-10   -1.118E-10   -6.852E-11
    -2.534E-11    1.771E-11    6.060E-11    1.033E-10    1.459E-10    1.884E-10    2.306E-10    2.727E-10    3.147E-10    3.564E-10
     3.980E-10    4.394E-10    4.806E-10    5.216E-10    5.624E-10    6.030E-10    6.433E-10    6.834E-10    7.233E-10    7.630E-10
     8.024E-10    8.415E-10    8.804E-10    9.190E-10    9.573E-10    9.953E-10    1.033E-09    1.070E-09    1.108E-09    1.144E-09
     1.181E-09    1.217E-09    1.253E-09    1.288E-09    1.323E-09    1.358E-09    1.392E-09    1.426E-09    1.460E-09    1.493E-09
     1.526E-09    1.558E-09    1.590E-09    1.621E-09    1.652E-09    1.683E-09    1.713E-09    1.743E-09    1.772E-09    1.801E-09
     1.829E-09    1.857E-09    1.884E-09    1.911E-09    1.937E-09    1.963E-09    1.988E-09    2.012E-09    2.037E-09    2.060E-09
     2.083E-09    2.105E-09    2.127E-09    2.149E-09    2.169E-09    2.189E-09    2.209E-09    2.228E-09    2.246E-09    2.263E-09
     2.280E-09    2.296E-09    2.312E-09    2.327E-09    2.341E-09    2.355E-09    2.368E-09    2.380E-09    2.391E-09    2.402E-09
     2.412E-09    2.421E-09    2.429E-09    2.437E-09    2.443E-09    2.449E-09    2.455E-09    2.459E-09    2.463E-09    2.466E-09
     2.467E-09    2.469E-09    2.469E-09    2.468E-09    2.467E-09    2.464E-09    2.461E-09    2.457E-09    2.451E-09    2.445E-09
     2.438E-09    2.430E-09    2.422E-09    2.412E-09    2.401E-09    2.389E-09    2.376E-09    2.362E-09    2.348E-09    2.332E-09
     2.315E-09    2.297E-09    2.278E-09    2.258E-09    2.237E-09    2.215E-09    2.192E-09    2.167E-09    2.142E-09    2.116E-09
     2.088E-09    2.060E-09    2.031E-09    2.001E-09    1.970E-09    1.938E-09    1.906E-09    1.873E-09    1.839E-09    1.804E-09
     1.769E-09    1.733E-09    1.697E-09    1.660E-09    1.623E-09    1.585E-09    1.546E-09    1.508E-09    1.468E-09    1.429E-09
     1.389E-09    1.349E-09    1.308E-09    1.268E-09    1.227E-09    1.186E-09    1.145E-09    1.104E-09    1.062E-09    1.021E-09
     9.796E-10    9.383E-10    8.970E-10    8.559E-10    8.148E-10    7.740E-10    7.333E-10    6.928E-10    6.526E-10    6.127E-10
     5.731E-10    5.338E-10    4.949E-10    4.565E-10    4.185E-10    3.809E-10    3.439E-10    3.074E-10    2.715E-10    2.361E-10
     2.014E-10    1.671E-10    1.335E-10    1.004E-10    6.791E-11    3.596E-11    4.575E-12   -2.624E-11   -5.650E-11   -8.620E-11
    -1.153E-10   -1.439E-10   -1.719E-10   -1.994E-10   -2.263E-10   -2.526E-10   -2.784E-10   -3.036E-10   -3.283E-10   -3.524E-10
    -3.759E-10   -3.989E-10   -4.214E-10   -4.433E-10   -4.646E-10   -4.854E-10   -5.056E-10   -5.253E-10   -5.445E-10   -5.631E-10
    -5.811E-10   -5.986E-10   -6.155E-10   -6.319E-10   -6.478E-10   -6.631E-10   -6.779E-10   -6.921E-10   -7.058E-10   -7.189E-10
    -7.315E-10   -7.436E-10   -7.551E-10   -7.660E-10   -7.765E-10   -7.864E-10   -7.957E-10   -8.046E-10   -8.128E-10   -8.206E-10
    -8.278E-10   -8.345E-10   -8.407E-10   -8.464E-10   -8.516E-10   -8.564E-10   -8.606E-10   -8.645E-10   -8.678E-10   -8.708E-10
    -8.733E-10   -8.754E-10   -8.771E-10   -8.785E-10   -8.794E-10   -8.800E-10   -8.802E-10   -8.801E-10   -8.797E-10   -8.789E-10
    -8.779E-10   -8.765E-10   -8.748E-10   -8.729E-10   -8.707E-10   -8.683E-10   -8.656E-10   -8.626E-10   -8.595E-10   -8.561E-10
    -8.526E-10   -8.488E-10   -8.449E-10   -8.408E-10   -8.366E-10   -8.322E-10   -8.276E-10   -8.230E-10   -8.182E-10   -8.134E-10
    -8.084E-10   -8.034E-10   -7.983E-10   -7.932E-10   -7.880E-10   -7.828E-10   -7.775E-10   -7.723E-10   -7.670E-10   -7.618E-10
    -7.565E-10   -7.513E-10   -7.462E-10   -7.410E-10   -7.359E-10   -7.309E-10   -7.258E-10   -7.208E-10   -7.159E-10   -7.109E-10
    -7.060E-10   -7.011E-10   -6.962E-10   -6.914E-10   -6.866E-10   -6.817E-10   -6.770E-10   -6.722E-10   -6.674E-10   -6.627E-10
    -6.580E-10   -6.533E-10   -6.486E-10   -6.439E-10   -6.393E-10   -6.346E-10   -6.300E-10   -6.253E-10   -6.207E-10   -6.161E-10
    -6.115E-10   -6.069E-10   -6.023E-10   -5.977E-10   -5.930E-10   -5.884E-10   -5.838E-10   -5.792E-10   -5.746E-10   -5.700E-10
    -5.654E-10   -5.607E-10   -5.561E-10   -5.515E-10   -5.468E-10   -5.421E-10   -5.375E-10   -5.328E-10   -5.281E-10   -5.234E-10
    -5.186E-10   -5.139E-10   -5.091E-10
 Ala      Conc. = 2.74E-10
  -1.58930E-09 -1.57629E-09 -1.50928E-09 -1.44270E-09 -1.41492E-09 -1.38218E-09 -1.30170E-09 -1.29713E-09 -1.31551E-09 -1.21865E-09
  -1.19903E-09 -1.22168E-09 -1.16930E-09 -1.13435E-09 -1.11179E-09 -1.07923E-09 -1.04198E-09 -1.00226E-09 -9.61097E-10 -9.19014E-10
  -8.76328E-10 -8.33226E-10 -7.89827E-10 -7.46223E-10 -7.02487E-10 -6.58650E-10 -6.14758E-10 -5.70832E-10 -5.26904E-10 -4.82982E-10
  -4.39078E-10 -3.95231E-10 -3.51426E-10 -3.07688E-10 -2.64019E-10 -2.20437E-10 -1.76943E-10 -1.33538E-10 -9.02445E-11 -4.70734E-11
  -4.00155E-12  3.89491E-11  8.17586E-11  1.24430E-10  1.66968E-10  2.09353E-10  2.51594E-10  2.93672E-10  3.35585E-10  3.77320E-10
   4.18900E-10  4.60298E-10  5.01514E-10  5.42537E-10  5.83360E-10  6.23981E-10  6.64390E-10  7.04580E-10  7.44543E-10  7.84273E-10
   8.23760E-10  8.62998E-10  9.01983E-10  9.40703E-10  9.79152E-10  1.01733E-09  1.05522E-09  1.09282E-09  1.13013E-09  1.16713E-09
   1.20383E-09  1.24022E-09  1.27629E-09  1.31203E-09  1.34745E-09  1.38254E-09  1.41730E-09  1.45173E-09  1.48582E-09  1.51958E-09
   1.55301E-09  1.58612E-09  1.61891E-09  1.65140E-09  1.68360E-09  1.71555E-09  1.74727E-09  1.77882E-09  1.81026E-09  1.84169E-09
   1.87326E-09  1.90515E-09  1.93770E-09  1.97139E-09  2.00707E-09  2.04626E-09  2.09203E-09  2.15151E-09  2.24563E-09  2.45988E-09
   2.76939E-09  2.57471E-09  2.72551E-09  3.15522E-09  3.11265E-09  3.12799E-09  3.18884E-09  3.22257E-09  3.25954E-09  3.33766E-09
   3.29549E-09  2.82221E-09  2.92612E-09  3.01984E-09  2.64448E-09  2.53207E-09  2.49075E-09  2.47358E-09  2.46691E-09  2.46547E-09
   2.46679E-09  2.46959E-09  2.47313E-09  2.47695E-09  2.48075E-09  2.48432E-09  2.48752E-09  2.49025E-09  2.49242E-09  2.49398E-09
   2.49487E-09  2.49505E-09  2.49450E-09  2.49317E-09  2.49106E-09  2.48812E-09  2.48436E-09  2.47975E-09  2.47426E-09  2.46790E-09
   2.46064E-09  2.45247E-09  2.44338E-09  2.43337E-09  2.42241E-09  2.41049E-09  2.39761E-09  2.38376E-09  2.36894E-09  2.35313E-09
   2.33632E-09  2.31852E-09  2.29972E-09  2.27992E-09  2.25913E-09  2.23736E-09  2.21462E-09  2.19099E-09  2.16655E-09  2.14144E-09
   2.11585E-09  2.09010E-09  2.06481E-09  2.04130E-09  2.02304E-09  2.02252E-09  2.10981E-09  2.32520E-09  2.19870E-09  2.14632E-09
   2.15632E-09  2.14370E-09  2.13083E-09  2.09618E-09  2.05229E-09  2.00413E-09  2.01266E-09  1.98772E-09  1.62047E-09  1.50484E-09
   1.44041E-09  1.38901E-09  1.34237E-09  1.29784E-09  1.25438E-09  1.21152E-09  1.16900E-09  1.12670E-09  1.08456E-09  1.04255E-09
   1.00066E-09  9.58887E-10  9.17243E-10  8.75762E-10  8.34443E-10  7.93320E-10  7.52415E-10  7.11764E-10  6.71379E-10  6.31302E-10
   5.91559E-10  5.52178E-10  5.13193E-10  4.74629E-10  4.36520E-10  3.98894E-10  3.61795E-10  3.25230E-10  2.89245E-10  2.53832E-10
   2.18992E-10  1.84723E-10  1.51027E-10  1.17898E-10  8.53384E-11  5.33440E-11  2.19191E-11 -8.93932E-12 -3.92356E-11 -6.89691E-11
  -9.81342E-11 -1.26739E-10 -1.54783E-10 -1.82265E-10 -2.09187E-10 -2.35551E-10 -2.61349E-10 -2.86596E-10 -3.11290E-10 -3.35420E-10
  -3.58994E-10 -3.82016E-10 -4.04479E-10 -4.26393E-10 -4.47750E-10 -4.68561E-10 -4.88819E-10 -5.08524E-10 -5.27680E-10 -5.46286E-10
  -5.64344E-10 -5.81852E-10 -5.98813E-10 -6.15230E-10 -6.31098E-10 -6.46421E-10 -6.61202E-10 -6.75445E-10 -6.89135E-10 -7.02281E-10
  -7.14889E-10 -7.26959E-10 -7.38486E-10 -7.49467E-10 -7.59921E-10 -7.69828E-10 -7.79200E-10 -7.88032E-10 -7.96332E-10 -8.04098E-10
  -8.11331E-10 -8.18044E-10 -8.24248E-10 -8.29955E-10 -8.35176E-10 -8.39921E-10 -8.44202E-10 -8.48029E-10 -8.51415E-10 -8.54369E-10
  -8.56903E-10 -8.59027E-10 -8.60754E-10 -8.62094E-10 -8.63057E-10 -8.63656E-10 -8.63901E-10 -8.63803E-10 -8.63373E-10 -8.62622E-10
  -8.61561E-10 -8.60202E-10 -8.58555E-10 -8.56632E-10 -8.54442E-10 -8.51998E-10 -8.49311E-10 -8.46392E-10 -8.43250E-10 -8.39898E-10
  -8.36347E-10 -8.32608E-10 -8.28692E-10 -8.24608E-10 -8.20370E-10 -8.15987E-10 -8.11472E-10 -8.06834E-10 -8.02086E-10 -7.97237E-10
  -7.92300E-10 -7.87284E-10 -7.82200E-10 -7.77062E-10 -7.71879E-10 -7.66662E-10 -7.61422E-10 -7.56170E-10 -7.50918E-10 -7.45675E-10
  -7.40454E-10 -7.35265E-10 -7.30111E-10 -7.24991E-10 -7.19903E-10 -7.14847E-10 -7.09821E-10 -7.04825E-10 -6.99857E-10 -6.94917E-10
  -6.90005E-10 -6.85116E-10 -6.80251E-10 -6.75410E-10 -6.70592E-10 -6.65794E-10 -6.61016E-10 -6.56258E-10 -6.51517E-10 -6.46792E-10
  -6.42085E-10 -6.37392E-10 -6.32711E-10 -6.28045E-10 -6.23389E-10 -6.18744E-10 -6.14109E-10 -6.09483E-10 -6.04863E-10 -6.00249E-10
  -5.95642E-10 -5.91038E-10 -5.86438E-10 -5.81840E-10 -5.77242E-10 -5.72644E-10 -5.68047E-10 -5.63446E-10 -5.58842E-10 -5.54233E-10
  -5.49620E-10 -5.45000E-10 -5.40374E-10 -5.35738E-10 -5.31091E-10 -5.26437E-10 -5.21771E-10 -5.17089E-10 -5.12396E-10 -5.07688E-10
  -5.02964E-10 -4.98223E-10 -4.93463E-10
 Asp      Conc. = 1.26E-09
  -3.65464E-10 -6.70943E-10 -6.29749E-10 -8.35061E-10 -8.91754E-10 -8.90197E-10 -1.07258E-09 -1.20748E-09 -1.23962E-09 -1.23545E-09
  -1.21480E-09 -1.18613E-09 -1.15349E-09 -1.11227E-09 -1.07058E-09 -1.02817E-09 -9.84853E-10 -9.40685E-10 -8.95799E-10 -8.50255E-10
  -8.04113E-10 -7.57388E-10 -7.10063E-10 -6.62108E-10 -6.13463E-10 -5.64010E-10 -5.13606E-10 -4.62028E-10 -4.08972E-10 -3.53975E-10
  -2.96343E-10 -2.35003E-10 -1.68050E-10 -9.19194E-11  1.35730E-12  1.33712E-10  3.29349E-10  3.59639E-10  5.02577E-10  4.93777E-10
   5.58886E-10  7.09206E-10  1.02098E-09  1.24911E-09  1.73453E-09  1.92396E-09  1.72070E-09  1.68662E-09  2.24773E-09  2.10318E-09
   2.13242E-09  2.40485E-09  2.46653E-09  2.31433E-09  2.43290E-09  2.09407E-09  1.57149E-09  1.62715E-09  1.90453E-09  1.51567E-09
   1.42745E-09  1.48170E-09  1.31610E-09  1.27990E-09  1.39880E-09  1.45925E-09  1.37553E-09  1.34670E-09  1.34257E-09  1.35077E-09
   1.36607E-09  1.38583E-09  1.40854E-09  1.43331E-09  1.45951E-09  1.48673E-09  1.51466E-09  1.54309E-09  1.57185E-09  1.60080E-09
   1.62984E-09  1.65887E-09  1.68784E-09  1.71668E-09  1.74535E-09  1.77380E-09  1.80199E-09  1.82990E-09  1.85749E-09  1.88474E-09
   1.91164E-09  1.93814E-09  1.96425E-09  1.98993E-09  2.01518E-09  2.03998E-09  2.06432E-09  2.08817E-09  2.11153E-09  2.13439E-09
   2.15672E-09  2.17854E-09  2.19982E-09  2.22054E-09  2.24071E-09  2.26031E-09  2.27932E-09  2.29774E-09  2.31556E-09  2.33276E-09
   2.34933E-09  2.36527E-09  2.38056E-09  2.39519E-09  2.40915E-09  2.42243E-09  2.43502E-09  2.44691E-09  2.45809E-09  2.46855E-09
   2.47828E-09  2.48727E-09  2.49551E-09  2.50299E-09  2.50970E-09  2.51564E-09  2.52079E-09  2.52514E-09  2.52868E-09  2.53141E-09
   2.53331E-09  2.53438E-09  2.53461E-09  2.53399E-09  2.53251E-09  2.53016E-09  2.52694E-09  2.52283E-09  2.51783E-09  2.51194E-09
   2.50514E-09  2.49743E-09  2.48881E-09  2.47928E-09  2.46882E-09  2.45743E-09  2.44513E-09  2.43190E-09  2.41776E-09  2.40272E-09
   2.38677E-09  2.36997E-09  2.35231E-09  2.33386E-09  2.31468E-09  2.29484E-09  2.27449E-09  2.25385E-09  2.23326E-09  2.21324E-09
   2.19463E-09  2.17893E-09  2.16907E-09  2.17158E-09  2.20424E-09  2.33235E-09  2.92597E-09  3.87200E-09  3.44337E-09  3.35933E-09
   3.51966E-09  3.59036E-09  3.65213E-09  3.62301E-09  3.55103E-09  3.48314E-09  3.67648E-09  3.53727E-09  2.11251E-09  1.75104E-09
   1.60315E-09  1.51269E-09  1.44415E-09  1.38591E-09  1.33319E-09  1.28373E-09  1.23631E-09  1.19026E-09  1.14518E-09  1.10081E-09
   1.05699E-09  1.01363E-09  9.70648E-10  9.28033E-10  8.85744E-10  8.43784E-10  8.02148E-10  7.60857E-10  7.19908E-10  6.79330E-10
   6.39140E-10  5.99358E-10  5.60011E-10  5.21120E-10  4.82714E-10  4.44817E-10  4.07469E-10  3.70677E-10  3.34484E-10  2.98877E-10
   2.63858E-10  2.29423E-10  1.95572E-10  1.62299E-10  1.29606E-10  9.74853E-11  6.59417E-11  3.49727E-11  4.57200E-12 -2.52602E-11
  -5.45189E-11 -8.32125E-11 -1.11340E-10 -1.38902E-10 -1.65901E-10 -1.92336E-10 -2.18203E-10 -2.43517E-10 -2.68274E-10 -2.92464E-10
