 LCModel (Version 6.3-1R) Copyright: S.W. Provencher.          Ref.: Magn. Reson. Med. 30:672-679 (1993).                
 onepulse 29x13_ftSpec_smooth_lcm
 26 lines in following concentration table = NCONC+1
    Conc.  %SD   /Cr    Metabolite                                         
 4.94E-10  43%   0.000 Ala                                                 
 1.83E-09  24%   0.000 Asp                                                 
    0.000 999%   0.000 Cr                                                  
 9.66E-10  33%   0.000 GABA                                                
 1.63E-09  28%   0.000 Glc                                                 
    0.000 999%   0.000 Gln                                                 
    0.000 999%   0.000 Glu                                                 
    0.000 999%   0.000 Glyc                                                
    0.000 999%   0.000 GPC                                                 
    0.000 999%   0.000 GSH                                                 
 7.22E-10  45%   0.000 Ins                                                 
    0.000 999%   0.000 Lac                                                 
 7.73E-10  15%   0.000 NAAG                                                
    0.000 999%   0.000 NAA                                                 
    0.000 999%   0.000 PCh                                                 
    0.000 999%   0.000 PCr                                                 
 1.24E-09  32%   0.000 PE                                                  
    0.000 999%   0.000 Scyllo                                              
 8.92E-10  56%   0.000 Ser                                                 
    0.000 999%   0.000 Tau                                                 
    0.000 999%   0.000 GPC+PCh                                             
 7.73E-10  15%   0.000 NAA+NAAG                                            
 7.22E-10  45%   0.000 Ins+Glyc                                            
    0.000 999%   0.000 Cr+PCr                                              
    0.000 999%   0.000 Glu+Gln                                             
   6 lines in following misc. output table
  FWHM = 0.123 ppm    S/N =   3                                            
  Data shift = 0.492 ppm                                                   
  Ph:  40 deg     -35.9 deg/ppm                                            
  alphaB,S = 1.3E+00,   5.2E+00                                            
    9 spline knots.   Ns = 5(1)                                            
  (10) 8 infls.   (11) 5 extrs.                                            
  363 points on ppm-axis = NY
      4.250000     4.238821     4.227641     4.216462     4.205282     4.194103     4.182923     4.171744     4.160564     4.149385
      4.138206     4.127026     4.115847     4.104667     4.093488     4.082308     4.071129     4.059949     4.048770     4.037591
      4.026411     4.015232     4.004052     3.992873     3.981693     3.970514     3.959334     3.948155     3.936975     3.925796
      3.914617     3.903437     3.892258     3.881078     3.869899     3.858719     3.847540     3.836360     3.825181     3.814002
      3.802822     3.791643     3.780463     3.769284     3.758104     3.746925     3.735745     3.724566     3.713387     3.702207
      3.691028     3.679848     3.668669     3.657489     3.646310     3.635130     3.623951     3.612772     3.601592     3.590413
      3.579233     3.568054     3.556874     3.545695     3.534515     3.523336     3.512156     3.500977     3.489798     3.478618
      3.467439     3.456259     3.445080     3.433900     3.422721     3.411541     3.400362     3.389183     3.378003     3.366824
      3.355644     3.344465     3.333285     3.322106     3.310926     3.299747     3.288568     3.277388     3.266209     3.255029
      3.243850     3.232670     3.221491     3.210311     3.199132     3.187953     3.176773     3.165594     3.154414     3.143235
      3.132055     3.120876     3.109696     3.098517     3.087337     3.076158     3.064979     3.053799     3.042620     3.031440
      3.020261     3.009081     2.997902     2.986722     2.975543     2.964364     2.953184     2.942005     2.930825     2.919646
      2.908466     2.897287     2.886107     2.874928     2.863749     2.852569     2.841390     2.830210     2.819031     2.807851
      2.796672     2.785492     2.774313     2.763134     2.751954     2.740775     2.729595     2.718416     2.707236     2.696057
      2.684877     2.673698     2.662519     2.651339     2.640160     2.628980     2.617801     2.606621     2.595442     2.584262
      2.573083     2.561903     2.550724     2.539545     2.528365     2.517186     2.506006     2.494827     2.483647     2.472468
      2.461288     2.450109     2.438930     2.427750     2.416571     2.405391     2.394212     2.383032     2.371853     2.360673
      2.349494     2.338315     2.327135     2.315956     2.304776     2.293597     2.282417     2.271238     2.260058     2.248879
      2.237700     2.226520     2.215341     2.204161     2.192982     2.181802     2.170623     2.159443     2.148264     2.137084
      2.125905     2.114726     2.103546     2.092367     2.081187     2.070008     2.058828     2.047649     2.036469     2.025290
      2.014111     2.002931     1.991752     1.980572     1.969393     1.958213     1.947034     1.935854     1.924675     1.913496
      1.902316     1.891137     1.879957     1.868778     1.857598     1.846419     1.835239     1.824060     1.812881     1.801701
      1.790522     1.779342     1.768163     1.756983     1.745804     1.734624     1.723445     1.712265     1.701086     1.689907
      1.678727     1.667548     1.656368     1.645189     1.634009     1.622830     1.611650     1.600471     1.589292     1.578112
      1.566933     1.555753     1.544574     1.533394     1.522215     1.511035     1.499856     1.488677     1.477497     1.466318
      1.455138     1.443959     1.432779     1.421600     1.410420     1.399241     1.388062     1.376882     1.365703     1.354523
      1.343344     1.332164     1.320985     1.309805     1.298626     1.287446     1.276267     1.265088     1.253908     1.242729
      1.231549     1.220370     1.209190     1.198011     1.186831     1.175652     1.164473     1.153293     1.142114     1.130934
      1.119755     1.108575     1.097396     1.086216     1.075037     1.063858     1.052678     1.041499     1.030319     1.019140
      1.007960     0.996781     0.985601     0.974422     0.963243     0.952063     0.940884     0.929704     0.918525     0.907345
      0.896166     0.884986     0.873807     0.862628     0.851448     0.840269     0.829089     0.817910     0.806730     0.795551
      0.784371     0.773192     0.762012     0.750833     0.739654     0.728474     0.717295     0.706115     0.694936     0.683756
      0.672577     0.661397     0.650218     0.639039     0.627859     0.616680     0.605500     0.594321     0.583141     0.571962
      0.560782     0.549603     0.538424     0.527244     0.516065     0.504885     0.493706     0.482526     0.471347     0.460167
      0.448988     0.437809     0.426629     0.415450     0.404270     0.393091     0.381911     0.370732     0.359552     0.348373
      0.337193     0.326014     0.314835     0.303655     0.292476     0.281296     0.270117     0.258937     0.247758     0.236578
      0.225399     0.214220     0.203040
 NY phased data points follow
   1.27164E-09  2.39550E-09  1.55661E-09  3.35399E-09  2.62598E-09  3.95969E-09  2.48563E-09  4.09784E-09  3.46707E-09  3.82676E-09
   2.27503E-09  2.95580E-09  1.97091E-09  3.52237E-09  3.15368E-09  4.05182E-09  2.35543E-09  3.10350E-09  1.46102E-09  2.55185E-09
   2.72026E-09  4.26936E-09  4.53243E-09  6.31337E-09  5.03349E-09  5.31713E-09  4.26466E-09  5.42399E-09  4.15789E-09  5.45490E-09
   4.11100E-09  5.16017E-09  4.02698E-09  5.13812E-09  4.07318E-09  4.34252E-09  3.39876E-09  3.88652E-09  2.85599E-09  3.71853E-09
   2.66122E-09  3.74057E-09  2.57618E-09  2.96347E-09  1.45057E-09  1.71614E-09  7.84130E-10  1.76308E-09 -4.80614E-10 -1.49033E-10
  -9.11516E-10  6.51737E-10  1.72320E-09  3.86670E-09  3.43016E-09  4.38965E-09  3.62464E-09  4.06246E-09  3.02312E-09  3.67343E-09
   2.18653E-09  2.50774E-09  1.31270E-09  1.74652E-09 -5.42805E-10 -1.66993E-09 -3.38112E-09 -1.90604E-09 -3.32239E-10  3.03469E-09
   3.32801E-09  4.44869E-09  3.98107E-09  5.62182E-09  4.73320E-09  5.39673E-09  4.39558E-09  5.36417E-09  5.25083E-09  6.20717E-09
   5.75950E-09  6.52238E-09  5.46896E-09  6.30153E-09  5.26912E-09  6.07115E-09  5.27255E-09  6.26858E-09  4.74097E-09  5.43073E-09
   4.36850E-09  5.43705E-09  4.81460E-09  5.06426E-09  5.21171E-09  5.73427E-09  5.55149E-09  5.38135E-09  4.63459E-09  3.94602E-09
   3.60073E-09  4.06835E-09  3.41896E-09  3.95089E-09  2.93497E-09  3.88364E-09  3.22236E-09  3.79117E-09  3.57793E-09  4.19464E-09
   3.86592E-09  4.53534E-09  3.78796E-09  3.45365E-09  2.63376E-09  2.43409E-09  1.89069E-09  2.68701E-09  2.12614E-09  2.40003E-09
   1.68774E-09  2.25333E-09  1.64407E-09  2.22162E-09  1.68924E-09  1.95835E-09  5.10459E-10  8.17650E-10  9.01834E-10  2.13277E-09
   1.99104E-09  2.34893E-09  1.53239E-09  2.03408E-09  1.78473E-09  3.55160E-09  3.06965E-09  3.62646E-09  3.35903E-09  4.55562E-09
   3.43757E-09  4.29602E-09  3.70925E-09  4.20048E-09  3.20682E-09  4.11142E-09  3.98263E-09  4.12710E-09  3.21291E-09  3.96324E-09
   3.21844E-09  3.68456E-09  3.01493E-09  3.51677E-09  3.03058E-09  2.53800E-09 -5.47887E-11 -1.39199E-09 -1.24771E-09  2.23609E-09
   5.99592E-09  9.15551E-09  9.83831E-09  1.07469E-08  1.06784E-08  1.20082E-08  1.18926E-08  1.29199E-08  1.28917E-08  1.39607E-08
   1.38655E-08  1.47846E-08  1.43720E-08  1.51218E-08  1.45421E-08  1.46547E-08  1.45773E-08  1.42415E-08  1.35811E-08  1.33758E-08
   1.17966E-08  1.15232E-08  9.20933E-09  8.60833E-09  7.20750E-09  6.05702E-09  4.06320E-09  2.79439E-09  1.22252E-09 -1.13916E-10
  -1.58568E-09 -1.64378E-09 -3.11155E-09 -3.24370E-09 -4.24528E-09 -3.96063E-09 -3.55488E-09 -2.74231E-09 -2.98014E-09 -2.51712E-09
  -2.30058E-09 -1.42730E-09 -1.65692E-09 -8.23195E-10 -1.29212E-09 -2.21678E-10 -1.27997E-09 -6.33996E-10 -1.28684E-09 -1.05810E-09
  -7.13470E-10 -6.02403E-10 -6.58460E-10 -4.95547E-10 -4.25224E-10 -3.38320E-10 -1.03950E-09 -2.43783E-10 -7.62446E-10 -6.87314E-10
  -5.43095E-10 -2.29835E-10 -6.84664E-10 -7.48220E-10 -8.66513E-10 -3.89810E-10 -6.84832E-10 -1.70021E-10 -6.76662E-10 -1.68323E-10
  -5.44683E-10 -6.19238E-10 -1.08578E-09 -6.77027E-10 -1.22743E-09 -8.95047E-10 -1.11784E-09 -1.01628E-09 -9.33949E-10 -7.92572E-10
  -7.95489E-10 -3.84659E-10 -5.23550E-10 -8.68628E-11 -2.73863E-10 -1.41181E-10 -5.68502E-10 -5.44972E-10 -2.67639E-10 -5.48973E-10
  -2.89451E-10 -5.91525E-10 -1.31977E-09 -9.19836E-10 -1.71965E-09 -1.30256E-09 -1.62872E-09 -1.59277E-09 -1.68328E-09 -1.97170E-09
  -1.24046E-09 -1.54237E-09 -1.64647E-09 -8.58540E-10 -1.32940E-09 -5.88830E-10 -8.41951E-10 -4.83267E-11 -2.98703E-10 -3.07691E-10
  -3.32731E-10 -4.47752E-10 -6.27500E-10 -2.08677E-10 -6.35417E-10 -5.33023E-10 -6.87003E-10 -3.35881E-10 -1.22846E-09 -3.78785E-10
  -5.04558E-10 -5.33372E-10 -5.48384E-10 -8.65983E-11 -9.83595E-10 -7.44247E-10 -7.58978E-10 -7.73675E-10 -8.61442E-10 -6.34469E-10
  -7.35579E-10 -1.19742E-09 -1.23808E-09 -9.62494E-10 -1.00796E-09 -1.28987E-09 -1.08105E-09 -1.18804E-09 -1.47136E-09 -1.29660E-09
  -1.53522E-09 -1.51117E-09 -1.35738E-09 -9.99444E-10 -1.26975E-09 -1.44401E-09 -1.15465E-09 -1.59609E-09 -1.66342E-09 -1.40882E-09
  -1.99369E-09 -1.77601E-09 -2.04289E-09 -1.84874E-09 -1.56046E-09 -1.64918E-09 -1.79825E-09 -1.88951E-09 -1.69839E-09 -1.74244E-09
  -2.00516E-09 -1.79804E-09 -1.84700E-09 -2.03858E-09 -2.10161E-09 -1.99848E-09 -1.90996E-09 -1.77515E-09 -1.98694E-09 -1.94558E-09
  -1.69893E-09 -2.14068E-09 -2.52791E-09 -2.00324E-09 -2.24486E-09 -2.02310E-09 -2.56629E-09 -1.85783E-09 -2.19535E-09 -2.13077E-09
  -2.26856E-09 -2.19979E-09 -2.80230E-09 -2.45357E-09 -2.00850E-09 -2.82369E-09 -2.49894E-09 -2.33884E-09 -2.50677E-09 -2.61704E-09
  -2.82520E-09 -2.49582E-09 -2.60132E-09 -2.60234E-09 -2.95854E-09 -2.58331E-09 -2.40586E-09 -2.81750E-09 -2.73944E-09 -2.75002E-09
  -2.78912E-09 -2.92812E-09 -3.13240E-09
 NY points of the fit to the data follow
   3.14856E-09  4.08835E-09  3.19660E-09  2.55943E-09  2.52740E-09  3.19578E-09  2.89419E-09  2.46150E-09  3.20722E-09  2.75761E-09
   2.15333E-09  1.83617E-09  1.50143E-09  1.44897E-09  2.52194E-09  3.41060E-09  3.20130E-09  3.57569E-09  4.20009E-09  3.62794E-09
   3.33001E-09  4.16656E-09  4.12029E-09  4.63232E-09  5.17550E-09  5.62446E-09  4.83991E-09  4.50688E-09  4.25727E-09  4.46250E-09
   4.84094E-09  5.06774E-09  4.85226E-09  5.09641E-09  4.39174E-09  4.34899E-09  3.81775E-09  3.62356E-09  3.25952E-09  3.40003E-09
   2.89885E-09  2.44939E-09  2.80857E-09  2.56418E-09  2.11687E-09  2.56063E-09  3.15666E-09  2.71074E-09  2.26872E-09  2.96041E-09
   2.84000E-09  2.78922E-09  2.99340E-09  3.10771E-09  3.17833E-09  3.23843E-09  3.46166E-09  2.52555E-09  2.22373E-09  2.51483E-09
   2.10342E-09  1.92199E-09  2.14722E-09  1.65116E-09  1.80027E-09  2.61467E-09  2.68070E-09  2.47591E-09  2.75834E-09  2.89019E-09
   3.22804E-09  3.80932E-09  3.87945E-09  3.18867E-09  3.37360E-09  4.65523E-09  5.99287E-09  5.47454E-09  5.76713E-09  5.90662E-09
   6.16755E-09  6.25538E-09  6.04599E-09  6.40278E-09  6.38717E-09  7.04312E-09  7.99426E-09  5.64429E-09  4.80404E-09  4.69822E-09
   4.51555E-09  4.08580E-09  4.08571E-09  4.33184E-09  3.75783E-09  3.56092E-09  3.73116E-09  3.36038E-09  3.21657E-09  3.38539E-09
   3.81196E-09  3.34316E-09  3.39178E-09  4.06111E-09  4.00858E-09  4.02690E-09  4.12135E-09  4.18387E-09  4.23324E-09  4.42028E-09
   4.54346E-09  3.64633E-09  3.70485E-09  3.98936E-09  3.29595E-09  2.99638E-09  2.83779E-09  2.73738E-09  2.66712E-09  2.61485E-09
   2.57432E-09  2.54202E-09  2.51574E-09  2.49402E-09  2.47581E-09  2.46042E-09  2.44731E-09  2.43600E-09  2.42620E-09  2.41766E-09
   2.41014E-09  2.40346E-09  2.39750E-09  2.39213E-09  2.38725E-09  2.38276E-09  2.37860E-09  2.37470E-09  2.37102E-09  2.36751E-09
   2.36414E-09  2.36090E-09  2.35777E-09  2.35475E-09  2.35184E-09  2.34906E-09  2.34643E-09  2.34402E-09  2.34191E-09  2.34016E-09
   2.33891E-09  2.33833E-09  2.33865E-09  2.34015E-09  2.34327E-09  2.34858E-09  2.35687E-09  2.36935E-09  2.38780E-09  2.41500E-09
   2.45563E-09  2.51791E-09  2.61796E-09  2.79144E-09  3.13425E-09  3.99678E-09  7.33074E-09  1.33613E-08  1.34269E-08  1.27718E-08
   1.32993E-08  1.39249E-08  1.44081E-08  1.48788E-08  1.49599E-08  1.48517E-08  1.58000E-08  1.55976E-08  8.18431E-09  3.95603E-09
   2.85980E-09  2.41789E-09  2.18146E-09  2.03168E-09  1.92533E-09  1.84333E-09  1.77609E-09  1.71827E-09  1.66674E-09  1.61953E-09
   1.57534E-09  1.53331E-09  1.49282E-09  1.45347E-09  1.41492E-09  1.37696E-09  1.33941E-09  1.30214E-09  1.26505E-09  1.22809E-09
   1.19118E-09  1.15429E-09  1.11739E-09  1.08046E-09  1.04348E-09  1.00645E-09  9.69344E-10  9.32182E-10  8.94957E-10  8.57671E-10
   8.20334E-10  7.82952E-10  7.45536E-10  7.08095E-10  6.70635E-10  6.33173E-10  5.95723E-10  5.58295E-10  5.20903E-10  4.83563E-10
   4.46291E-10  4.09099E-10  3.72003E-10  3.35016E-10  2.98154E-10  2.61438E-10  2.24876E-10  1.88486E-10  1.52288E-10  1.16295E-10
   8.05205E-11  4.49827E-11  9.69796E-12 -2.53229E-11 -6.00573E-11 -9.44940E-11 -1.28617E-10 -1.62412E-10 -1.95861E-10 -2.28950E-10
  -2.61665E-10 -2.93990E-10 -3.25912E-10 -3.57428E-10 -3.88546E-10 -4.19272E-10 -4.49612E-10 -4.79570E-10 -5.09153E-10 -5.38368E-10
  -5.67220E-10 -5.95715E-10 -6.23859E-10 -6.51656E-10 -6.79114E-10 -7.06236E-10 -7.33030E-10 -7.59500E-10 -7.85651E-10 -8.11489E-10
  -8.37018E-10 -8.62247E-10 -8.87178E-10 -9.11815E-10 -9.36166E-10 -9.60234E-10 -9.84023E-10 -1.00754E-09 -1.03079E-09 -1.05377E-09
  -1.07650E-09 -1.09897E-09 -1.12119E-09 -1.14316E-09 -1.16489E-09 -1.18638E-09 -1.20764E-09 -1.22867E-09 -1.24947E-09 -1.27005E-09
  -1.29041E-09 -1.31056E-09 -1.33049E-09 -1.35022E-09 -1.36973E-09 -1.38905E-09 -1.40817E-09 -1.42709E-09 -1.44582E-09 -1.46435E-09
  -1.48270E-09 -1.50086E-09 -1.51884E-09 -1.53663E-09 -1.55425E-09 -1.57169E-09 -1.58896E-09 -1.60605E-09 -1.62297E-09 -1.63972E-09
  -1.65630E-09 -1.67272E-09 -1.68896E-09 -1.70504E-09 -1.72094E-09 -1.73666E-09 -1.75220E-09 -1.76753E-09 -1.78267E-09 -1.79759E-09
  -1.81230E-09 -1.82679E-09 -1.84105E-09 -1.85507E-09 -1.86885E-09 -1.88239E-09 -1.89566E-09 -1.90868E-09 -1.92143E-09 -1.93391E-09
  -1.94611E-09 -1.95802E-09 -1.96964E-09 -1.98097E-09 -1.99199E-09 -2.00271E-09 -2.01311E-09 -2.02320E-09 -2.03296E-09 -2.04239E-09
  -2.05149E-09 -2.06025E-09 -2.06866E-09 -2.07672E-09 -2.08444E-09 -2.09179E-09 -2.09877E-09 -2.10539E-09 -2.11164E-09 -2.11751E-09
  -2.12299E-09 -2.12810E-09 -2.13281E-09 -2.13713E-09 -2.14105E-09 -2.14457E-09 -2.14769E-09 -2.15040E-09 -2.15269E-09 -2.15457E-09
  -2.15604E-09 -2.15708E-09 -2.15769E-09 -2.15788E-09 -2.15764E-09 -2.15697E-09 -2.15585E-09 -2.15431E-09 -2.15232E-09 -2.14988E-09
  -2.14701E-09 -2.14368E-09 -2.13991E-09
 NY background values follow
    -2.621E-09   -2.615E-09   -2.608E-09   -2.601E-09   -2.593E-09   -2.585E-09   -2.576E-09   -2.567E-09   -2.557E-09   -2.546E-09
    -2.535E-09   -2.523E-09   -2.511E-09   -2.498E-09   -2.484E-09   -2.470E-09   -2.455E-09   -2.440E-09   -2.424E-09   -2.408E-09
    -2.391E-09   -2.374E-09   -2.356E-09   -2.337E-09   -2.318E-09   -2.299E-09   -2.279E-09   -2.258E-09   -2.237E-09   -2.215E-09
    -2.193E-09   -2.170E-09   -2.147E-09   -2.123E-09   -2.099E-09   -2.074E-09   -2.049E-09   -2.023E-09   -1.997E-09   -1.970E-09
    -1.943E-09   -1.915E-09   -1.887E-09   -1.858E-09   -1.829E-09   -1.799E-09   -1.769E-09   -1.738E-09   -1.707E-09   -1.676E-09
    -1.644E-09   -1.612E-09   -1.579E-09   -1.546E-09   -1.512E-09   -1.478E-09   -1.443E-09   -1.408E-09   -1.373E-09   -1.337E-09
    -1.301E-09   -1.264E-09   -1.227E-09   -1.189E-09   -1.152E-09   -1.113E-09   -1.075E-09   -1.036E-09   -9.970E-10   -9.576E-10
    -9.179E-10   -8.779E-10   -8.377E-10   -7.973E-10   -7.566E-10   -7.158E-10   -6.748E-10   -6.336E-10   -5.923E-10   -5.509E-10
    -5.094E-10   -4.677E-10   -4.260E-10   -3.843E-10   -3.425E-10   -3.007E-10   -2.589E-10   -2.171E-10   -1.754E-10   -1.337E-10
    -9.208E-11   -5.056E-11   -9.161E-12    3.211E-11    7.324E-11    1.142E-10    1.550E-10    1.955E-10    2.358E-10    2.759E-10
     3.157E-10    3.553E-10    3.945E-10    4.334E-10    4.720E-10    5.102E-10    5.480E-10    5.854E-10    6.224E-10    6.590E-10
     6.950E-10    7.307E-10    7.658E-10    8.004E-10    8.344E-10    8.679E-10    9.009E-10    9.332E-10    9.649E-10    9.960E-10
     1.026E-09    1.056E-09    1.085E-09    1.114E-09    1.141E-09    1.168E-09    1.195E-09    1.220E-09    1.245E-09    1.269E-09
     1.292E-09    1.315E-09    1.337E-09    1.358E-09    1.379E-09    1.398E-09    1.417E-09    1.435E-09    1.453E-09    1.469E-09
     1.485E-09    1.500E-09    1.515E-09    1.528E-09    1.541E-09    1.553E-09    1.564E-09    1.575E-09    1.584E-09    1.593E-09
     1.601E-09    1.609E-09    1.615E-09    1.621E-09    1.626E-09    1.630E-09    1.633E-09    1.636E-09    1.638E-09    1.639E-09
     1.639E-09    1.638E-09    1.637E-09    1.635E-09    1.632E-09    1.628E-09    1.623E-09    1.618E-09    1.612E-09    1.605E-09
     1.597E-09    1.589E-09    1.579E-09    1.569E-09    1.559E-09    1.547E-09    1.535E-09    1.522E-09    1.508E-09    1.493E-09
     1.478E-09    1.461E-09    1.445E-09    1.427E-09    1.409E-09    1.390E-09    1.370E-09    1.349E-09    1.328E-09    1.307E-09
     1.284E-09    1.262E-09    1.238E-09    1.214E-09    1.190E-09    1.165E-09    1.139E-09    1.113E-09    1.087E-09    1.060E-09
     1.033E-09    1.005E-09    9.772E-10    9.489E-10    9.202E-10    8.912E-10    8.618E-10    8.323E-10    8.024E-10    7.723E-10
     7.420E-10    7.116E-10    6.809E-10    6.501E-10    6.191E-10    5.880E-10    5.568E-10    5.255E-10    4.942E-10    4.628E-10
     4.313E-10    3.999E-10    3.685E-10    3.371E-10    3.058E-10    2.745E-10    2.433E-10    2.122E-10    1.813E-10    1.504E-10
     1.197E-10    8.925E-11    5.894E-11    2.883E-11   -1.044E-12   -3.068E-11   -6.006E-11   -8.916E-11   -1.180E-10   -1.465E-10
    -1.746E-10   -2.025E-10   -2.300E-10   -2.571E-10   -2.839E-10   -3.103E-10   -3.364E-10   -3.621E-10   -3.875E-10   -4.126E-10
    -4.374E-10   -4.618E-10   -4.860E-10   -5.098E-10   -5.333E-10   -5.566E-10   -5.795E-10   -6.022E-10   -6.246E-10   -6.466E-10
    -6.685E-10   -6.900E-10   -7.113E-10   -7.324E-10   -7.531E-10   -7.737E-10   -7.939E-10   -8.140E-10   -8.338E-10   -8.534E-10
    -8.727E-10   -8.918E-10   -9.107E-10   -9.294E-10   -9.479E-10   -9.661E-10   -9.842E-10   -1.002E-09   -1.020E-09   -1.037E-09
    -1.054E-09   -1.072E-09   -1.088E-09   -1.105E-09   -1.122E-09   -1.138E-09   -1.154E-09   -1.170E-09   -1.186E-09   -1.202E-09
    -1.217E-09   -1.233E-09   -1.248E-09   -1.263E-09   -1.278E-09   -1.292E-09   -1.307E-09   -1.321E-09   -1.336E-09   -1.350E-09
    -1.364E-09   -1.377E-09   -1.391E-09   -1.405E-09   -1.418E-09   -1.431E-09   -1.444E-09   -1.457E-09   -1.470E-09   -1.482E-09
    -1.495E-09   -1.507E-09   -1.519E-09   -1.530E-09   -1.542E-09   -1.553E-09   -1.564E-09   -1.575E-09   -1.585E-09   -1.595E-09
    -1.605E-09   -1.615E-09   -1.625E-09   -1.634E-09   -1.643E-09   -1.651E-09   -1.660E-09   -1.668E-09   -1.675E-09   -1.683E-09
    -1.690E-09   -1.696E-09   -1.703E-09   -1.709E-09   -1.715E-09   -1.720E-09   -1.725E-09   -1.730E-09   -1.734E-09   -1.738E-09
    -1.742E-09   -1.745E-09   -1.748E-09   -1.750E-09   -1.752E-09   -1.754E-09   -1.755E-09   -1.756E-09   -1.757E-09   -1.757E-09
    -1.757E-09   -1.756E-09   -1.755E-09   -1.753E-09   -1.751E-09   -1.749E-09   -1.746E-09   -1.743E-09   -1.740E-09   -1.735E-09
    -1.731E-09   -1.726E-09   -1.721E-09
 Ala      Conc. = 4.94E-10
  -2.58505E-09 -2.58336E-09 -2.56673E-09 -2.47151E-09 -2.41780E-09 -2.44678E-09 -2.35235E-09 -2.24105E-09 -2.38793E-09 -2.34051E-09
  -2.20977E-09 -2.31712E-09 -2.33738E-09 -2.30506E-09 -2.32630E-09 -2.34109E-09 -2.34883E-09 -2.35142E-09 -2.35019E-09 -2.34603E-09
  -2.33949E-09 -2.33101E-09 -2.32086E-09 -2.30927E-09 -2.29640E-09 -2.28239E-09 -2.26732E-09 -2.25128E-09 -2.23436E-09 -2.21658E-09
  -2.19801E-09 -2.17866E-09 -2.15860E-09 -2.13784E-09 -2.11641E-09 -2.09432E-09 -2.07161E-09 -2.04828E-09 -2.02436E-09 -1.99986E-09
  -1.97479E-09 -1.94916E-09 -1.92299E-09 -1.89629E-09 -1.86906E-09 -1.84133E-09 -1.81309E-09 -1.78435E-09 -1.75514E-09 -1.72545E-09
  -1.69529E-09 -1.66465E-09 -1.63358E-09 -1.60206E-09 -1.57009E-09 -1.53769E-09 -1.50488E-09 -1.47165E-09 -1.43801E-09 -1.40400E-09
  -1.36957E-09 -1.33477E-09 -1.29960E-09 -1.26408E-09 -1.22823E-09 -1.19207E-09 -1.15563E-09 -1.11892E-09 -1.08196E-09 -1.04478E-09
  -1.00739E-09 -9.69835E-10 -9.32126E-10 -8.94285E-10 -8.56345E-10 -8.18335E-10 -7.80273E-10 -7.42208E-10 -7.04148E-10 -6.66149E-10
  -6.28232E-10 -5.90439E-10 -5.52807E-10 -5.15390E-10 -4.78229E-10 -4.41363E-10 -4.04863E-10 -3.68769E-10 -3.33144E-10 -2.98046E-10
  -2.63516E-10 -2.29596E-10 -1.96253E-10 -1.63356E-10 -1.30526E-10 -9.67512E-11 -5.93484E-11 -1.02575E-11  8.08375E-11  3.81735E-10
   1.05432E-09  7.54941E-10  9.35391E-10  1.74241E-09  1.80942E-09  1.93072E-09  2.11688E-09  2.26010E-09  2.38346E-09  2.63850E-09
   2.82396E-09  1.98473E-09  2.09721E-09  2.43221E-09  1.78639E-09  1.53163E-09  1.41523E-09  1.35482E-09  1.32256E-09  1.30642E-09
   1.30042E-09  1.30108E-09  1.30632E-09  1.31478E-09  1.32554E-09  1.33796E-09  1.35155E-09  1.36595E-09  1.38091E-09  1.39620E-09
   1.41165E-09  1.42714E-09  1.44255E-09  1.45778E-09  1.47277E-09  1.48745E-09  1.50177E-09  1.51568E-09  1.52913E-09  1.54211E-09
   1.55457E-09  1.56650E-09  1.57786E-09  1.58865E-09  1.59884E-09  1.60843E-09  1.61740E-09  1.62574E-09  1.63344E-09  1.64051E-09
   1.64692E-09  1.65271E-09  1.65786E-09  1.66238E-09  1.66630E-09  1.66965E-09  1.67245E-09  1.67479E-09  1.67676E-09  1.67853E-09
   1.68039E-09  1.68284E-09  1.68693E-09  1.69501E-09  1.71364E-09  1.76741E-09  2.00222E-09  2.39565E-09  2.24685E-09  2.24261E-09
   2.27653E-09  2.30375E-09  2.32122E-09  2.34077E-09  2.32768E-09  2.31018E-09  2.37835E-09  2.32642E-09  1.74232E-09  1.60154E-09
   1.54421E-09  1.50841E-09  1.48033E-09  1.45550E-09  1.43212E-09  1.40934E-09  1.38670E-09  1.36396E-09  1.34098E-09  1.31766E-09
   1.29396E-09  1.26984E-09  1.24529E-09  1.22030E-09  1.19487E-09  1.16900E-09  1.14271E-09  1.11600E-09  1.08889E-09  1.06138E-09
   1.03350E-09  1.00525E-09  9.76659E-10  9.47741E-10  9.18508E-10  8.88980E-10  8.59176E-10  8.29116E-10  7.98812E-10  7.68285E-10
   7.37553E-10  7.06637E-10  6.75554E-10  6.44323E-10  6.12957E-10  5.81481E-10  5.49915E-10  5.18271E-10  4.86571E-10  4.54834E-10
   4.23080E-10  3.91325E-10  3.59587E-10  3.27884E-10  2.96233E-10  2.64658E-10  2.33171E-10  2.01790E-10  1.70537E-10  1.39428E-10
   1.08478E-10  7.77074E-11  4.71326E-11  1.67681E-11 -1.33642E-11 -4.32505E-11 -7.28742E-11 -1.02219E-10 -1.31268E-10 -1.60003E-10
  -1.88412E-10 -2.16476E-10 -2.44181E-10 -2.71525E-10 -2.98514E-10 -3.25152E-10 -3.51446E-10 -3.77398E-10 -4.03016E-10 -4.28304E-10
  -4.53267E-10 -4.77912E-10 -5.02243E-10 -5.26263E-10 -5.49981E-10 -5.73397E-10 -5.96521E-10 -6.19355E-10 -6.41905E-10 -6.64174E-10
  -6.86168E-10 -7.07893E-10 -7.29353E-10 -7.50550E-10 -7.71492E-10 -7.92182E-10 -8.12622E-10 -8.32820E-10 -8.52780E-10 -8.72503E-10
  -8.91998E-10 -9.11264E-10 -9.30310E-10 -9.49134E-10 -9.67745E-10 -9.86144E-10 -1.00434E-09 -1.02232E-09 -1.04011E-09 -1.05770E-09
  -1.07510E-09 -1.09231E-09 -1.10932E-09 -1.12616E-09 -1.14281E-09 -1.15929E-09 -1.17558E-09 -1.19171E-09 -1.20767E-09 -1.22345E-09
  -1.23908E-09 -1.25453E-09 -1.26983E-09 -1.28497E-09 -1.29995E-09 -1.31477E-09 -1.32945E-09 -1.34396E-09 -1.35833E-09 -1.37254E-09
  -1.38662E-09 -1.40054E-09 -1.41431E-09 -1.42794E-09 -1.44141E-09 -1.45472E-09 -1.46786E-09 -1.48083E-09 -1.49361E-09 -1.50620E-09
  -1.51859E-09 -1.53078E-09 -1.54276E-09 -1.55452E-09 -1.56605E-09 -1.57736E-09 -1.58843E-09 -1.59926E-09 -1.60983E-09 -1.62016E-09
  -1.63022E-09 -1.64001E-09 -1.64953E-09 -1.65876E-09 -1.66772E-09 -1.67638E-09 -1.68474E-09 -1.69281E-09 -1.70056E-09 -1.70800E-09
  -1.71513E-09 -1.72193E-09 -1.72840E-09 -1.73453E-09 -1.74033E-09 -1.74579E-09 -1.75089E-09 -1.75565E-09 -1.76004E-09 -1.76407E-09
  -1.76774E-09 -1.77104E-09 -1.77396E-09 -1.77650E-09 -1.77866E-09 -1.78043E-09 -1.78181E-09 -1.78280E-09 -1.78339E-09 -1.78358E-09
  -1.78336E-09 -1.78274E-09 -1.78171E-09 -1.78026E-09 -1.77839E-09 -1.77611E-09 -1.77340E-09 -1.77027E-09 -1.76671E-09 -1.76273E-09
  -1.75830E-09 -1.75345E-09 -1.74816E-09
 Asp      Conc. = 1.83E-09
  -1.61427E-09 -1.22802E-09 -1.29986E-09 -1.16225E-09 -1.40179E-09 -1.29772E-09 -1.42322E-09 -1.43773E-09 -1.72444E-09 -1.91233E-09
  -2.04129E-09 -2.13531E-09 -2.20723E-09 -2.26776E-09 -2.31176E-09 -2.34599E-09 -2.37475E-09 -2.39891E-09 -2.41925E-09 -2.43643E-09
  -2.45102E-09 -2.46346E-09 -2.47414E-09 -2.48339E-09 -2.49149E-09 -2.49871E-09 -2.50526E-09 -2.51137E-09 -2.51724E-09 -2.52300E-09
  -2.52881E-09 -2.53465E-09 -2.54036E-09 -2.54523E-09 -2.54706E-09 -2.53872E-09 -2.48965E-09 -2.27152E-09 -2.28200E-09 -2.05710E-09
  -2.14653E-09 -2.19082E-09 -2.20777E-09 -2.01438E-09 -1.65912E-09 -1.16722E-09 -3.85796E-10 -4.63333E-10 -7.07356E-10  1.28314E-10
   1.05209E-10  2.18111E-10  6.82771E-10  1.06794E-09  1.20017E-09  1.33307E-09  1.52973E-09  6.38922E-10  4.63940E-10  9.86196E-10
   5.80986E-10  3.14231E-10  3.59792E-10  1.43560E-10 -3.65462E-11 -8.48654E-13  1.82343E-10  5.92173E-11 -2.63500E-11 -8.09761E-11
  -1.15938E-10 -1.37489E-10 -1.49300E-10 -1.53693E-10 -1.52254E-10 -1.46105E-10 -1.36065E-10 -1.22790E-10 -1.06748E-10 -8.83615E-11
  -6.79363E-11 -4.57426E-11 -2.20033E-11  3.08401E-12  2.93581E-11  5.66911E-11  8.49383E-11  1.14007E-10  1.43792E-10  1.74206E-10
   2.05175E-10  2.36613E-10  2.68465E-10  3.00673E-10  3.33174E-10  3.65918E-10  3.98855E-10  4.31942E-10  4.65130E-10  4.98370E-10
   5.31640E-10  5.64894E-10  5.98092E-10  6.31209E-10  6.64203E-10  6.97043E-10  7.29705E-10  7.62147E-10  7.94338E-10  8.26264E-10
   8.57885E-10  8.89190E-10  9.20129E-10  9.50697E-10  9.80850E-10  1.01057E-09  1.03984E-09  1.06861E-09  1.09689E-09  1.12461E-09
   1.15182E-09  1.17844E-09  1.20446E-09  1.22988E-09  1.25469E-09  1.27888E-09  1.30244E-09  1.32537E-09  1.34766E-09  1.36930E-09
   1.39028E-09  1.41061E-09  1.43028E-09  1.44927E-09  1.46759E-09  1.48524E-09  1.50220E-09  1.51849E-09  1.53408E-09  1.54899E-09
   1.56322E-09  1.57676E-09  1.58961E-09  1.60178E-09  1.61327E-09  1.62409E-09  1.63425E-09  1.64375E-09  1.65261E-09  1.66084E-09
   1.66848E-09  1.67555E-09  1.68208E-09  1.68814E-09  1.69379E-09  1.69913E-09  1.70429E-09  1.70946E-09  1.71493E-09  1.72111E-09
   1.72869E-09  1.73880E-09  1.75352E-09  1.77699E-09  1.81867E-09  1.90501E-09  2.13680E-09  3.11483E-09  4.39897E-09  3.90299E-09
   3.92040E-09  4.06516E-09  4.18305E-09  4.27431E-09  4.36343E-09  4.33745E-09  4.31308E-09  4.62972E-09  4.25764E-09  2.27929E-09
   1.83355E-09  1.67284E-09  1.58857E-09  1.53316E-09  1.49101E-09  1.45573E-09  1.42426E-09  1.39499E-09  1.36699E-09  1.33972E-09
   1.31281E-09  1.28603E-09  1.25925E-09  1.23234E-09  1.20525E-09  1.17792E-09  1.15033E-09  1.12245E-09  1.09427E-09  1.06579E-09
   1.03701E-09  1.00793E-09  9.78562E-10  9.48911E-10  9.18988E-10  8.88806E-10  8.58376E-10  8.27718E-10  7.96843E-10  7.65765E-10
   7.34501E-10  7.03071E-10  6.71490E-10  6.39775E-10  6.07940E-10  5.76005E-10  5.43991E-10  5.11910E-10  4.79782E-10  4.47626E-10
   4.15460E-10  3.83300E-10  3.51165E-10  3.19071E-10  2.87036E-10  2.55083E-10  2.23222E-10  1.91473E-10  1.59859E-10  1.28392E-10
