 LCModel (Version 6.3-1R) Copyright: S.W. Provencher.          Ref.: Magn. Reson. Med. 30:672-679 (1993).                
 onepulse 29x23_ftSpec_smooth_lcm
 26 lines in following concentration table = NCONC+1
    Conc.  %SD   /Cr    Metabolite                                         
 4.66E-11 999%   0.000 Ala                                                 
    0.000 999%   0.000 Asp                                                 
    0.000 999%   0.000 Cr                                                  
    0.000 999%   0.000 GABA                                                
    0.000 999%   0.000 Glc                                                 
    0.000 999%   0.000 Gln                                                 
    0.000 999%   0.000 Glu                                                 
    0.000 999%   0.000 Glyc                                                
    0.000 999%   0.000 GPC                                                 
    0.000 999%   0.000 GSH                                                 
    0.000 999%   0.000 Ins                                                 
    0.000 999%   0.000 Lac                                                 
    0.000 999%   0.000 NAAG                                                
    0.000 999%   0.000 NAA                                                 
 5.42E-11 346%   0.000 PCh                                                 
    0.000 999%   0.000 PCr                                                 
    0.000 999%   0.000 PE                                                  
 9.79E-11 279%   0.000 Scyllo                                              
    0.000 999%   0.000 Ser                                                 
    0.000 999%   0.000 Tau                                                 
 5.42E-11 346%   0.000 GPC+PCh                                             
    0.000 999%   0.000 NAA+NAAG                                            
    0.000 999%   0.000 Ins+Glyc                                            
    0.000 999%   0.000 Cr+PCr                                              
    0.000 999%   0.000 Glu+Gln                                             
   6 lines in following misc. output table
  FWHM = 0.101 ppm    S/N =   0                                            
  Data shift = 0.201 ppm                                                   
  Ph:  53 deg      -5.5 deg/ppm                                            
  alphaB,S = 7.3E-01,   5.9E+00                                            
    9 spline knots.   Ns = 5(1)                                            
  ( 3) 2 infls.   ( 3) 1 extrs.                                            
  363 points on ppm-axis = NY
      4.250000     4.238821     4.227641     4.216462     4.205282     4.194103     4.182923     4.171744     4.160564     4.149385
      4.138206     4.127026     4.115847     4.104667     4.093488     4.082308     4.071129     4.059949     4.048770     4.037591
      4.026411     4.015232     4.004052     3.992873     3.981693     3.970514     3.959334     3.948155     3.936975     3.925796
      3.914617     3.903437     3.892258     3.881078     3.869899     3.858719     3.847540     3.836360     3.825181     3.814002
      3.802822     3.791643     3.780463     3.769284     3.758104     3.746925     3.735745     3.724566     3.713387     3.702207
      3.691028     3.679848     3.668669     3.657489     3.646310     3.635130     3.623951     3.612772     3.601592     3.590413
      3.579233     3.568054     3.556874     3.545695     3.534515     3.523336     3.512156     3.500977     3.489798     3.478618
      3.467439     3.456259     3.445080     3.433900     3.422721     3.411541     3.400362     3.389183     3.378003     3.366824
      3.355644     3.344465     3.333285     3.322106     3.310926     3.299747     3.288568     3.277388     3.266209     3.255029
      3.243850     3.232670     3.221491     3.210311     3.199132     3.187953     3.176773     3.165594     3.154414     3.143235
      3.132055     3.120876     3.109696     3.098517     3.087337     3.076158     3.064979     3.053799     3.042620     3.031440
      3.020261     3.009081     2.997902     2.986722     2.975543     2.964364     2.953184     2.942005     2.930825     2.919646
      2.908466     2.897287     2.886107     2.874928     2.863749     2.852569     2.841390     2.830210     2.819031     2.807851
      2.796672     2.785492     2.774313     2.763134     2.751954     2.740775     2.729595     2.718416     2.707236     2.696057
      2.684877     2.673698     2.662519     2.651339     2.640160     2.628980     2.617801     2.606621     2.595442     2.584262
      2.573083     2.561903     2.550724     2.539545     2.528365     2.517186     2.506006     2.494827     2.483647     2.472468
      2.461288     2.450109     2.438930     2.427750     2.416571     2.405391     2.394212     2.383032     2.371853     2.360673
      2.349494     2.338315     2.327135     2.315956     2.304776     2.293597     2.282417     2.271238     2.260058     2.248879
      2.237700     2.226520     2.215341     2.204161     2.192982     2.181802     2.170623     2.159443     2.148264     2.137084
      2.125905     2.114726     2.103546     2.092367     2.081187     2.070008     2.058828     2.047649     2.036469     2.025290
      2.014111     2.002931     1.991752     1.980572     1.969393     1.958213     1.947034     1.935854     1.924675     1.913496
      1.902316     1.891137     1.879957     1.868778     1.857598     1.846419     1.835239     1.824060     1.812881     1.801701
      1.790522     1.779342     1.768163     1.756983     1.745804     1.734624     1.723445     1.712265     1.701086     1.689907
      1.678727     1.667548     1.656368     1.645189     1.634009     1.622830     1.611650     1.600471     1.589292     1.578112
      1.566933     1.555753     1.544574     1.533394     1.522215     1.511035     1.499856     1.488677     1.477497     1.466318
      1.455138     1.443959     1.432779     1.421600     1.410420     1.399241     1.388062     1.376882     1.365703     1.354523
      1.343344     1.332164     1.320985     1.309805     1.298626     1.287446     1.276267     1.265088     1.253908     1.242729
      1.231549     1.220370     1.209190     1.198011     1.186831     1.175652     1.164473     1.153293     1.142114     1.130934
      1.119755     1.108575     1.097396     1.086216     1.075037     1.063858     1.052678     1.041499     1.030319     1.019140
      1.007960     0.996781     0.985601     0.974422     0.963243     0.952063     0.940884     0.929704     0.918525     0.907345
      0.896166     0.884986     0.873807     0.862628     0.851448     0.840269     0.829089     0.817910     0.806730     0.795551
      0.784371     0.773192     0.762012     0.750833     0.739654     0.728474     0.717295     0.706115     0.694936     0.683756
      0.672577     0.661397     0.650218     0.639039     0.627859     0.616680     0.605500     0.594321     0.583141     0.571962
      0.560782     0.549603     0.538424     0.527244     0.516065     0.504885     0.493706     0.482526     0.471347     0.460167
      0.448988     0.437809     0.426629     0.415450     0.404270     0.393091     0.381911     0.370732     0.359552     0.348373
      0.337193     0.326014     0.314835     0.303655     0.292476     0.281296     0.270117     0.258937     0.247758     0.236578
      0.225399     0.214220     0.203040
 NY phased data points follow
   1.00533E-08  9.21559E-09  1.05361E-08  9.60320E-09  1.02049E-08  9.32418E-09  9.98695E-09  8.88935E-09  9.38755E-09  8.52343E-09
   9.25894E-09  8.93172E-09  1.01641E-08  1.03289E-08  1.20868E-08  1.33876E-08  1.44912E-08  1.39219E-08  1.43644E-08  1.34945E-08
   1.36672E-08  1.28506E-08  1.31781E-08  1.26334E-08  1.29216E-08  1.25668E-08  1.26757E-08  1.23677E-08  1.30845E-08  1.28134E-08
   1.34486E-08  1.31804E-08  1.34970E-08  1.26542E-08  1.32378E-08  1.25786E-08  1.26821E-08  1.22753E-08  1.24410E-08  1.22793E-08
   1.27602E-08  1.19822E-08  1.26378E-08  1.17031E-08  1.21569E-08  1.22286E-08  1.30263E-08  1.32058E-08  1.39832E-08  1.36741E-08
   1.39187E-08  1.33051E-08  1.29280E-08  1.23084E-08  1.23278E-08  1.18491E-08  1.21484E-08  1.11045E-08  1.13913E-08  1.07547E-08
   1.06776E-08  9.81146E-09  9.28652E-09  9.24984E-09  9.09584E-09  9.07972E-09  9.23564E-09  8.81376E-09  8.86532E-09  7.62293E-09
   8.45694E-09  7.21772E-09  8.10166E-09  7.62935E-09  7.82253E-09  7.32653E-09  8.50356E-09  8.35111E-09  1.01133E-08  9.89883E-09
   1.11807E-08  1.00315E-08  1.05956E-08  9.57502E-09  9.94723E-09  8.21962E-09  8.70029E-09  7.60024E-09  7.75795E-09  6.44228E-09
   7.02515E-09  5.83441E-09  6.90035E-09  7.31972E-09  9.86318E-09  1.04202E-08  1.18601E-08  1.13839E-08  1.29044E-08  1.21392E-08
   1.23203E-08  1.20860E-08  1.20907E-08  1.24062E-08  1.28127E-08  1.20896E-08  1.25873E-08  1.18681E-08  1.20334E-08  1.14580E-08
   1.14746E-08  1.09970E-08  1.08385E-08  1.07506E-08  1.06000E-08  1.02655E-08  1.02324E-08  1.05763E-08  1.07087E-08  1.06222E-08
   1.04410E-08  1.08310E-08  1.05468E-08  1.02543E-08  9.98878E-09  9.17965E-09  9.36213E-09  9.11066E-09  8.91893E-09  9.62160E-09
   8.50106E-09  9.08094E-09  8.64343E-09  9.02402E-09  8.15338E-09  8.64847E-09  7.98601E-09  8.07069E-09  7.51984E-09  7.00742E-09
   6.48622E-09  6.35006E-09  6.52922E-09  6.33162E-09  6.11655E-09  6.32281E-09  6.12484E-09  6.23715E-09  6.22844E-09  5.51092E-09
   5.35219E-09  4.94659E-09  5.16388E-09  4.42581E-09  4.74909E-09  5.11891E-09  5.32870E-09  4.45664E-09  4.77060E-09  4.01435E-09
   4.91440E-09  4.18285E-09  5.34645E-09  4.36631E-09  4.80251E-09  4.78910E-09  5.32777E-09  5.09293E-09  5.37341E-09  5.36303E-09
   5.83726E-09  5.82207E-09  5.99173E-09  5.31715E-09  6.25562E-09  5.98317E-09  6.67200E-09  6.40378E-09  6.99836E-09  6.75714E-09
   7.48053E-09  7.76839E-09  8.56269E-09  8.91794E-09  1.12691E-08  1.28717E-08  1.59221E-08  1.78255E-08  1.86054E-08  1.95113E-08
   1.96033E-08  2.02283E-08  2.04876E-08  2.07044E-08  2.12764E-08  2.09155E-08  2.15509E-08  2.21022E-08  2.18990E-08  2.27289E-08
   2.31899E-08  2.37279E-08  2.44221E-08  2.55444E-08  2.62728E-08  2.67209E-08  2.76556E-08  2.89522E-08  2.98290E-08  2.96727E-08
   3.07751E-08  3.03061E-08  3.01467E-08  2.89676E-08  2.74529E-08  2.54025E-08  2.28237E-08  1.94810E-08  1.69116E-08  1.26969E-08
   9.54619E-09  5.10438E-09  1.18947E-09 -3.86541E-09 -6.80435E-09 -1.05073E-08 -1.30030E-08 -1.61108E-08 -1.70685E-08 -1.77911E-08
  -1.73470E-08 -1.64039E-08 -1.48654E-08 -1.24201E-08 -1.02246E-08 -9.14067E-09 -6.83777E-09 -5.78637E-09 -4.18173E-09 -4.20323E-09
  -3.01016E-09 -3.30732E-09 -2.49338E-09 -2.30771E-09 -2.22034E-09 -2.19066E-09 -1.47773E-09 -1.58815E-09 -1.42252E-09 -1.86834E-09
  -1.09504E-09 -1.60379E-09 -1.46658E-09 -1.74477E-09 -1.85350E-09 -2.04070E-09 -1.63577E-09 -1.85820E-09 -1.29002E-09 -1.04420E-09
  -4.28796E-10 -7.14235E-10 -8.85332E-10 -1.00327E-09 -1.21453E-09 -1.31935E-09 -1.24514E-09 -1.74472E-09 -1.49441E-09 -9.38471E-10
  -1.16329E-09 -1.09863E-09 -3.40673E-10 -2.99555E-10 -2.16766E-10 -3.57784E-10 -3.21298E-10 -4.05659E-10 -9.30719E-10 -6.52767E-10
  -8.64612E-10 -1.08659E-09 -1.30170E-09 -1.10600E-09 -9.88295E-10 -1.33048E-09 -1.19347E-09 -1.13063E-09 -1.04292E-09 -1.04024E-09
  -1.30036E-09 -1.10715E-09 -1.10210E-09 -6.85181E-10 -4.68048E-10 -5.34835E-10 -9.42892E-10 -5.57206E-10 -7.70992E-10 -7.62693E-11
  -4.94464E-10  1.14482E-10 -1.30316E-09 -2.57950E-10 -9.78450E-10 -3.80891E-10 -9.07338E-10 -3.48752E-10 -8.39354E-10  4.34494E-11
  -1.04379E-09  1.60150E-11 -1.01406E-09 -2.50139E-10 -8.94718E-10 -7.30544E-10 -1.17900E-09 -8.71291E-10 -8.90479E-10 -7.10988E-10
  -9.05361E-10 -1.22404E-09 -1.40958E-09 -7.36964E-10 -1.73315E-09 -1.37791E-09 -1.60894E-09 -1.41715E-09 -1.75418E-09 -1.20835E-09
  -1.70630E-09 -1.55390E-09 -2.02476E-09 -1.29776E-09 -1.84519E-09 -9.86155E-10 -2.22765E-09 -1.55014E-09 -1.91070E-09 -1.58057E-09
  -2.38606E-09 -1.61422E-09 -2.46174E-09 -1.86169E-09 -2.19249E-09 -1.78616E-09 -2.36014E-09 -2.19929E-09 -2.18858E-09 -2.10847E-09
  -2.35381E-09 -2.55131E-09 -2.24824E-09 -2.36470E-09 -2.12146E-09 -2.54779E-09 -2.61059E-09 -2.38004E-09 -2.51014E-09 -2.28994E-09
  -2.62312E-09 -2.75489E-09 -2.75305E-09
 NY points of the fit to the data follow
   1.14428E-08  1.14445E-08  1.14525E-08  1.14635E-08  1.14753E-08  1.14850E-08  1.14958E-08  1.15034E-08  1.15058E-08  1.15016E-08
   1.14873E-08  1.14664E-08  1.14408E-08  1.14125E-08  1.13900E-08  1.13759E-08  1.13873E-08  1.15121E-08  1.17762E-08  1.20239E-08
   1.21863E-08  1.22838E-08  1.23703E-08  1.25410E-08  1.27692E-08  1.29109E-08  1.28788E-08  1.26766E-08  1.23995E-08  1.22082E-08
   1.21336E-08  1.20417E-08  1.18766E-08  1.16254E-08  1.13489E-08  1.11796E-08  1.11165E-08  1.10788E-08  1.10505E-08  1.10268E-08
   1.10057E-08  1.09861E-08  1.09676E-08  1.09496E-08  1.09321E-08  1.09149E-08  1.08978E-08  1.08809E-08  1.08640E-08  1.08471E-08
   1.08301E-08  1.08131E-08  1.07960E-08  1.07788E-08  1.07614E-08  1.07439E-08  1.07263E-08  1.07085E-08  1.06906E-08  1.06725E-08
   1.06542E-08  1.06357E-08  1.06170E-08  1.05982E-08  1.05792E-08  1.05601E-08  1.05409E-08  1.05216E-08  1.05023E-08  1.04828E-08
   1.04634E-08  1.04438E-08  1.04243E-08  1.04048E-08  1.03854E-08  1.03659E-08  1.03466E-08  1.03273E-08  1.03081E-08  1.02891E-08
   1.02702E-08  1.02515E-08  1.02329E-08  1.02146E-08  1.01964E-08  1.01786E-08  1.01610E-08  1.01436E-08  1.01267E-08  1.01100E-08
   1.00938E-08  1.00780E-08  1.00626E-08  1.00479E-08  1.00338E-08  1.00205E-08  1.00084E-08  9.99804E-09  9.99098E-09  9.99260E-09
   1.00129E-08  1.00284E-08  1.00354E-08  1.00541E-08  1.00762E-08  1.00912E-08  1.00946E-08  1.00883E-08  1.00711E-08  1.00409E-08
   1.00036E-08  9.97025E-09  9.94692E-09  9.91176E-09  9.87661E-09  9.86112E-09  9.85268E-09  9.84764E-09  9.84475E-09  9.84354E-09
   9.84363E-09  9.84496E-09  9.84741E-09  9.85087E-09  9.85522E-09  9.86038E-09  9.86625E-09  9.87278E-09  9.87988E-09  9.88749E-09
   9.89553E-09  9.90395E-09  9.91267E-09  9.92164E-09  9.93078E-09  9.94005E-09  9.94936E-09  9.95866E-09  9.96790E-09  9.97700E-09
   9.98592E-09  9.99458E-09  1.00029E-08  1.00109E-08  1.00184E-08  1.00255E-08  1.00319E-08  1.00378E-08  1.00430E-08  1.00474E-08
   1.00511E-08  1.00539E-08  1.00557E-08  1.00567E-08  1.00565E-08  1.00553E-08  1.00530E-08  1.00495E-08  1.00448E-08  1.00388E-08
   1.00316E-08  1.00233E-08  1.00139E-08  1.00038E-08  9.99392E-09  9.98754E-09  1.00002E-08  1.00747E-08  1.01541E-08  1.02017E-08
   1.02166E-08  1.02138E-08  1.02024E-08  1.01785E-08  1.01373E-08  1.00638E-08  9.94586E-09  9.79372E-09  9.65386E-09  9.57874E-09
   9.51814E-09  9.46029E-09  9.40216E-09  9.34267E-09  9.28132E-09  9.21792E-09  9.15238E-09  9.08464E-09  9.01471E-09  8.94261E-09
   8.86834E-09  8.79199E-09  8.71356E-09  8.63312E-09  8.55072E-09  8.46640E-09  8.38022E-09  8.29225E-09  8.20253E-09  8.11113E-09
   8.01810E-09  7.92348E-09  7.82736E-09  7.72979E-09  7.63082E-09  7.53051E-09  7.42891E-09  7.32613E-09  7.22218E-09  7.11712E-09
   7.01103E-09  6.90396E-09  6.79599E-09  6.68716E-09  6.57752E-09  6.46714E-09  6.35610E-09  6.24444E-09  6.13222E-09  6.01951E-09
   5.90637E-09  5.79285E-09  5.67903E-09  5.56494E-09  5.45064E-09  5.33624E-09  5.22175E-09  5.10724E-09  4.99280E-09  4.87846E-09
   4.76429E-09  4.65035E-09  4.53670E-09  4.42340E-09  4.31051E-09  4.19810E-09  4.08621E-09  3.97492E-09  3.86427E-09  3.75435E-09
   3.64519E-09  3.53687E-09  3.42944E-09  3.32293E-09  3.21734E-09  3.11266E-09  3.00890E-09  2.90607E-09  2.80417E-09  2.70319E-09
   2.60314E-09  2.50402E-09  2.40583E-09  2.30858E-09  2.21226E-09  2.11689E-09  2.02245E-09  1.92896E-09  1.83641E-09  1.74480E-09
   1.65415E-09  1.56443E-09  1.47567E-09  1.38787E-09  1.30101E-09  1.21512E-09  1.13019E-09  1.04622E-09  9.63201E-10  8.81159E-10
   8.00066E-10  7.19962E-10  6.40807E-10  5.62642E-10  4.85438E-10  4.09216E-10  3.33968E-10  2.59701E-10  1.86409E-10  1.14112E-10
   4.28053E-11 -2.75533E-11 -9.68981E-11 -1.65247E-10 -2.32603E-10 -2.98985E-10 -3.64340E-10 -4.28706E-10 -4.92102E-10 -5.54471E-10
  -6.15848E-10 -6.76188E-10 -7.35554E-10 -7.93893E-10 -8.51235E-10 -9.07581E-10 -9.62895E-10 -1.01718E-09 -1.07044E-09 -1.12268E-09
  -1.17393E-09 -1.22418E-09 -1.27334E-09 -1.32150E-09 -1.36867E-09 -1.41487E-09 -1.46012E-09 -1.50443E-09 -1.54785E-09 -1.59038E-09
  -1.63205E-09 -1.67288E-09 -1.71291E-09 -1.75213E-09 -1.79060E-09 -1.82831E-09 -1.86531E-09 -1.90160E-09 -1.93722E-09 -1.97219E-09
  -2.00652E-09 -2.04025E-09 -2.07339E-09 -2.10597E-09 -2.13800E-09 -2.16953E-09 -2.20056E-09 -2.23111E-09 -2.26122E-09 -2.29091E-09
  -2.32019E-09 -2.34908E-09 -2.37763E-09 -2.40584E-09 -2.43373E-09 -2.46134E-09 -2.48869E-09 -2.51579E-09 -2.54267E-09 -2.56936E-09
  -2.59586E-09 -2.62223E-09 -2.64846E-09 -2.67458E-09 -2.70062E-09 -2.72660E-09 -2.75254E-09 -2.77847E-09 -2.80441E-09 -2.83038E-09
  -2.85640E-09 -2.88250E-09 -2.90870E-09 -2.93502E-09 -2.96149E-09 -2.98813E-09 -3.01495E-09 -3.04199E-09 -3.06927E-09 -3.09680E-09
  -3.12462E-09 -3.15274E-09 -3.18119E-09
 NY background values follow
     1.138E-08    1.137E-08    1.136E-08    1.135E-08    1.134E-08    1.133E-08    1.132E-08    1.131E-08    1.130E-08    1.129E-08
     1.129E-08    1.128E-08    1.127E-08    1.126E-08    1.125E-08    1.124E-08    1.123E-08    1.121E-08    1.120E-08    1.119E-08
     1.118E-08    1.117E-08    1.116E-08    1.115E-08    1.114E-08    1.113E-08    1.112E-08    1.110E-08    1.109E-08    1.108E-08
     1.107E-08    1.106E-08    1.104E-08    1.103E-08    1.102E-08    1.100E-08    1.099E-08    1.098E-08    1.096E-08    1.095E-08
     1.094E-08    1.092E-08    1.091E-08    1.089E-08    1.088E-08    1.086E-08    1.085E-08    1.083E-08    1.082E-08    1.080E-08
     1.079E-08    1.077E-08    1.076E-08    1.074E-08    1.072E-08    1.071E-08    1.069E-08    1.067E-08    1.065E-08    1.064E-08
     1.062E-08    1.060E-08    1.058E-08    1.056E-08    1.055E-08    1.053E-08    1.051E-08    1.049E-08    1.047E-08    1.045E-08
     1.043E-08    1.041E-08    1.039E-08    1.037E-08    1.035E-08    1.034E-08    1.032E-08    1.030E-08    1.028E-08    1.026E-08
     1.024E-08    1.022E-08    1.020E-08    1.019E-08    1.017E-08    1.015E-08    1.013E-08    1.011E-08    1.010E-08    1.008E-08
     1.006E-08    1.005E-08    1.003E-08    1.002E-08    1.000E-08    9.987E-09    9.973E-09    9.959E-09    9.946E-09    9.933E-09
     9.921E-09    9.909E-09    9.898E-09    9.887E-09    9.877E-09    9.867E-09    9.858E-09    9.850E-09    9.842E-09    9.836E-09
     9.829E-09    9.824E-09    9.819E-09    9.815E-09    9.811E-09    9.809E-09    9.807E-09    9.806E-09    9.806E-09    9.807E-09
     9.809E-09    9.811E-09    9.815E-09    9.819E-09    9.824E-09    9.830E-09    9.836E-09    9.843E-09    9.851E-09    9.859E-09
     9.867E-09    9.876E-09    9.885E-09    9.894E-09    9.903E-09    9.913E-09    9.922E-09    9.932E-09    9.941E-09    9.950E-09
     9.959E-09    9.968E-09    9.977E-09    9.985E-09    9.992E-09    1.000E-08    1.001E-08    1.001E-08    1.002E-08    1.002E-08
     1.003E-08    1.003E-08    1.003E-08    1.003E-08    1.003E-08    1.003E-08    1.003E-08    1.002E-08    1.002E-08    1.001E-08
     1.001E-08    9.996E-09    9.986E-09    9.973E-09    9.960E-09    9.944E-09    9.927E-09    9.907E-09    9.886E-09    9.863E-09
     9.838E-09    9.811E-09    9.782E-09    9.750E-09    9.717E-09    9.681E-09    9.642E-09    9.601E-09    9.558E-09    9.512E-09
     9.464E-09    9.412E-09    9.358E-09    9.302E-09    9.243E-09    9.181E-09    9.117E-09    9.050E-09    8.981E-09    8.910E-09
     8.836E-09    8.760E-09    8.682E-09    8.602E-09    8.520E-09    8.436E-09    8.350E-09    8.262E-09    8.173E-09    8.082E-09
     7.989E-09    7.895E-09    7.799E-09    7.701E-09    7.602E-09    7.502E-09    7.401E-09    7.298E-09    7.194E-09    7.089E-09
     6.983E-09    6.876E-09    6.768E-09    6.660E-09    6.550E-09    6.440E-09    6.329E-09    6.217E-09    6.105E-09    5.993E-09
     5.880E-09    5.766E-09    5.652E-09    5.538E-09    5.424E-09    5.310E-09    5.195E-09    5.081E-09    4.966E-09    4.852E-09
     4.738E-09    4.624E-09    4.511E-09    4.397E-09    4.284E-09    4.172E-09    4.060E-09    3.949E-09    3.838E-09    3.728E-09
     3.619E-09    3.511E-09    3.404E-09    3.297E-09    3.192E-09    3.087E-09    2.983E-09    2.880E-09    2.779E-09    2.678E-09
     2.578E-09    2.479E-09    2.380E-09    2.283E-09    2.187E-09    2.092E-09    1.997E-09    1.904E-09    1.811E-09    1.720E-09
     1.629E-09    1.539E-09    1.450E-09    1.363E-09    1.276E-09    1.190E-09    1.105E-09    1.021E-09    9.382E-10    8.562E-10
     7.751E-10    6.950E-10    6.159E-10    5.377E-10    4.606E-10    3.844E-10    3.091E-10    2.349E-10    1.616E-10    8.935E-11
     1.807E-11   -5.227E-11   -1.216E-10   -1.899E-10   -2.573E-10   -3.236E-10   -3.889E-10   -4.533E-10   -5.167E-10   -5.790E-10
    -6.404E-10   -7.007E-10   -7.600E-10   -8.184E-10   -8.757E-10   -9.320E-10   -9.873E-10   -1.042E-09   -1.095E-09   -1.147E-09
    -1.198E-09   -1.248E-09   -1.298E-09   -1.346E-09   -1.393E-09   -1.439E-09   -1.484E-09   -1.529E-09   -1.572E-09   -1.615E-09
    -1.656E-09   -1.697E-09   -1.737E-09   -1.776E-09   -1.815E-09   -1.852E-09   -1.889E-09   -1.926E-09   -1.961E-09   -1.996E-09
    -2.030E-09   -2.064E-09   -2.097E-09   -2.130E-09   -2.162E-09   -2.193E-09   -2.224E-09   -2.255E-09   -2.285E-09   -2.315E-09
    -2.344E-09   -2.373E-09   -2.401E-09   -2.430E-09   -2.457E-09   -2.485E-09   -2.512E-09   -2.539E-09   -2.566E-09   -2.593E-09
    -2.619E-09   -2.646E-09   -2.672E-09   -2.698E-09   -2.724E-09   -2.750E-09   -2.776E-09   -2.802E-09   -2.828E-09   -2.854E-09
    -2.880E-09   -2.906E-09   -2.932E-09   -2.958E-09   -2.985E-09   -3.011E-09   -3.038E-09   -3.065E-09   -3.093E-09   -3.120E-09
    -3.148E-09   -3.176E-09   -3.204E-09
 Ala      Conc. = 4.66E-11
   1.14084E-08  1.14037E-08  1.13971E-08  1.13893E-08  1.13810E-08  1.13715E-08  1.13602E-08  1.13469E-08  1.13344E-08  1.13224E-08
   1.13075E-08  1.12934E-08  1.12815E-08  1.12688E-08  1.12562E-08  1.12444E-08  1.12331E-08  1.12219E-08  1.12108E-08  1.11997E-08
   1.11886E-08  1.11774E-08  1.11661E-08  1.11547E-08  1.11432E-08  1.11316E-08  1.11198E-08  1.11079E-08  1.10959E-08  1.10838E-08
   1.10715E-08  1.10591E-08  1.10465E-08  1.10337E-08  1.10208E-08  1.10078E-08  1.09946E-08  1.09812E-08  1.09676E-08  1.09539E-08
   1.09400E-08  1.09259E-08  1.09117E-08  1.08973E-08  1.08826E-08  1.08679E-08  1.08529E-08  1.08377E-08  1.08224E-08  1.08068E-08
   1.07911E-08  1.07751E-08  1.07590E-08  1.07426E-08  1.07261E-08  1.07093E-08  1.06923E-08  1.06752E-08  1.06578E-08  1.06402E-08
   1.06224E-08  1.06043E-08  1.05861E-08  1.05676E-08  1.05490E-08  1.05303E-08  1.05114E-08  1.04924E-08  1.04733E-08  1.04541E-08
   1.04349E-08  1.04156E-08  1.03963E-08  1.03771E-08  1.03578E-08  1.03386E-08  1.03194E-08  1.03003E-08  1.02813E-08  1.02624E-08
   1.02437E-08  1.02251E-08  1.02067E-08  1.01885E-08  1.01705E-08  1.01527E-08  1.01353E-08  1.01181E-08  1.01012E-08  1.00847E-08
   1.00685E-08  1.00528E-08  1.00376E-08  1.00229E-08  1.00089E-08  9.99577E-09  9.98375E-09  9.97348E-09  9.96650E-09  9.96821E-09
   9.98859E-09  1.00042E-08  1.00113E-08  1.00301E-08  1.00522E-08  1.00672E-08  1.00707E-08  1.00645E-08  1.00474E-08  1.00173E-08
   9.97999E-09  9.94674E-09  9.92347E-09  9.88837E-09  9.85328E-09  9.83785E-09  9.82948E-09  9.82450E-09  9.82167E-09  9.82052E-09
   9.82066E-09  9.82205E-09  9.82455E-09  9.82807E-09  9.83248E-09  9.83769E-09  9.84362E-09  9.85020E-09  9.85735E-09  9.86501E-09
   9.87311E-09  9.88159E-09  9.89036E-09  9.89938E-09  9.90857E-09  9.91789E-09  9.92726E-09  9.93661E-09  9.94590E-09  9.95506E-09
   9.96403E-09  9.97274E-09  9.98113E-09  9.98917E-09  9.99675E-09  1.00038E-08  1.00103E-08  1.00163E-08  1.00215E-08  1.00259E-08
   1.00296E-08  1.00324E-08  1.00343E-08  1.00353E-08  1.00352E-08  1.00339E-08  1.00315E-08  1.00280E-08  1.00231E-08  1.00169E-08
   1.00093E-08  1.00004E-08  9.99002E-09  9.97828E-09  9.96533E-09  9.95187E-09  9.94152E-09  9.94429E-09  9.94677E-09  9.94030E-09
   9.92461E-09  9.90319E-09  9.87812E-09  9.84841E-09  9.81292E-09  9.76812E-09  9.71106E-09  9.64409E-09  9.57808E-09  9.52530E-09
   9.47395E-09  9.42118E-09  9.36627E-09  9.30901E-09  9.24929E-09  9.18715E-09  9.12259E-09  9.05565E-09  8.98638E-09  8.91483E-09
   8.84104E-09  8.76509E-09  8.68701E-09  8.60689E-09  8.52477E-09  8.44069E-09  8.35474E-09  8.26697E-09  8.17743E-09  8.08620E-09
   7.99332E-09  7.89885E-09  7.80286E-09  7.70541E-09  7.60655E-09  7.50635E-09  7.40486E-09  7.30217E-09  7.19830E-09  7.09333E-09
   6.98731E-09  6.88033E-09  6.77242E-09  6.66366E-09  6.55408E-09  6.44377E-09  6.33279E-09  6.22119E-09  6.10902E-09  5.99636E-09
   5.88327E-09  5.76981E-09  5.65603E-09  5.54198E-09  5.42773E-09  5.31338E-09  5.19893E-09  5.08446E-09  4.97005E-09  4.85576E-09
   4.74162E-09  4.62772E-09  4.51411E-09  4.40083E-09  4.28798E-09  4.17560E-09  4.06375E-09  3.95248E-09  3.84187E-09  3.73198E-09
   3.62284E-09  3.51455E-09  3.40715E-09  3.30067E-09  3.19510E-09  3.09045E-09  2.98672E-09  2.88391E-09  2.78203E-09  2.68108E-09
   2.58106E-09  2.48196E-09  2.38380E-09  2.28657E-09  2.19027E-09  2.09493E-09  2.00051E-09  1.90703E-09  1.81451E-09  1.72292E-09
   1.63229E-09  1.54260E-09  1.45386E-09  1.36608E-09  1.27924E-09  1.19336E-09  1.10846E-09  1.02450E-09  9.41504E-10  8.59482E-10
   7.78408E-10  6.98322E-10  6.19186E-10  5.41040E-10  4.63854E-10  3.87650E-10  3.12420E-10  2.38172E-10  1.64897E-10  9.26181E-11
   2.13286E-11 -4.90125E-11 -1.18340E-10 -1.86672E-10 -2.54011E-10 -3.20376E-10 -3.85713E-10 -4.50063E-10 -5.13442E-10 -5.75795E-10
  -6.37155E-10 -6.97480E-10 -7.56829E-10 -8.15151E-10 -8.72477E-10 -9.28807E-10 -9.84105E-10 -1.03837E-09 -1.09162E-09 -1.14385E-09
  -1.19508E-09 -1.24531E-09 -1.29445E-09 -1.34260E-09 -1.38976E-09 -1.43594E-09 -1.48117E-09 -1.52547E-09 -1.56887E-09 -1.61139E-09
  -1.65304E-09 -1.69386E-09 -1.73387E-09 -1.77308E-09 -1.81153E-09 -1.84923E-09 -1.88621E-09 -1.92249E-09 -1.95810E-09 -1.99304E-09
  -2.02736E-09 -2.06108E-09 -2.09420E-09 -2.12676E-09 -2.15878E-09 -2.19029E-09 -2.22131E-09 -2.25185E-09 -2.28194E-09 -2.31162E-09
  -2.34088E-09 -2.36976E-09 -2.39829E-09 -2.42649E-09 -2.45437E-09 -2.48196E-09 -2.50930E-09 -2.53638E-09 -2.56325E-09 -2.58992E-09
  -2.61641E-09 -2.64276E-09 -2.66897E-09 -2.69508E-09 -2.72111E-09 -2.74707E-09 -2.77300E-09 -2.79892E-09 -2.82484E-09 -2.85080E-09
  -2.87680E-09 -2.90289E-09 -2.92907E-09 -2.95537E-09 -2.98183E-09 -3.00845E-09 -3.03526E-09 -3.06228E-09 -3.08955E-09 -3.11706E-09
  -3.14487E-09 -3.17297E-09 -3.20141E-09
 PCh      Conc. = 5.42E-11
   1.14021E-08  1.13997E-08  1.14055E-08  1.14152E-08  1.14261E-08  1.14359E-08  1.14484E-08  1.14594E-08  1.14640E-08  1.14612E-08
   1.14505E-08  1.14316E-08  1.14046E-08  1.13735E-08  1.13444E-08  1.13144E-08  1.12853E-08  1.12598E-08  1.12440E-08  1.12341E-08
   1.12291E-08  1.12326E-08  1.12592E-08  1.13918E-08  1.16150E-08  1.18082E-08  1.19256E-08  1.19862E-08  1.20212E-08  1.20367E-08
   1.20236E-08  1.19595E-08  1.18103E-08  1.15693E-08  1.12999E-08  1.11359E-08  1.10768E-08  1.10422E-08  1.10165E-08  1.09949E-08
   1.09755E-08  1.09575E-08  1.09401E-08  1.09233E-08  1.09068E-08  1.08904E-08  1.08741E-08  1.08578E-08  1.08415E-08  1.08251E-08
   1.08087E-08  1.07921E-08  1.07754E-08  1.07585E-08  1.07415E-08  1.07244E-08  1.07070E-08  1.06895E-08  1.06718E-08  1.06540E-08
   1.06359E-08  1.06176E-08  1.05992E-08  1.05805E-08  1.05617E-08  1.05428E-08  1.05237E-08  1.05046E-08  1.04853E-08  1.04660E-08
   1.04466E-08  1.04273E-08  1.04078E-08  1.03884E-08  1.03690E-08  1.03497E-08  1.03304E-08  1.03112E-08  1.02921E-08  1.02731E-08
   1.02542E-08  1.02355E-08  1.02169E-08  1.01986E-08  1.01804E-08  1.01625E-08  1.01448E-08  1.01274E-08  1.01102E-08  1.00934E-08
   1.00768E-08  1.00606E-08  1.00448E-08  1.00293E-08  1.00142E-08  9.99955E-09  9.98531E-09  9.97151E-09  9.95818E-09  9.94535E-09
   9.93300E-09  9.92118E-09  9.90991E-09  9.89918E-09  9.88904E-09  9.87950E-09  9.87055E-09  9.86226E-09  9.85463E-09  9.84765E-09
   9.84137E-09  9.83578E-09  9.83094E-09  9.82682E-09  9.82348E-09  9.82092E-09  9.81917E-09  9.81824E-09  9.81814E-09  9.81895E-09
   9.82056E-09  9.82308E-09  9.82649E-09  9.83074E-09  9.83574E-09  9.84146E-09  9.84781E-09  9.85475E-09  9.86222E-09  9.87015E-09
   9.87848E-09  9.88717E-09  9.89612E-09  9.90531E-09  9.91465E-09  9.92409E-09  9.93357E-09  9.94303E-09  9.95242E-09  9.96166E-09
   9.97071E-09  9.97949E-09  9.98795E-09  9.99605E-09  1.00037E-08  1.00108E-08  1.00174E-08  1.00233E-08  1.00286E-08  1.00331E-08
   1.00368E-08  1.00397E-08  1.00416E-08  1.00426E-08  1.00425E-08  1.00413E-08  1.00389E-08  1.00353E-08  1.00305E-08  1.00244E-08
   1.00168E-08  1.00079E-08  9.99762E-09  9.98598E-09  9.97320E-09  9.96011E-09  9.95088E-09  9.95723E-09  9.96358E-09  9.95984E-09
   9.94571E-09  9.92524E-09  9.90086E-09  9.87145E-09  9.83570E-09  9.78949E-09  9.72942E-09  9.65820E-09  9.58846E-09  9.53454E-09
   9.48273E-09  9.42972E-09  9.37465E-09  9.31728E-09  9.25749E-09  9.19528E-09  9.13068E-09  9.06370E-09  8.99440E-09  8.92283E-09
   8.84902E-09  8.77306E-09  8.69496E-09  8.61483E-09  8.53270E-09  8.44861E-09  8.36265E-09  8.27487E-09  8.18532E-09  8.09408E-09
   8.00120E-09  7.90673E-09  7.81073E-09  7.71327E-09  7.61441E-09  7.51420E-09  7.41271E-09  7.31001E-09  7.20615E-09  7.10117E-09
   6.99515E-09  6.88816E-09  6.78025E-09  6.67148E-09  6.56191E-09  6.45159E-09  6.34061E-09  6.22900E-09  6.11683E-09  6.00417E-09
   5.89108E-09  5.77761E-09  5.66383E-09  5.54978E-09  5.43553E-09  5.32117E-09  5.20672E-09  5.09224E-09  4.97784E-09  4.86354E-09
