 LCModel (Version 6.3-1R) Copyright: S.W. Provencher.          Ref.: Magn. Reson. Med. 30:672-679 (1993).                
 onepulse 29x26_ftSpec_smooth_lcm
 26 lines in following concentration table = NCONC+1
    Conc.  %SD /Cr+PCr  Metabolite                                         
 3.30E-10  68%   3.135 Ala                                                 
 9.95E-10  57%   9.462 Asp                                                 
 1.05E-10 225%   1.000 Cr                                                  
 1.61E-09  27%  15.291 GABA                                                
 1.46E-09  29%  13.852 Glc                                                 
    0.000 999%   0.000 Gln                                                 
    0.000 999%   0.000 Glu                                                 
    0.000 999%   0.000 Glyc                                                
 1.28E-10  51%   1.214 GPC                                                 
 8.70E-11 326%   0.827 GSH                                                 
 3.31E-10  79%   3.148 Ins                                                 
    0.000 999%   0.000 Lac                                                 
    0.000 999%   0.000 NAAG                                                
 6.89E-10  25%   6.550 NAA                                                 
    0.000 999%   0.000 PCh                                                 
    0.000 999%   0.000 PCr                                                 
    0.000 999%   0.000 PE                                                  
    0.000 999%   0.000 Scyllo                                              
 6.08E-11 999%   0.578 Ser                                                 
    0.000 999%   0.000 Tau                                                 
 1.28E-10  51%   1.214 GPC+PCh                                             
 6.89E-10  25%   6.550 NAA+NAAG                                            
 3.31E-10  79%   3.148 Ins+Glyc                                            
 1.05E-10 225%   1.000 Cr+PCr                                              
    0.000 999%   0.000 Glu+Gln                                             
   6 lines in following misc. output table
  FWHM = 0.101 ppm    S/N =   3                                            
  Data shift = 0.347 ppm                                                   
  Ph:  45 deg      24.6 deg/ppm                                            
  alphaB,S = 1.4E-01,   6.6E+01                                            
   16 spline knots.   Ns = 5(1)                                            
  (12) 2 infls.   ( 7) 1 extrs.                                            
  363 points on ppm-axis = NY
      4.250000     4.238821     4.227641     4.216462     4.205282     4.194103     4.182923     4.171744     4.160564     4.149385
      4.138206     4.127026     4.115847     4.104667     4.093488     4.082308     4.071129     4.059949     4.048770     4.037591
      4.026411     4.015232     4.004052     3.992873     3.981693     3.970514     3.959334     3.948155     3.936975     3.925796
      3.914617     3.903437     3.892258     3.881078     3.869899     3.858719     3.847540     3.836360     3.825181     3.814002
      3.802822     3.791643     3.780463     3.769284     3.758104     3.746925     3.735745     3.724566     3.713387     3.702207
      3.691028     3.679848     3.668669     3.657489     3.646310     3.635130     3.623951     3.612772     3.601592     3.590413
      3.579233     3.568054     3.556874     3.545695     3.534515     3.523336     3.512156     3.500977     3.489798     3.478618
      3.467439     3.456259     3.445080     3.433900     3.422721     3.411541     3.400362     3.389183     3.378003     3.366824
      3.355644     3.344465     3.333285     3.322106     3.310926     3.299747     3.288568     3.277388     3.266209     3.255029
      3.243850     3.232670     3.221491     3.210311     3.199132     3.187953     3.176773     3.165594     3.154414     3.143235
      3.132055     3.120876     3.109696     3.098517     3.087337     3.076158     3.064979     3.053799     3.042620     3.031440
      3.020261     3.009081     2.997902     2.986722     2.975543     2.964364     2.953184     2.942005     2.930825     2.919646
      2.908466     2.897287     2.886107     2.874928     2.863749     2.852569     2.841390     2.830210     2.819031     2.807851
      2.796672     2.785492     2.774313     2.763134     2.751954     2.740775     2.729595     2.718416     2.707236     2.696057
      2.684877     2.673698     2.662519     2.651339     2.640160     2.628980     2.617801     2.606621     2.595442     2.584262
      2.573083     2.561903     2.550724     2.539545     2.528365     2.517186     2.506006     2.494827     2.483647     2.472468
      2.461288     2.450109     2.438930     2.427750     2.416571     2.405391     2.394212     2.383032     2.371853     2.360673
      2.349494     2.338315     2.327135     2.315956     2.304776     2.293597     2.282417     2.271238     2.260058     2.248879
      2.237700     2.226520     2.215341     2.204161     2.192982     2.181802     2.170623     2.159443     2.148264     2.137084
      2.125905     2.114726     2.103546     2.092367     2.081187     2.070008     2.058828     2.047649     2.036469     2.025290
      2.014111     2.002931     1.991752     1.980572     1.969393     1.958213     1.947034     1.935854     1.924675     1.913496
      1.902316     1.891137     1.879957     1.868778     1.857598     1.846419     1.835239     1.824060     1.812881     1.801701
      1.790522     1.779342     1.768163     1.756983     1.745804     1.734624     1.723445     1.712265     1.701086     1.689907
      1.678727     1.667548     1.656368     1.645189     1.634009     1.622830     1.611650     1.600471     1.589292     1.578112
      1.566933     1.555753     1.544574     1.533394     1.522215     1.511035     1.499856     1.488677     1.477497     1.466318
      1.455138     1.443959     1.432779     1.421600     1.410420     1.399241     1.388062     1.376882     1.365703     1.354523
      1.343344     1.332164     1.320985     1.309805     1.298626     1.287446     1.276267     1.265088     1.253908     1.242729
      1.231549     1.220370     1.209190     1.198011     1.186831     1.175652     1.164473     1.153293     1.142114     1.130934
      1.119755     1.108575     1.097396     1.086216     1.075037     1.063858     1.052678     1.041499     1.030319     1.019140
      1.007960     0.996781     0.985601     0.974422     0.963243     0.952063     0.940884     0.929704     0.918525     0.907345
      0.896166     0.884986     0.873807     0.862628     0.851448     0.840269     0.829089     0.817910     0.806730     0.795551
      0.784371     0.773192     0.762012     0.750833     0.739654     0.728474     0.717295     0.706115     0.694936     0.683756
      0.672577     0.661397     0.650218     0.639039     0.627859     0.616680     0.605500     0.594321     0.583141     0.571962
      0.560782     0.549603     0.538424     0.527244     0.516065     0.504885     0.493706     0.482526     0.471347     0.460167
      0.448988     0.437809     0.426629     0.415450     0.404270     0.393091     0.381911     0.370732     0.359552     0.348373
      0.337193     0.326014     0.314835     0.303655     0.292476     0.281296     0.270117     0.258937     0.247758     0.236578
      0.225399     0.214220     0.203040
 NY phased data points follow
   1.07496E-08  1.17972E-08  1.27018E-08  1.25918E-08  1.16724E-08  1.12584E-08  1.04593E-08  1.00310E-08  1.00960E-08  1.01243E-08
   9.89339E-09  1.01906E-08  9.96565E-09  9.93084E-09  1.03887E-08  1.03847E-08  1.04293E-08  1.03377E-08  1.06081E-08  1.06522E-08
   1.01135E-08  9.50969E-09  9.61812E-09  9.25262E-09  9.50083E-09  9.27676E-09  1.01944E-08  9.42955E-09  9.27463E-09  9.18260E-09
   8.68923E-09  8.98028E-09  9.86766E-09  1.02440E-08  1.03952E-08  9.88369E-09  1.02578E-08  9.03594E-09  8.72185E-09  8.04859E-09
   8.10253E-09  7.90844E-09  8.15656E-09  7.37954E-09  7.42193E-09  6.80514E-09  6.95120E-09  6.11924E-09  6.37491E-09  6.02600E-09
   6.34632E-09  5.87414E-09  6.44369E-09  5.96697E-09  6.14360E-09  5.60133E-09  5.64421E-09  5.68559E-09  5.80962E-09  5.95188E-09
   6.01448E-09  6.12215E-09  6.16889E-09  6.83576E-09  7.74416E-09  8.19483E-09  7.80407E-09  7.54348E-09  6.60426E-09  6.46436E-09
   5.85095E-09  5.61041E-09  4.48449E-09  5.30334E-09  5.03163E-09  4.97348E-09  4.89221E-09  5.13080E-09  5.26866E-09  7.08896E-09
   8.39851E-09  9.65622E-09  9.99255E-09  9.59198E-09  8.77484E-09  8.34558E-09  7.80926E-09  7.57069E-09  7.32995E-09  7.26045E-09
   7.32025E-09  6.85712E-09  6.80807E-09  6.58791E-09  6.37102E-09  6.64024E-09  5.93110E-09  5.87642E-09  5.99593E-09  5.69889E-09
   5.77091E-09  5.52327E-09  5.75832E-09  5.67655E-09  5.85798E-09  5.63016E-09  5.42502E-09  5.41222E-09  5.59992E-09  4.82851E-09
   4.63199E-09  4.36144E-09  4.09043E-09  4.77213E-09  4.84508E-09  4.89285E-09  4.26035E-09  4.48297E-09  4.45527E-09  4.26388E-09
   4.33122E-09  3.79664E-09  3.84399E-09  3.30833E-09  3.01928E-09  2.17072E-09  2.78583E-09  2.16521E-09  2.53543E-09  2.62478E-09
   2.51877E-09  2.77655E-09  3.05533E-09  2.85459E-09  3.37411E-09  3.28421E-09  3.25244E-09  3.38645E-09  3.94561E-09  4.11685E-09
   4.63495E-09  5.17302E-09  5.55763E-09  5.33575E-09  4.79867E-09  5.33640E-09  5.63297E-09  5.62212E-09  5.59106E-09  5.71074E-09
   5.44359E-09  6.02181E-09  5.83635E-09  6.22804E-09  6.17691E-09  6.87671E-09  7.16902E-09  7.28685E-09  7.57681E-09  7.66579E-09
   8.64238E-09  8.82644E-09  9.18084E-09  9.22365E-09  9.55618E-09  9.64914E-09  1.00781E-08  1.04243E-08  1.05518E-08  1.11880E-08
   1.27548E-08  1.44587E-08  1.46359E-08  1.47065E-08  1.26906E-08  1.14761E-08  1.02374E-08  9.14707E-09  8.54053E-09  7.72670E-09
   7.14296E-09  6.81654E-09  5.90039E-09  5.79132E-09  4.52019E-09  4.19936E-09  3.74231E-09  2.82289E-09  2.46489E-09  1.82465E-09
   1.32443E-09  1.07581E-10 -7.19539E-10 -1.12106E-09 -1.88232E-09 -3.22182E-09 -3.87901E-09 -5.26607E-09 -6.20617E-09 -7.08737E-09
  -7.41288E-09 -7.74637E-09 -7.42808E-09 -6.85981E-09 -6.15628E-09 -5.85209E-09 -5.06140E-09 -5.25598E-09 -5.74465E-09 -6.45994E-09
  -6.99712E-09 -8.17370E-09 -1.00615E-08 -1.20808E-08 -1.36540E-08 -1.45228E-08 -1.46911E-08 -1.38723E-08 -1.18966E-08 -9.93482E-09
  -6.67908E-09 -4.92814E-09 -2.39492E-09 -1.47860E-09 -1.08058E-09 -2.20190E-09 -3.04866E-09 -3.52041E-09 -3.46887E-09 -2.93100E-09
  -1.82243E-09 -1.39719E-09 -6.74585E-10 -1.01961E-09 -1.90807E-09 -2.57036E-09 -2.87786E-09 -2.59343E-09 -2.93334E-09 -2.34904E-09
  -2.02282E-09 -1.32343E-09 -5.60624E-10 -7.16133E-10 -3.69577E-10 -1.31108E-10 -7.23850E-10 -7.25866E-10 -1.03599E-09 -6.74002E-10
  -5.59798E-10 -4.78345E-10  4.98035E-10  5.75470E-10  8.74638E-10  1.51886E-09  1.24880E-09  1.37369E-09  1.61866E-09  1.33194E-09
   1.14755E-09  9.60960E-10  5.84960E-10  3.10877E-10  1.16125E-10  5.01179E-10  2.54100E-10  2.96431E-10  1.88535E-10  5.94471E-11
   8.62364E-11  5.38210E-11  3.20364E-10  4.76244E-10  2.22559E-10  1.46947E-10  3.17548E-10  3.40788E-10  1.29878E-10  3.89811E-10
   2.64257E-10 -1.88091E-10 -4.42554E-10 -3.53050E-11 -1.67771E-10 -4.61000E-11 -6.32235E-10 -4.96272E-10 -7.29630E-10 -4.94491E-10
  -4.23782E-10 -6.35382E-10 -4.31967E-10 -8.38366E-10 -7.03642E-10 -6.39040E-10 -8.94299E-10 -1.15516E-09 -4.39724E-10 -1.14672E-09
  -7.55896E-10 -1.07073E-09 -6.01393E-10 -2.87238E-10 -3.11594E-10 -5.89266E-10 -5.06871E-10 -6.57861E-10 -7.33045E-10 -3.71387E-10
  -8.32801E-11 -3.41973E-10 -4.42651E-10  2.69832E-10 -3.29113E-10  5.26704E-13  1.60686E-10 -1.85933E-11  1.23016E-10  2.27916E-10
   1.20789E-10  3.00075E-10  9.38244E-11  3.31312E-10  1.40597E-10  4.60374E-10 -4.51277E-11  6.28817E-10  4.90088E-10  6.97713E-10
   2.69795E-10  5.37356E-10  4.62907E-10  6.20229E-10  5.99387E-10  7.11578E-10  7.89142E-10  5.26640E-10  5.75468E-10  9.02491E-10
   5.82538E-10  8.20880E-10  1.10916E-09  1.20965E-09  6.95195E-10  1.10267E-09  9.37489E-10  1.21344E-09  1.30489E-09  9.01813E-10
   9.89664E-10  1.18329E-09  1.35080E-09  1.16044E-09  1.21233E-09  1.33573E-09  1.08477E-09  1.15566E-09  1.33956E-09  1.15819E-09
   1.24712E-09  1.29475E-09  1.44804E-09
 NY points of the fit to the data follow
   1.17232E-08  1.17692E-08  1.16812E-08  1.15189E-08  1.13787E-08  1.11905E-08  1.08385E-08  1.04636E-08  1.01851E-08  9.89955E-09
   9.76199E-09  9.74062E-09  9.78297E-09  9.92603E-09  1.01751E-08  1.04728E-08  1.07536E-08  1.09427E-08  1.08839E-08  1.06279E-08
   1.03741E-08  1.00666E-08  9.67042E-09  9.46360E-09  9.32545E-09  9.12932E-09  9.04492E-09  9.16986E-09  9.37907E-09  9.63397E-09
   9.65397E-09  9.60827E-09  9.77352E-09  9.71565E-09  9.40600E-09  9.41373E-09  9.57383E-09  9.56193E-09  9.32418E-09  8.90690E-09
   8.41613E-09  7.91937E-09  7.22285E-09  6.65146E-09  6.57386E-09  6.50148E-09  6.30225E-09  6.20362E-09  6.26855E-09  6.35903E-09
   6.45139E-09  6.49684E-09  6.45532E-09  6.27799E-09  6.04145E-09  5.83318E-09  5.78991E-09  5.81782E-09  5.78226E-09  5.69092E-09
   5.71273E-09  5.89319E-09  6.16559E-09  6.43270E-09  6.90798E-09  7.36163E-09  7.56554E-09  7.66037E-09  7.69688E-09  7.60515E-09
   7.36907E-09  6.95851E-09  6.47628E-09  6.08915E-09  5.68547E-09  5.26124E-09  5.29951E-09  6.06085E-09  6.84784E-09  7.58863E-09
   8.23061E-09  8.65550E-09  8.95640E-09  9.12084E-09  8.99803E-09  8.69674E-09  8.21718E-09  7.41657E-09  6.55673E-09  6.30674E-09
   6.21017E-09  6.15895E-09  6.03976E-09  5.76810E-09  5.56116E-09  5.42209E-09  5.16567E-09  4.95990E-09  4.88534E-09  4.88046E-09
   4.97618E-09  5.06694E-09  5.18960E-09  5.38694E-09  5.56154E-09  5.67039E-09  5.71255E-09  5.68905E-09  5.58949E-09  5.40507E-09
   5.16874E-09  4.97902E-09  4.85266E-09  4.66020E-09  4.50171E-09  4.45424E-09  4.44189E-09  4.44493E-09  4.45644E-09  4.47326E-09
   4.49376E-09  4.51695E-09  4.54219E-09  4.56902E-09  4.59712E-09  4.62624E-09  4.65618E-09  4.68677E-09  4.71788E-09  4.74937E-09
   4.78113E-09  4.81305E-09  4.84506E-09  4.87704E-09  4.90894E-09  4.94065E-09  4.97211E-09  5.00324E-09  5.03399E-09  5.06427E-09
   5.09400E-09  5.12293E-09  5.15068E-09  5.17687E-09  5.20117E-09  5.22322E-09  5.24268E-09  5.25923E-09  5.27254E-09  5.28230E-09
   5.28823E-09  5.29008E-09  5.28763E-09  5.28069E-09  5.26918E-09  5.25307E-09  5.23249E-09  5.20778E-09  5.17960E-09  5.14913E-09
   5.11844E-09  5.09126E-09  5.07456E-09  5.08257E-09  5.14908E-09  5.37652E-09  6.23395E-09  8.42357E-09  1.08238E-08  1.27729E-08
   1.41947E-08  1.50590E-08  1.52715E-08  1.48117E-08  1.37466E-08  1.21013E-08  9.74412E-09  6.71916E-09  3.97057E-09  2.77869E-09
   2.21422E-09  1.81720E-09  1.48546E-09  1.18556E-09  9.03611E-10  6.32936E-10  3.70146E-10  1.13460E-10 -1.37988E-10 -3.84582E-10
  -6.26378E-10 -8.63228E-10 -1.09484E-09 -1.32082E-09 -1.54074E-09 -1.75412E-09 -1.96052E-09 -2.15982E-09 -2.35193E-09 -2.53676E-09
  -2.71418E-09 -2.88408E-09 -3.04633E-09 -3.20079E-09 -3.34733E-09 -3.48581E-09 -3.61609E-09 -3.73802E-09 -3.85144E-09 -3.95621E-09
  -4.05219E-09 -4.13920E-09 -4.21710E-09 -4.28576E-09 -4.34499E-09 -4.39465E-09 -4.43459E-09 -4.46463E-09 -4.48463E-09 -4.49443E-09
  -4.49388E-09 -4.48280E-09 -4.46106E-09 -4.42849E-09 -4.38516E-09 -4.33162E-09 -4.26845E-09 -4.19627E-09 -4.11567E-09 -4.02724E-09
  -3.93160E-09 -3.82932E-09 -3.72103E-09 -3.60730E-09 -3.48874E-09 -3.36595E-09 -3.23953E-09 -3.11008E-09 -2.97817E-09 -2.84444E-09
  -2.70947E-09 -2.57384E-09 -2.43817E-09 -2.30306E-09 -2.16909E-09 -2.03687E-09 -1.90700E-09 -1.78006E-09 -1.65667E-09 -1.53742E-09
  -1.42290E-09 -1.31371E-09 -1.21014E-09 -1.11206E-09 -1.01933E-09 -9.31822E-10 -8.49361E-10 -7.71819E-10 -6.99038E-10 -6.30878E-10
  -5.67198E-10 -5.07835E-10 -4.52661E-10 -4.01516E-10 -3.54265E-10 -3.10756E-10 -2.70822E-10 -2.34361E-10 -2.01202E-10 -1.71191E-10
  -1.44184E-10 -1.20051E-10 -9.86239E-11 -7.97652E-11 -6.33451E-11 -4.91788E-11 -3.71615E-11 -2.71226E-11 -1.89268E-11 -1.24133E-11
  -7.46464E-12 -3.96366E-12 -1.79406E-12 -8.39995E-13 -9.91263E-13 -2.12819E-12 -4.13997E-12 -6.90831E-12 -1.03199E-11 -1.42619E-11
  -1.86170E-11 -2.32716E-11 -2.81102E-11 -3.30186E-11 -3.78830E-11 -4.25864E-11 -4.70163E-11 -5.10563E-11 -5.45951E-11 -5.75109E-11
  -5.96977E-11 -6.10341E-11 -6.14069E-11 -6.07059E-11 -5.88111E-11 -5.56090E-11 -5.09870E-11 -4.48354E-11 -3.71501E-11 -2.79808E-11
  -1.73789E-11 -5.39646E-12  7.91456E-12  2.25037E-11  3.83179E-11  5.53062E-11  7.34169E-11  9.25982E-11  1.12798E-10  1.33966E-10
   1.56049E-10  1.78997E-10  2.02756E-10  2.27276E-10  2.52505E-10  2.78391E-10  3.04883E-10  3.31929E-10  3.59477E-10  3.87475E-10
   4.15873E-10  4.44618E-10  4.73658E-10  5.02943E-10  5.32419E-10  5.62041E-10  5.91791E-10  6.21660E-10  6.51643E-10  6.81733E-10
   7.11923E-10  7.42207E-10  7.72578E-10  8.03029E-10  8.33553E-10  8.64145E-10  8.94796E-10  9.25500E-10  9.56251E-10  9.87042E-10
   1.01787E-09  1.04872E-09  1.07959E-09  1.11047E-09  1.14136E-09  1.17225E-09  1.20313E-09  1.23400E-09  1.26485E-09  1.29567E-09
   1.32646E-09  1.35721E-09  1.38791E-09
 NY background values follow
     4.148E-09    4.125E-09    4.103E-09    4.081E-09    4.058E-09    4.036E-09    4.014E-09    3.992E-09    3.970E-09    3.948E-09
     3.926E-09    3.904E-09    3.883E-09    3.861E-09    3.839E-09    3.818E-09    3.797E-09    3.775E-09    3.754E-09    3.733E-09
     3.712E-09    3.691E-09    3.671E-09    3.650E-09    3.629E-09    3.609E-09    3.588E-09    3.568E-09    3.548E-09    3.528E-09
     3.508E-09    3.489E-09    3.469E-09    3.450E-09    3.431E-09    3.412E-09    3.394E-09    3.376E-09    3.359E-09    3.342E-09
     3.325E-09    3.309E-09    3.293E-09    3.278E-09    3.263E-09    3.250E-09    3.236E-09    3.224E-09    3.212E-09    3.201E-09
     3.190E-09    3.181E-09    3.172E-09    3.164E-09    3.157E-09    3.151E-09    3.145E-09    3.141E-09    3.138E-09    3.135E-09
     3.134E-09    3.133E-09    3.133E-09    3.134E-09    3.135E-09    3.138E-09    3.140E-09    3.144E-09    3.148E-09    3.153E-09
     3.158E-09    3.163E-09    3.169E-09    3.176E-09    3.183E-09    3.190E-09    3.197E-09    3.205E-09    3.213E-09    3.221E-09
     3.230E-09    3.238E-09    3.247E-09    3.256E-09    3.265E-09    3.274E-09    3.283E-09    3.292E-09    3.301E-09    3.310E-09
     3.320E-09    3.330E-09    3.340E-09    3.351E-09    3.362E-09    3.374E-09    3.385E-09    3.398E-09    3.411E-09    3.425E-09
     3.439E-09    3.454E-09    3.469E-09    3.486E-09    3.503E-09    3.521E-09    3.540E-09    3.559E-09    3.580E-09    3.602E-09
     3.624E-09    3.648E-09    3.673E-09    3.698E-09    3.725E-09    3.753E-09    3.782E-09    3.811E-09    3.841E-09    3.872E-09
     3.904E-09    3.936E-09    3.968E-09    4.001E-09    4.034E-09    4.067E-09    4.101E-09    4.135E-09    4.168E-09    4.202E-09
     4.236E-09    4.270E-09    4.303E-09    4.336E-09    4.369E-09    4.401E-09    4.433E-09    4.464E-09    4.495E-09    4.525E-09
     4.554E-09    4.582E-09    4.609E-09    4.634E-09    4.657E-09    4.677E-09    4.694E-09    4.708E-09    4.718E-09    4.724E-09
     4.726E-09    4.722E-09    4.714E-09    4.700E-09    4.680E-09    4.653E-09    4.620E-09    4.580E-09    4.532E-09    4.476E-09
     4.412E-09    4.340E-09    4.258E-09    4.167E-09    4.066E-09    3.955E-09    3.833E-09    3.701E-09    3.557E-09    3.403E-09
     3.238E-09    3.064E-09    2.882E-09    2.691E-09    2.492E-09    2.287E-09    2.075E-09    1.858E-09    1.635E-09    1.409E-09
     1.178E-09    9.448E-10    7.089E-10    4.712E-10    2.324E-10   -6.948E-12   -2.462E-10   -4.846E-10   -7.216E-10   -9.566E-10
    -1.189E-09   -1.418E-09   -1.643E-09   -1.863E-09   -2.078E-09   -2.288E-09   -2.491E-09   -2.687E-09   -2.876E-09   -3.059E-09
    -3.234E-09   -3.402E-09   -3.562E-09   -3.715E-09   -3.860E-09   -3.998E-09   -4.127E-09   -4.248E-09   -4.360E-09   -4.464E-09
    -4.559E-09   -4.646E-09   -4.723E-09   -4.791E-09   -4.850E-09   -4.899E-09   -4.938E-09   -4.968E-09   -4.987E-09   -4.997E-09
    -4.996E-09   -4.984E-09   -4.962E-09   -4.929E-09   -4.886E-09   -4.832E-09   -4.769E-09   -4.696E-09   -4.615E-09   -4.527E-09
    -4.431E-09   -4.328E-09   -4.220E-09   -4.106E-09   -3.987E-09   -3.864E-09   -3.738E-09   -3.608E-09   -3.476E-09   -3.342E-09
    -3.207E-09   -3.071E-09   -2.935E-09   -2.800E-09   -2.666E-09   -2.534E-09   -2.404E-09   -2.277E-09   -2.153E-09   -2.034E-09
    -1.919E-09   -1.810E-09   -1.706E-09   -1.608E-09   -1.515E-09   -1.428E-09   -1.345E-09   -1.267E-09   -1.195E-09   -1.126E-09
    -1.063E-09   -1.003E-09   -9.479E-10   -8.966E-10   -8.493E-10   -8.057E-10   -7.656E-10   -7.291E-10   -6.958E-10   -6.657E-10
    -6.386E-10   -6.144E-10   -5.929E-10   -5.739E-10   -5.574E-10   -5.432E-10   -5.311E-10   -5.209E-10   -5.126E-10   -5.060E-10
    -5.010E-10   -4.974E-10   -4.951E-10   -4.941E-10   -4.941E-10   -4.951E-10   -4.970E-10   -4.997E-10   -5.030E-10   -5.069E-10
    -5.111E-10   -5.157E-10   -5.204E-10   -5.252E-10   -5.299E-10   -5.345E-10   -5.389E-10   -5.428E-10   -5.462E-10   -5.490E-10
    -5.511E-10   -5.523E-10   -5.526E-10   -5.517E-10   -5.497E-10   -5.464E-10   -5.417E-10   -5.354E-10   -5.276E-10   -5.183E-10
    -5.075E-10   -4.954E-10   -4.820E-10   -4.673E-10   -4.513E-10   -4.342E-10   -4.159E-10   -3.966E-10   -3.763E-10   -3.550E-10
    -3.328E-10   -3.097E-10   -2.858E-10   -2.611E-10   -2.357E-10   -2.097E-10   -1.830E-10   -1.558E-10   -1.281E-10   -9.998E-11
    -7.142E-11   -4.251E-11   -1.331E-11    1.613E-11    4.578E-11    7.556E-11    1.055E-10    1.355E-10    1.657E-10    1.959E-10
     2.263E-10    2.568E-10    2.873E-10    3.179E-10    3.486E-10    3.794E-10    4.103E-10    4.412E-10    4.721E-10    5.031E-10
     5.341E-10    5.651E-10    5.962E-10    6.273E-10    6.584E-10    6.895E-10    7.206E-10    7.516E-10    7.827E-10    8.137E-10
     8.447E-10    8.757E-10    9.066E-10
 Ala      Conc. = 3.30E-10
   4.40850E-09  4.40363E-09  4.39121E-09  4.37350E-09  4.34938E-09  4.31882E-09  4.27302E-09  4.21674E-09  4.17591E-09  4.12963E-09
   4.06473E-09  4.01871E-09  3.98261E-09  3.94008E-09  3.90345E-09  3.87284E-09  3.84538E-09  3.81978E-09  3.79540E-09  3.77187E-09
   3.74897E-09  3.72655E-09  3.70454E-09  3.68286E-09  3.66144E-09  3.64029E-09  3.61936E-09  3.59863E-09  3.57808E-09  3.55773E-09
   3.53759E-09  3.51767E-09  3.49800E-09  3.47861E-09  3.45952E-09  3.44076E-09  3.42236E-09  3.40435E-09  3.38675E-09  3.36959E-09
   3.35291E-09  3.33672E-09  3.32107E-09  3.30597E-09  3.29148E-09  3.27758E-09  3.26435E-09  3.25181E-09  3.23996E-09  3.22886E-09
   3.21853E-09  3.20900E-09  3.20031E-09  3.19247E-09  3.18557E-09  3.17955E-09  3.17448E-09  3.17039E-09  3.16723E-09  3.16497E-09
   3.16358E-09  3.16303E-09  3.16328E-09  3.16429E-09  3.16605E-09  3.16852E-09  3.17165E-09  3.17543E-09  3.17983E-09  3.18480E-09
   3.19031E-09  3.19635E-09  3.20288E-09  3.20987E-09  3.21728E-09  3.22510E-09  3.23330E-09  3.24185E-09  3.25072E-09  3.25991E-09
   3.26936E-09  3.27910E-09  3.28908E-09  3.29933E-09  3.30980E-09  3.32057E-09  3.33172E-09  3.34335E-09  3.35559E-09  3.36858E-09
   3.38255E-09  3.39774E-09  3.41453E-09  3.43346E-09  3.45536E-09  3.48161E-09  3.51476E-09  3.56006E-09  3.63115E-09  3.77605E-09
   4.00060E-09  4.18047E-09  4.36811E-09  4.61494E-09  4.82854E-09  4.96899E-09  5.03712E-09  5.03523E-09  4.95383E-09  4.78480E-09
   4.56178E-09  4.38368E-09  4.26748E-09  4.08394E-09  3.93324E-09  3.89257E-09  3.88625E-09  3.89467E-09  3.91098E-09  3.93210E-09
   3.95644E-09  3.98304E-09  4.01132E-09  4.04086E-09  4.07139E-09  4.10266E-09  4.13450E-09  4.16677E-09  4.19934E-09  4.23209E-09
   4.26492E-09  4.29773E-09  4.33045E-09  4.36297E-09  4.39524E-09  4.42715E-09  4.45865E-09  4.48966E-09  4.52010E-09  4.54990E-09
   4.57894E-09  4.60698E-09  4.63362E-09  4.65848E-09  4.68117E-09  4.70132E-09  4.71855E-09  4.73249E-09  4.74274E-09  4.74894E-09
   4.75071E-09  4.74768E-09  4.73948E-09  4.72573E-09  4.70609E-09  4.68018E-09  4.64766E-09  4.60818E-09  4.56145E-09  4.50715E-09
   4.44508E-09  4.37510E-09  4.29733E-09  4.21231E-09  4.12202E-09  4.03348E-09  3.98304E-09  3.99744E-09  3.99569E-09  3.95362E-09
   3.87216E-09  3.74920E-09  3.57975E-09  3.36474E-09  3.10931E-09  2.81368E-09  2.46931E-09  2.08580E-09  1.73432E-09  1.47242E-09
   1.22746E-09  9.86192E-10  7.45502E-10  5.04607E-10  2.63513E-10  2.24936E-11 -2.17999E-10 -4.57452E-10 -6.95280E-10 -9.30912E-10
  -1.16375E-09 -1.39317E-09 -1.61857E-09 -1.83928E-09 -2.05471E-09 -2.26422E-09 -2.46727E-09 -2.66365E-09 -2.85319E-09 -3.03576E-09
  -3.21117E-09 -3.37928E-09 -3.53994E-09 -3.69297E-09 -3.83822E-09 -3.97554E-09 -4.10476E-09 -4.22572E-09 -4.33827E-09 -4.44224E-09
  -4.53748E-09 -4.62382E-09 -4.70111E-09 -4.76919E-09 -4.82789E-09 -4.87706E-09 -4.91654E-09 -4.94616E-09 -4.96577E-09 -4.97519E-09
  -4.97430E-09 -4.96290E-09 -4.94085E-09 -4.90800E-09 -4.86440E-09 -4.81060E-09 -4.74720E-09 -4.67479E-09 -4.59397E-09 -4.50534E-09
  -4.40950E-09 -4.30704E-09 -4.19857E-09 -4.08468E-09 -3.96596E-09 -3.84301E-09 -3.71644E-09 -3.58684E-09 -3.45480E-09 -3.32094E-09
  -3.18584E-09 -3.05009E-09 -2.91430E-09 -2.77907E-09 -2.64499E-09 -2.51265E-09 -2.38267E-09 -2.25563E-09 -2.13214E-09 -2.01279E-09
  -1.89816E-09 -1.78888E-09 -1.68521E-09 -1.58704E-09 -1.49422E-09 -1.40661E-09 -1.32406E-09 -1.24643E-09 -1.17356E-09 -1.10531E-09
  -1.04154E-09 -9.82089E-10 -9.26828E-10 -8.75595E-10 -8.28257E-10 -7.84661E-10 -7.44641E-10 -7.08093E-10 -6.74848E-10 -6.44750E-10
  -6.17656E-10 -5.93436E-10 -5.71922E-10 -5.52975E-10 -5.36467E-10 -5.22212E-10 -5.10105E-10 -4.99977E-10 -4.91691E-10 -4.85087E-10
  -4.80047E-10 -4.76454E-10 -4.74192E-10 -4.73144E-10 -4.73201E-10 -4.74243E-10 -4.76159E-10 -4.78831E-10 -4.82145E-10 -4.85989E-10
  -4.90245E-10 -4.94799E-10 -4.99537E-10 -5.04344E-10 -5.09105E-10 -5.13705E-10 -5.18030E-10 -5.21964E-10 -5.25395E-10 -5.28203E-10
  -5.30280E-10 -5.31506E-10 -5.31767E-10 -5.30954E-10 -5.28945E-10 -5.25627E-10 -5.20889E-10 -5.14620E-10 -5.06815E-10 -4.97526E-10
  -4.86802E-10 -4.74697E-10 -4.61262E-10 -4.46548E-10 -4.30606E-10 -4.13490E-10 -3.95250E-10 -3.75938E-10 -3.55605E-10 -3.34304E-10
  -3.12086E-10 -2.89002E-10 -2.65104E-10 -2.40445E-10 -2.15075E-10 -1.89047E-10 -1.62411E-10 -1.35220E-10 -1.07525E-10 -7.93781E-11
  -5.08301E-11 -2.19336E-11  7.26024E-12  3.66995E-11  6.63325E-11  9.61127E-11  1.26022E-10  1.56052E-10  1.86198E-10  2.16453E-10
   2.46809E-10  2.77262E-10  3.07802E-10  3.38425E-10  3.69121E-10  3.99889E-10  4.30716E-10  4.61598E-10  4.92529E-10  5.23502E-10
   5.54512E-10  5.85548E-10  6.16606E-10  6.47679E-10  6.78761E-10  7.09844E-10  7.40922E-10  7.71989E-10  8.03038E-10  8.34060E-10
   8.65051E-10  8.96003E-10  9.26911E-10
 Asp      Conc. = 9.95E-10
   5.22542E-09  5.03687E-09  4.87645E-09  4.69724E-09  4.54350E-09  4.38828E-09  4.24387E-09  4.15113E-09  4.09541E-09  4.05465E-09
   4.02150E-09  3.99297E-09  3.96764E-09  3.94439E-09  3.92172E-09  3.89974E-09  3.87844E-09  3.85777E-09  3.83767E-09  3.81810E-09
   3.79907E-09  3.78056E-09  3.76262E-09  3.74528E-09  3.72859E-09  3.71267E-09  3.69762E-09  3.68359E-09  3.67082E-09  3.65962E-09
   3.65046E-09  3.64402E-09  3.64139E-09  3.64439E-09  3.65656E-09  3.68611E-09  3.74731E-09  3.80977E-09  3.87777E-09  3.91988E-09
   3.93704E-09  3.94579E-09  3.99194E-09  4.07786E-09  4.25021E-09  4.45500E-09  4.58328E-09  4.65138E-09  4.77968E-09  4.87903E-09
   4.92742E-09  4.91054E-09  4.79688E-09  4.57311E-09  4.30957E-09  4.06913E-09  3.94941E-09  3.90062E-09  3.79693E-09  3.65668E-09
   3.59484E-09  3.54332E-09  3.49358E-09  3.47946E-09  3.45937E-09  3.40852E-09  3.35309E-09  3.32164E-09  3.30223E-09  3.28980E-09
   3.28194E-09  3.27732E-09  3.27512E-09  3.27481E-09  3.27600E-09  3.27842E-09  3.28187E-09  3.28615E-09  3.29115E-09  3.29676E-09
   3.30285E-09  3.30939E-09  3.31625E-09  3.32341E-09  3.33077E-09  3.33834E-09  3.34613E-09  3.35415E-09  3.36244E-09  3.37102E-09
   3.37992E-09  3.38917E-09  3.39880E-09  3.40884E-09  3.41933E-09  3.43029E-09  3.44178E-09  3.45381E-09  3.46642E-09  3.47967E-09
   3.49355E-09  3.50814E-09  3.52345E-09  3.53953E-09  3.55642E-09  3.57414E-09  3.59274E-09  3.61226E-09  3.63273E-09  3.65419E-09
   3.67668E-09  3.70024E-09  3.72489E-09  3.75063E-09  3.77738E-09  3.80506E-09  3.83363E-09  3.86300E-09  3.89311E-09  3.92390E-09
   3.95529E-09  3.98721E-09  4.01961E-09  4.05242E-09  4.08555E-09  4.11896E-09  4.15257E-09  4.18632E-09  4.22014E-09  4.25396E-09
   4.28771E-09  4.32133E-09  4.35475E-09  4.38791E-09  4.42074E-09  4.45317E-09  4.48514E-09  4.51658E-09  4.54743E-09  4.57762E-09
   4.60705E-09  4.63546E-09  4.66247E-09  4.68770E-09  4.71077E-09  4.73132E-09  4.74897E-09  4.76335E-09  4.77409E-09  4.78081E-09
   4.78318E-09  4.78082E-09  4.77337E-09  4.76051E-09  4.74189E-09  4.71720E-09  4.68616E-09  4.64851E-09  4.60405E-09  4.55269E-09
   4.49449E-09  4.42982E-09  4.35971E-09  4.28650E-09  4.21647E-09  4.16976E-09  4.24341E-09  4.55295E-09  4.84562E-09  5.03865E-09
   5.13288E-09  5.12180E-09  4.98805E-09  4.73175E-09  4.36719E-09  3.89635E-09  3.29207E-09  2.57229E-09  1.93451E-09  1.59259E-09
   1.31544E-09  1.05719E-09  8.06139E-10  5.58350E-10  3.12390E-10  6.77842E-11 -1.75439E-10 -4.17026E-10 -6.56558E-10 -8.93574E-10
  -1.12755E-09 -1.35793E-09 -1.58413E-09 -1.80553E-09 -2.02154E-09 -2.23157E-09 -2.43507E-09 -2.63183E-09 -2.82173E-09 -3.00460E-09
  -3.18029E-09 -3.34864E-09 -3.50952E-09 -3.66275E-09 -3.80819E-09 -3.94567E-09 -4.07504E-09 -4.19615E-09 -4.30882E-09 -4.41291E-09
  -4.50826E-09 -4.59470E-09 -4.67208E-09 -4.74024E-09 -4.79902E-09 -4.84827E-09 -4.88782E-09 -4.91750E-09 -4.93717E-09 -4.94666E-09
  -4.94582E-09 -4.93447E-09 -4.91247E-09 -4.87966E-09 -4.83611E-09 -4.78235E-09 -4.71899E-09 -4.64662E-09 -4.56583E-09 -4.47724E-09
