 LCModel (Version 6.3-1R) Copyright: S.W. Provencher.          Ref.: Magn. Reson. Med. 30:672-679 (1993).                
 onepulse 29x24_ftSpec_smooth_lcm
 26 lines in following concentration table = NCONC+1
    Conc.  %SD /Cr+PCr  Metabolite                                         
 7.44E-10  78%   2.509 Ala                                                 
 2.58E-10 587%   0.870 Asp                                                 
 2.35E-10 999%   0.792 Cr                                                  
    0.000 999%   0.000 GABA                                                
 3.65E-10 474%   1.233 Glc                                                 
    0.000 999%   0.000 Gln                                                 
    0.000 999%   0.000 Glu                                                 
    0.000 999%   0.000 Glyc                                                
 7.89E-11 262%   0.266 GPC                                                 
 3.02E-10 272%   1.020 GSH                                                 
 1.03E-09  91%   3.468 Ins                                                 
    0.000 999%   0.000 Lac                                                 
    0.000 999%   0.000 NAAG                                                
 3.18E-10 142%   1.073 NAA                                                 
    0.000 999%   0.000 PCh                                                 
 6.17E-11 999%   0.208 PCr                                                 
    0.000 999%   0.000 PE                                                  
 4.95E-10  79%   1.671 Scyllo                                              
 1.89E-10 999%   0.639 Ser                                                 
    0.000 999%   0.000 Tau                                                 
 7.89E-11 262%   0.266 GPC+PCh                                             
 3.18E-10 142%   1.073 NAA+NAAG                                            
 1.03E-09  91%   3.468 Ins+Glyc                                            
 2.96E-10 161%   1.000 Cr+PCr                                              
    0.000 999%   0.000 Glu+Gln                                             
   6 lines in following misc. output table
  FWHM = 0.101 ppm    S/N =   1                                            
  Data shift = 0.067 ppm                                                   
  Ph: -65 deg      11.0 deg/ppm                                            
  alphaB,S = 6.3E-01,   2.4E+01                                            
    8 spline knots.   Ns = 5(1)                                            
  (12) 2 infls.   (11) 1 extrs.                                            
  363 points on ppm-axis = NY
      4.250000     4.238821     4.227641     4.216462     4.205282     4.194103     4.182923     4.171744     4.160564     4.149385
      4.138206     4.127026     4.115847     4.104667     4.093488     4.082308     4.071129     4.059949     4.048770     4.037591
      4.026411     4.015232     4.004052     3.992873     3.981693     3.970514     3.959334     3.948155     3.936975     3.925796
      3.914617     3.903437     3.892258     3.881078     3.869899     3.858719     3.847540     3.836360     3.825181     3.814002
      3.802822     3.791643     3.780463     3.769284     3.758104     3.746925     3.735745     3.724566     3.713387     3.702207
      3.691028     3.679848     3.668669     3.657489     3.646310     3.635130     3.623951     3.612772     3.601592     3.590413
      3.579233     3.568054     3.556874     3.545695     3.534515     3.523336     3.512156     3.500977     3.489798     3.478618
      3.467439     3.456259     3.445080     3.433900     3.422721     3.411541     3.400362     3.389183     3.378003     3.366824
      3.355644     3.344465     3.333285     3.322106     3.310926     3.299747     3.288568     3.277388     3.266209     3.255029
      3.243850     3.232670     3.221491     3.210311     3.199132     3.187953     3.176773     3.165594     3.154414     3.143235
      3.132055     3.120876     3.109696     3.098517     3.087337     3.076158     3.064979     3.053799     3.042620     3.031440
      3.020261     3.009081     2.997902     2.986722     2.975543     2.964364     2.953184     2.942005     2.930825     2.919646
      2.908466     2.897287     2.886107     2.874928     2.863749     2.852569     2.841390     2.830210     2.819031     2.807851
      2.796672     2.785492     2.774313     2.763134     2.751954     2.740775     2.729595     2.718416     2.707236     2.696057
      2.684877     2.673698     2.662519     2.651339     2.640160     2.628980     2.617801     2.606621     2.595442     2.584262
      2.573083     2.561903     2.550724     2.539545     2.528365     2.517186     2.506006     2.494827     2.483647     2.472468
      2.461288     2.450109     2.438930     2.427750     2.416571     2.405391     2.394212     2.383032     2.371853     2.360673
      2.349494     2.338315     2.327135     2.315956     2.304776     2.293597     2.282417     2.271238     2.260058     2.248879
      2.237700     2.226520     2.215341     2.204161     2.192982     2.181802     2.170623     2.159443     2.148264     2.137084
      2.125905     2.114726     2.103546     2.092367     2.081187     2.070008     2.058828     2.047649     2.036469     2.025290
      2.014111     2.002931     1.991752     1.980572     1.969393     1.958213     1.947034     1.935854     1.924675     1.913496
      1.902316     1.891137     1.879957     1.868778     1.857598     1.846419     1.835239     1.824060     1.812881     1.801701
      1.790522     1.779342     1.768163     1.756983     1.745804     1.734624     1.723445     1.712265     1.701086     1.689907
      1.678727     1.667548     1.656368     1.645189     1.634009     1.622830     1.611650     1.600471     1.589292     1.578112
      1.566933     1.555753     1.544574     1.533394     1.522215     1.511035     1.499856     1.488677     1.477497     1.466318
      1.455138     1.443959     1.432779     1.421600     1.410420     1.399241     1.388062     1.376882     1.365703     1.354523
      1.343344     1.332164     1.320985     1.309805     1.298626     1.287446     1.276267     1.265088     1.253908     1.242729
      1.231549     1.220370     1.209190     1.198011     1.186831     1.175652     1.164473     1.153293     1.142114     1.130934
      1.119755     1.108575     1.097396     1.086216     1.075037     1.063858     1.052678     1.041499     1.030319     1.019140
      1.007960     0.996781     0.985601     0.974422     0.963243     0.952063     0.940884     0.929704     0.918525     0.907345
      0.896166     0.884986     0.873807     0.862628     0.851448     0.840269     0.829089     0.817910     0.806730     0.795551
      0.784371     0.773192     0.762012     0.750833     0.739654     0.728474     0.717295     0.706115     0.694936     0.683756
      0.672577     0.661397     0.650218     0.639039     0.627859     0.616680     0.605500     0.594321     0.583141     0.571962
      0.560782     0.549603     0.538424     0.527244     0.516065     0.504885     0.493706     0.482526     0.471347     0.460167
      0.448988     0.437809     0.426629     0.415450     0.404270     0.393091     0.381911     0.370732     0.359552     0.348373
      0.337193     0.326014     0.314835     0.303655     0.292476     0.281296     0.270117     0.258937     0.247758     0.236578
      0.225399     0.214220     0.203040
 NY phased data points follow
   3.23464E-09  4.35090E-09  2.81020E-09  4.20316E-09  3.78174E-09  4.21387E-09  3.41927E-09  4.92849E-09  4.01100E-09  4.63939E-09
   3.96206E-09  5.07084E-09  4.18796E-09  5.16023E-09  4.17812E-09  4.08021E-09  3.94026E-09  4.57040E-09  4.02681E-09  4.63708E-09
   4.76382E-09  5.46148E-09  5.89786E-09  6.18658E-09  6.08867E-09  5.90757E-09  5.17697E-09  3.56866E-09  1.45654E-09  9.45966E-10
   2.14088E-10  1.60516E-10  3.42025E-10  5.17711E-10  4.29160E-10  4.27796E-10  3.53184E-10  8.00365E-11  2.99680E-10  3.93065E-10
  -1.21546E-10 -3.17209E-10 -6.67703E-10 -9.93938E-10 -1.55774E-09 -1.62845E-09 -1.62253E-09 -1.72190E-09 -1.58103E-09 -1.53140E-09
  -1.42789E-09 -1.51428E-09 -2.26567E-09 -1.67171E-09 -2.04261E-09 -1.72063E-09 -1.16369E-09 -1.57566E-09 -2.09272E-09 -2.79712E-09
  -3.44060E-09 -4.06326E-09 -4.63295E-09 -4.66343E-09 -4.43370E-09 -4.25656E-09 -4.14039E-09 -4.06882E-09 -4.54712E-09 -4.09309E-09
  -4.01150E-09 -3.87984E-09 -3.81898E-09 -3.34654E-09 -2.82358E-09 -2.55720E-09 -2.48546E-09 -2.17660E-09 -2.66792E-09 -2.06666E-09
  -2.78540E-09 -1.20510E-09 -1.88341E-09 -7.60345E-10 -1.08717E-09 -7.55643E-10 -9.04341E-10  6.30339E-11 -4.82754E-10 -1.45636E-10
  -1.81852E-09 -2.13571E-09 -3.54048E-09 -3.09690E-09 -3.60395E-09 -3.17731E-09 -3.72479E-09 -2.60172E-09 -2.21334E-09 -1.78444E-09
  -1.33598E-09 -4.28326E-10  9.52737E-11  1.13016E-09  1.48903E-09  1.48264E-09 -6.54500E-11 -1.54380E-09 -2.95709E-09 -3.54389E-09
  -4.27674E-09 -4.85467E-09 -4.52416E-09 -5.00956E-09 -4.59796E-09 -5.28739E-09 -5.71848E-09 -5.54029E-09 -5.83570E-09 -5.71933E-09
  -5.83769E-09 -5.90411E-09 -5.54586E-09 -5.81925E-09 -5.22885E-09 -5.56128E-09 -5.26412E-09 -5.18462E-09 -4.90321E-09 -5.38963E-09
  -5.50068E-09 -5.72647E-09 -5.40886E-09 -6.06085E-09 -6.08579E-09 -5.97552E-09 -5.93885E-09 -5.28241E-09 -4.95244E-09 -5.40588E-09
  -5.02701E-09 -5.91388E-09 -4.88181E-09 -5.45613E-09 -5.17139E-09 -5.65356E-09 -5.15996E-09 -5.47817E-09 -5.18186E-09 -5.15083E-09
  -4.87443E-09 -4.05321E-09 -3.77819E-09 -3.07874E-09 -3.41008E-09 -3.07326E-09 -2.77408E-09 -2.78501E-09 -2.71294E-09 -2.54229E-09
  -2.99517E-09 -2.22179E-09 -2.05074E-09 -1.48136E-09 -1.70675E-09 -9.23342E-10 -1.04042E-09 -1.15992E-09 -2.02315E-09 -1.00159E-09
  -1.10438E-09 -4.70067E-10 -8.72003E-10 -2.83714E-10 -1.02340E-09 -3.19650E-10 -2.44992E-10 -3.28481E-10 -4.04443E-10 -3.17155E-10
  -1.65913E-10 -3.20835E-10 -3.86211E-10 -6.77568E-10 -5.55657E-10  9.40538E-11 -5.42900E-10 -4.31758E-10 -7.37537E-10 -4.89075E-10
  -7.72011E-10 -6.20210E-10 -8.33502E-10 -1.14233E-09 -1.13533E-09 -1.19919E-09 -2.87491E-09 -4.84652E-09 -7.73113E-09 -1.05919E-08
  -1.13293E-08 -1.28318E-08 -1.29791E-08 -1.38400E-08 -1.42342E-08 -1.45967E-08 -1.53447E-08 -1.55193E-08 -1.59482E-08 -1.70813E-08
  -1.67421E-08 -1.79783E-08 -1.82582E-08 -1.90298E-08 -1.95107E-08 -2.10007E-08 -2.18193E-08 -2.26059E-08 -2.32387E-08 -2.50619E-08
  -2.62220E-08 -2.69302E-08 -2.82675E-08 -2.90481E-08 -2.95913E-08 -2.99449E-08 -2.96275E-08 -2.93243E-08 -2.82196E-08 -2.70209E-08
  -2.56430E-08 -2.35447E-08 -2.16038E-08 -1.87532E-08 -1.53234E-08 -1.11438E-08 -7.65538E-09 -3.96339E-09 -1.63924E-10  3.88622E-09
   7.17864E-09  9.77722E-09  1.20185E-08  1.25630E-08  1.30210E-08  1.15614E-08  1.00629E-08  9.09615E-09  7.00564E-09  5.44588E-09
   3.69848E-09  3.30569E-09  2.56000E-09  2.39228E-09  2.15926E-09  1.50768E-09  1.54051E-09  1.31760E-09  9.40240E-10  8.17288E-10
   9.85436E-10  1.17079E-09  8.81006E-10  7.68405E-10  1.26941E-09  1.00288E-09  1.70521E-09  1.50854E-09  1.55889E-09  1.62488E-09
   1.29339E-09  7.33567E-10  5.22517E-10  1.80241E-10  8.06967E-10  4.44709E-10  1.20680E-09  1.06753E-09  1.26268E-09  1.50016E-09
   1.60712E-09  7.33051E-10  1.19528E-09  8.29862E-10  3.75360E-10 -6.00921E-11  9.49651E-11 -1.86364E-10 -3.66577E-11 -1.86535E-11
   7.46767E-10  1.60170E-11  6.94074E-10  5.53449E-10  1.09356E-09  6.37450E-10  9.43688E-10  9.05508E-10  9.49349E-10  4.92695E-10
   9.13350E-10  6.92432E-10  1.03604E-09  6.26575E-10  1.08300E-09  2.00264E-10  1.78638E-10  1.54301E-10  7.58221E-10  3.08558E-11
   4.91066E-10 -4.52780E-10  3.75334E-10 -5.91286E-10  1.01844E-09 -1.68824E-10  7.57319E-10 -1.37946E-10  4.27617E-10 -1.24806E-10
   6.42535E-10 -5.16569E-10  8.22671E-10 -2.44772E-10  5.71683E-10  5.69632E-11  5.70324E-10  7.07170E-10  1.01131E-09  5.88350E-10
   7.17580E-10  4.38494E-10  7.66005E-10  8.67075E-10  1.37379E-09  6.68789E-10  1.53963E-09  1.13716E-09  1.51030E-09  1.06919E-09
   1.67072E-09  9.38991E-10  1.56944E-09  1.33737E-09  1.71240E-09  1.01152E-09  1.70691E-09  8.47486E-10  1.88122E-09  1.21297E-09
   1.84789E-09  1.22651E-09  2.17800E-09  1.40382E-09  2.12459E-09  1.27760E-09  1.99533E-09  1.42122E-09  2.16025E-09  1.70398E-09
   1.95061E-09  1.64197E-09  2.01109E-09
 NY points of the fit to the data follow
   3.73563E-09  3.75358E-09  3.62413E-09  3.48840E-09  3.53508E-09  3.64773E-09  3.63786E-09  3.57643E-09  3.72367E-09  4.04855E-09
   4.40714E-09  4.68400E-09  4.83660E-09  4.85663E-09  4.66914E-09  4.33310E-09  4.02155E-09  4.04784E-09  4.44011E-09  4.88278E-09
   5.36660E-09  5.75281E-09  5.88902E-09  5.92664E-09  5.83205E-09  5.46613E-09  4.69282E-09  3.47152E-09  2.08340E-09  1.14233E-09
   7.51835E-10  5.18823E-10  4.07268E-10  3.25950E-10  2.57666E-10  2.71431E-10  3.43042E-10  4.00892E-10  3.83532E-10  2.31817E-10
  -8.84519E-11 -5.63638E-10 -1.08435E-09 -1.45672E-09 -1.65027E-09 -1.77895E-09 -1.87647E-09 -1.98846E-09 -2.02374E-09 -2.00648E-09
  -1.94779E-09 -1.88588E-09 -1.85783E-09 -1.85544E-09 -1.86816E-09 -1.89527E-09 -1.90274E-09 -1.91698E-09 -1.98378E-09 -2.11086E-09
  -2.26565E-09 -2.43298E-09 -2.56840E-09 -2.68097E-09 -2.78334E-09 -2.86714E-09 -2.94720E-09 -3.02512E-09 -3.07235E-09 -3.07847E-09
  -3.04868E-09 -3.02997E-09 -2.99547E-09 -2.94368E-09 -2.88634E-09 -2.81139E-09 -2.68067E-09 -2.29879E-09 -1.84549E-09 -1.48123E-09
  -1.26516E-09 -1.17022E-09 -1.18574E-09 -1.31016E-09 -1.50956E-09 -1.82543E-09 -2.28594E-09 -2.82693E-09 -3.29419E-09 -3.46471E-09
  -3.53411E-09 -3.57332E-09 -3.59807E-09 -3.61313E-09 -3.61962E-09 -3.61637E-09 -3.59956E-09 -3.56004E-09 -3.47408E-09 -3.26028E-09
  -2.79546E-09 -2.36716E-09 -2.01065E-09 -1.52819E-09 -1.05499E-09 -7.05323E-10 -5.38225E-10 -5.77802E-10 -8.28525E-10 -1.26866E-09
  -1.81520E-09 -2.31123E-09 -2.67960E-09 -3.17872E-09 -3.63905E-09 -3.83937E-09 -3.95607E-09 -4.03839E-09 -4.10331E-09 -4.15839E-09
  -4.20750E-09 -4.25290E-09 -4.29595E-09 -4.33758E-09 -4.37840E-09 -4.41884E-09 -4.45923E-09 -4.49983E-09 -4.54081E-09 -4.58233E-09
  -4.62451E-09 -4.66746E-09 -4.71127E-09 -4.75601E-09 -4.80175E-09 -4.84853E-09 -4.89642E-09 -4.94546E-09 -4.99570E-09 -5.04717E-09
  -5.09990E-09 -5.15394E-09 -5.20931E-09 -5.26604E-09 -5.32415E-09 -5.38366E-09 -5.44455E-09 -5.50674E-09 -5.57011E-09 -5.63456E-09
  -5.69996E-09 -5.76617E-09 -5.83303E-09 -5.90038E-09 -5.96797E-09 -6.03556E-09 -6.10281E-09 -6.16924E-09 -6.23422E-09 -6.29681E-09
  -6.35554E-09 -6.40796E-09 -6.44968E-09 -6.47182E-09 -6.45350E-09 -6.33163E-09 -5.81389E-09 -4.14262E-09 -2.19123E-09 -5.54021E-10
   5.63728E-10  1.18763E-09  1.39338E-09  1.20808E-09  5.64486E-10 -6.50797E-10 -2.48681E-09 -4.68390E-09 -6.47773E-09 -7.05812E-09
  -7.33466E-09 -7.51299E-09 -7.64666E-09 -7.75570E-09 -7.84929E-09 -7.93223E-09 -8.00728E-09 -8.07612E-09 -8.13977E-09 -8.19895E-09
  -8.25412E-09 -8.30557E-09 -8.35352E-09 -8.39809E-09 -8.43941E-09 -8.47748E-09 -8.51233E-09 -8.54398E-09 -8.57240E-09 -8.59756E-09
  -8.61942E-09 -8.63794E-09 -8.65306E-09 -8.66473E-09 -8.67288E-09 -8.67746E-09 -8.67840E-09 -8.67561E-09 -8.66903E-09 -8.65861E-09
  -8.64423E-09 -8.62585E-09 -8.60340E-09 -8.57677E-09 -8.54589E-09 -8.51070E-09 -8.47112E-09 -8.42704E-09 -8.37843E-09 -8.32533E-09
  -8.26785E-09 -8.20610E-09 -8.14021E-09 -8.07028E-09 -7.99642E-09 -7.91874E-09 -7.83735E-09 -7.75237E-09 -7.66390E-09 -7.57206E-09
  -7.47695E-09 -7.37868E-09 -7.27738E-09 -7.17313E-09 -7.06606E-09 -6.95628E-09 -6.84389E-09 -6.72900E-09 -6.61173E-09 -6.49219E-09
  -6.37047E-09 -6.24670E-09 -6.12098E-09 -5.99342E-09 -5.86414E-09 -5.73323E-09 -5.60082E-09 -5.46700E-09 -5.33189E-09 -5.19561E-09
  -5.05824E-09 -4.91992E-09 -4.78073E-09 -4.64081E-09 -4.50025E-09 -4.35917E-09 -4.21766E-09 -4.07584E-09 -3.93383E-09 -3.79173E-09
  -3.64965E-09 -3.50769E-09 -3.36597E-09 -3.22459E-09 -3.08367E-09 -2.94332E-09 -2.80363E-09 -2.66474E-09 -2.52672E-09 -2.38971E-09
  -2.25381E-09 -2.11913E-09 -1.98577E-09 -1.85385E-09 -1.72347E-09 -1.59475E-09 -1.46777E-09 -1.34269E-09 -1.21958E-09 -1.09856E-09
  -9.79725E-10 -8.63207E-10 -7.49104E-10 -6.37519E-10 -5.28571E-10 -4.22364E-10 -3.19005E-10 -2.18603E-10 -1.21279E-10 -2.71210E-11
   6.37541E-11  1.51300E-10  2.35595E-10  3.16694E-10  3.94674E-10  4.69565E-10  5.41487E-10  6.10459E-10  6.76569E-10  7.39877E-10
   8.00440E-10  8.58342E-10  9.13621E-10  9.66364E-10  1.01664E-09  1.06450E-09  1.11001E-09  1.15322E-09  1.19424E-09  1.23310E-09
   1.26987E-09  1.30463E-09  1.33741E-09  1.36832E-09  1.39739E-09  1.42471E-09  1.45032E-09  1.47432E-09  1.49675E-09  1.51767E-09
   1.53714E-09  1.55528E-09  1.57209E-09  1.58765E-09  1.60205E-09  1.61537E-09  1.62759E-09  1.63886E-09  1.64919E-09  1.65870E-09
   1.66740E-09  1.67539E-09  1.68274E-09  1.68950E-09  1.69571E-09  1.70148E-09  1.70684E-09  1.71188E-09  1.71663E-09  1.72124E-09
   1.72566E-09  1.73005E-09  1.73441E-09  1.73882E-09  1.74342E-09  1.74814E-09  1.75316E-09  1.75846E-09  1.76418E-09  1.77033E-09
   1.77699E-09  1.78425E-09  1.79215E-09  1.80077E-09  1.81014E-09  1.82038E-09  1.83149E-09  1.84360E-09  1.85674E-09  1.87097E-09
   1.88638E-09  1.90301E-09  1.92091E-09
 NY background values follow
    -2.201E-09   -2.226E-09   -2.251E-09   -2.276E-09   -2.302E-09   -2.327E-09   -2.353E-09   -2.379E-09   -2.404E-09   -2.430E-09
    -2.456E-09   -2.482E-09   -2.508E-09   -2.534E-09   -2.560E-09   -2.586E-09   -2.612E-09   -2.638E-09   -2.664E-09   -2.690E-09
    -2.716E-09   -2.742E-09   -2.768E-09   -2.794E-09   -2.820E-09   -2.846E-09   -2.872E-09   -2.898E-09   -2.923E-09   -2.949E-09
    -2.975E-09   -3.000E-09   -3.025E-09   -3.051E-09   -3.076E-09   -3.101E-09   -3.126E-09   -3.151E-09   -3.175E-09   -3.200E-09
    -3.224E-09   -3.249E-09   -3.273E-09   -3.297E-09   -3.321E-09   -3.344E-09   -3.368E-09   -3.391E-09   -3.414E-09   -3.437E-09
    -3.459E-09   -3.482E-09   -3.504E-09   -3.526E-09   -3.548E-09   -3.569E-09   -3.590E-09   -3.611E-09   -3.632E-09   -3.652E-09
    -3.672E-09   -3.692E-09   -3.712E-09   -3.731E-09   -3.750E-09   -3.769E-09   -3.787E-09   -3.805E-09   -3.823E-09   -3.840E-09
    -3.857E-09   -3.874E-09   -3.890E-09   -3.906E-09   -3.922E-09   -3.937E-09   -3.952E-09   -3.967E-09   -3.981E-09   -3.995E-09
    -4.009E-09   -4.023E-09   -4.037E-09   -4.051E-09   -4.064E-09   -4.078E-09   -4.091E-09   -4.105E-09   -4.118E-09   -4.132E-09
    -4.145E-09   -4.159E-09   -4.173E-09   -4.187E-09   -4.201E-09   -4.215E-09   -4.230E-09   -4.245E-09   -4.260E-09   -4.276E-09
    -4.291E-09   -4.308E-09   -4.324E-09   -4.341E-09   -4.359E-09   -4.377E-09   -4.395E-09   -4.414E-09   -4.434E-09   -4.454E-09
    -4.475E-09   -4.496E-09   -4.518E-09   -4.541E-09   -4.564E-09   -4.588E-09   -4.613E-09   -4.639E-09   -4.666E-09   -4.693E-09
    -4.722E-09   -4.751E-09   -4.781E-09   -4.812E-09   -4.844E-09   -4.877E-09   -4.911E-09   -4.946E-09   -4.983E-09   -5.020E-09
    -5.059E-09   -5.098E-09   -5.139E-09   -5.181E-09   -5.225E-09   -5.269E-09   -5.315E-09   -5.363E-09   -5.411E-09   -5.461E-09
    -5.513E-09   -5.566E-09   -5.620E-09   -5.676E-09   -5.733E-09   -5.792E-09   -5.852E-09   -5.914E-09   -5.978E-09   -6.042E-09
    -6.108E-09   -6.175E-09   -6.243E-09   -6.312E-09   -6.381E-09   -6.452E-09   -6.523E-09   -6.595E-09   -6.667E-09   -6.740E-09
    -6.813E-09   -6.887E-09   -6.961E-09   -7.034E-09   -7.108E-09   -7.182E-09   -7.256E-09   -7.329E-09   -7.402E-09   -7.475E-09
    -7.547E-09   -7.619E-09   -7.690E-09   -7.760E-09   -7.830E-09   -7.898E-09   -7.966E-09   -8.033E-09   -8.098E-09   -8.162E-09
    -8.225E-09   -8.287E-09   -8.347E-09   -8.405E-09   -8.462E-09   -8.517E-09   -8.570E-09   -8.621E-09   -8.671E-09   -8.718E-09
    -8.763E-09   -8.806E-09   -8.846E-09   -8.884E-09   -8.920E-09   -8.953E-09   -8.983E-09   -9.011E-09   -9.035E-09   -9.057E-09
    -9.076E-09   -9.092E-09   -9.104E-09   -9.114E-09   -9.120E-09   -9.122E-09   -9.121E-09   -9.117E-09   -9.109E-09   -9.097E-09
    -9.081E-09   -9.061E-09   -9.037E-09   -9.009E-09   -8.977E-09   -8.941E-09   -8.900E-09   -8.855E-09   -8.806E-09   -8.752E-09
    -8.694E-09   -8.631E-09   -8.564E-09   -8.494E-09   -8.419E-09   -8.341E-09   -8.259E-09   -8.173E-09   -8.084E-09   -7.991E-09
    -7.896E-09   -7.797E-09   -7.695E-09   -7.590E-09   -7.483E-09   -7.372E-09   -7.259E-09   -7.144E-09   -7.026E-09   -6.906E-09
    -6.784E-09   -6.660E-09   -6.534E-09   -6.406E-09   -6.276E-09   -6.145E-09   -6.012E-09   -5.878E-09   -5.742E-09   -5.606E-09
    -5.468E-09   -5.329E-09   -5.190E-09   -5.049E-09   -4.908E-09   -4.767E-09   -4.625E-09   -4.483E-09   -4.341E-09   -4.198E-09
    -4.056E-09   -3.914E-09   -3.772E-09   -3.630E-09   -3.489E-09   -3.348E-09   -3.208E-09   -3.069E-09   -2.931E-09   -2.793E-09
    -2.657E-09   -2.522E-09   -2.389E-09   -2.256E-09   -2.126E-09   -1.997E-09   -1.869E-09   -1.744E-09   -1.621E-09   -1.499E-09
    -1.380E-09   -1.264E-09   -1.149E-09   -1.037E-09   -9.282E-10   -8.217E-10   -7.181E-10   -6.175E-10   -5.199E-10   -4.255E-10
    -3.344E-10   -2.466E-10   -1.621E-10   -8.073E-11   -2.511E-12    7.262E-11    1.448E-10    2.140E-10    2.803E-10    3.439E-10
     4.047E-10    4.628E-10    5.183E-10    5.713E-10    6.218E-10    6.699E-10    7.157E-10    7.591E-10    8.004E-10    8.394E-10
     8.765E-10    9.114E-10    9.445E-10    9.756E-10    1.005E-09    1.032E-09    1.058E-09    1.083E-09    1.105E-09    1.126E-09
     1.146E-09    1.164E-09    1.181E-09    1.197E-09    1.212E-09    1.225E-09    1.238E-09    1.249E-09    1.260E-09    1.270E-09
     1.279E-09    1.287E-09    1.294E-09    1.301E-09    1.308E-09    1.314E-09    1.320E-09    1.325E-09    1.330E-09    1.335E-09
     1.339E-09    1.344E-09    1.349E-09    1.353E-09    1.358E-09    1.363E-09    1.368E-09    1.374E-09    1.380E-09    1.386E-09
     1.393E-09    1.401E-09    1.409E-09    1.418E-09    1.427E-09    1.438E-09    1.449E-09    1.461E-09    1.475E-09    1.489E-09
     1.505E-09    1.522E-09    1.540E-09
 Ala      Conc. = 7.44E-10
  -1.64359E-09 -1.61577E-09 -1.61014E-09 -1.61986E-09 -1.64593E-09 -1.68901E-09 -1.75731E-09 -1.85089E-09 -1.93135E-09 -2.00981E-09
  -2.12064E-09 -2.21121E-09 -2.27388E-09 -2.34399E-09 -2.40668E-09 -2.45530E-09 -2.49661E-09 -2.53365E-09 -2.56797E-09 -2.60044E-09
  -2.63158E-09 -2.66174E-09 -2.69114E-09 -2.71995E-09 -2.74828E-09 -2.77621E-09 -2.80380E-09 -2.83110E-09 -2.85814E-09 -2.88495E-09
  -2.91154E-09 -2.93792E-09 -2.96412E-09 -2.99012E-09 -3.01595E-09 -3.04160E-09 -3.06708E-09 -3.09237E-09 -3.11749E-09 -3.14243E-09
  -3.16719E-09 -3.19176E-09 -3.21615E-09 -3.24034E-09 -3.26433E-09 -3.28812E-09 -3.31171E-09 -3.33508E-09 -3.35823E-09 -3.38116E-09
  -3.40386E-09 -3.42632E-09 -3.44854E-09 -3.47051E-09 -3.49222E-09 -3.51367E-09 -3.53486E-09 -3.55576E-09 -3.57638E-09 -3.59671E-09
  -3.61675E-09 -3.63647E-09 -3.65588E-09 -3.67497E-09 -3.69372E-09 -3.71214E-09 -3.73021E-09 -3.74791E-09 -3.76525E-09 -3.78221E-09
  -3.79877E-09 -3.81493E-09 -3.83068E-09 -3.84600E-09 -3.86089E-09 -3.87538E-09 -3.88947E-09 -3.90318E-09 -3.91652E-09 -3.92949E-09
  -3.94210E-09 -3.95434E-09 -3.96621E-09 -3.97768E-09 -3.98872E-09 -3.99929E-09 -4.00932E-09 -4.01871E-09 -4.02732E-09 -4.03497E-09
  -4.04137E-09 -4.04612E-09 -4.04863E-09 -4.04796E-09 -4.04264E-09 -4.03015E-09 -4.00585E-09 -3.96014E-09 -3.86898E-09 -3.65077E-09
  -3.18213E-09 -2.75046E-09 -2.39098E-09 -1.90586E-09 -1.43028E-09 -1.07848E-09 -9.09437E-10 -9.47238E-10 -1.19633E-09 -1.63496E-09
  -2.18012E-09 -2.67485E-09 -3.04202E-09 -3.54002E-09 -3.99931E-09 -4.19863E-09 -4.31440E-09 -4.39584E-09 -4.45994E-09 -4.51422E-09
  -4.56258E-09 -4.60727E-09 -4.64965E-09 -4.69063E-09 -4.73083E-09 -4.77068E-09 -4.81050E-09 -4.85056E-09 -4.89102E-09 -4.93204E-09
  -4.97376E-09 -5.01626E-09 -5.05964E-09 -5.10396E-09 -5.14931E-09 -5.19573E-09 -5.24328E-09 -5.29201E-09 -5.34196E-09 -5.39318E-09
  -5.44570E-09 -5.49955E-09 -5.55479E-09 -5.61143E-09 -5.66952E-09 -5.72908E-09 -5.79011E-09 -5.85253E-09 -5.91626E-09 -5.98122E-09
  -6.04732E-09 -6.11446E-09 -6.18255E-09 -6.25149E-09 -6.32117E-09 -6.39148E-09 -6.46229E-09 -6.53344E-09 -6.60475E-09 -6.67598E-09
  -6.74679E-09 -6.81667E-09 -6.88471E-09 -6.94921E-09 -7.00616E-09 -7.04347E-09 -7.00447E-09 -6.75840E-09 -6.46450E-09 -6.22868E-09
  -6.08684E-09 -6.03387E-09 -6.05613E-09 -6.14910E-09 -6.32528E-09 -6.60514E-09 -6.99641E-09 -7.44956E-09 -7.82366E-09 -7.97951E-09
  -8.08095E-09 -8.16371E-09 -8.23721E-09 -8.30496E-09 -8.36855E-09 -8.42877E-09 -8.48606E-09 -8.54066E-09 -8.59267E-09 -8.64216E-09
  -8.68916E-09 -8.73363E-09 -8.77555E-09 -8.81488E-09 -8.85159E-09 -8.88558E-09 -8.91679E-09 -8.94518E-09 -8.97067E-09 -8.99316E-09
  -9.01260E-09 -9.02890E-09 -9.04200E-09 -9.05180E-09 -9.05822E-09 -9.06120E-09 -9.06064E-09 -9.05647E-09 -9.04859E-09 -9.03695E-09
  -9.02144E-09 -9.00199E-09 -8.97851E-09 -8.95093E-09 -8.91915E-09 -8.88310E-09 -8.84269E-09 -8.79784E-09 -8.74848E-09 -8.69467E-09
  -8.63652E-09 -8.57412E-09 -8.50761E-09 -8.43708E-09 -8.36264E-09 -8.28441E-09 -8.20249E-09 -8.11700E-09 -8.02803E-09 -7.93571E-09
  -7.84014E-09 -7.74142E-09 -7.63968E-09 -7.53501E-09 -7.42753E-09 -7.31735E-09 -7.20457E-09 -7.08931E-09 -6.97167E-09 -6.85176E-09
  -6.72970E-09 -6.60558E-09 -6.47953E-09 -6.35164E-09 -6.22204E-09 -6.09082E-09 -5.95810E-09 -5.82398E-09 -5.68858E-09 -5.55200E-09
  -5.41435E-09 -5.27575E-09 -5.13629E-09 -4.99610E-09 -4.85527E-09 -4.71392E-09 -4.57215E-09 -4.43008E-09 -4.28782E-09 -4.14547E-09
  -4.00314E-09 -3.86094E-09 -3.71899E-09 -3.57736E-09 -3.43621E-09 -3.29563E-09 -3.15571E-09 -3.01659E-09 -2.87835E-09 -2.74112E-09
  -2.60499E-09 -2.47010E-09 -2.33652E-09 -2.20439E-09 -2.07379E-09 -1.94486E-09 -1.81767E-09 -1.69238E-09 -1.56906E-09 -1.44783E-09
  -1.32880E-09 -1.21207E-09 -1.09777E-09 -9.85982E-10 -8.76834E-10 -7.70426E-10 -6.66868E-10 -5.66267E-10 -4.68746E-10 -3.74391E-10
  -2.83320E-10 -1.95578E-10 -1.11089E-10 -2.97951E-11  4.83783E-11  1.23463E-10  1.95578E-10  2.64742E-10  3.31044E-10  3.94544E-10
   4.55299E-10  5.13392E-10  5.68862E-10  6.21796E-10  6.72262E-10  7.20315E-10  7.66011E-10  8.09417E-10  8.50620E-10  8.89673E-10
   9.26633E-10  9.61583E-10  9.94554E-10  1.02566E-09  1.05492E-09  1.08243E-09  1.10823E-09  1.13242E-09  1.15504E-09  1.17615E-09
   1.19582E-09  1.21415E-09  1.23115E-09  1.24690E-09  1.26150E-09  1.27500E-09  1.28743E-09  1.29888E-09  1.30941E-09  1.31911E-09
   1.32801E-09  1.33619E-09  1.34374E-09  1.35070E-09  1.35711E-09  1.36307E-09  1.36863E-09  1.37388E-09  1.37883E-09  1.38364E-09
   1.38826E-09  1.39285E-09  1.39741E-09  1.40202E-09  1.40683E-09  1.41175E-09  1.41697E-09  1.42248E-09  1.42841E-09  1.43477E-09
   1.44163E-09  1.44910E-09  1.45721E-09  1.46604E-09  1.47562E-09  1.48608E-09  1.49740E-09  1.50972E-09  1.52308E-09  1.53752E-09
   1.55315E-09  1.57000E-09  1.58812E-09
 Asp      Conc. = 2.58E-10
  -1.91643E-09 -1.98224E-09 -2.04408E-09 -2.10884E-09 -2.16949E-09 -2.23184E-09 -2.28779E-09 -2.33343E-09 -2.36889E-09 -2.40029E-09
  -2.42962E-09 -2.45772E-09 -2.48499E-09 -2.51177E-09 -2.53838E-09 -2.56483E-09 -2.59113E-09 -2.61729E-09 -2.64332E-09 -2.66922E-09
  -2.69500E-09 -2.72064E-09 -2.74615E-09 -2.77150E-09 -2.79667E-09 -2.82164E-09 -2.84639E-09 -2.87085E-09 -2.89498E-09 -2.91870E-09
  -2.94189E-09 -2.96440E-09 -2.98597E-09 -3.00619E-09 -3.02423E-09 -3.03826E-09 -3.04391E-09 -3.04780E-09 -3.04875E-09 -3.05589E-09
  -3.07102E-09 -3.09066E-09 -3.10430E-09 -3.10366E-09 -3.08403E-09 -3.04700E-09 -3.02362E-09 -3.02028E-09 -3.00890E-09 -2.99882E-09
  -2.99748E-09 -3.01669E-09 -3.06510E-09 -3.14446E-09 -3.23798E-09 -3.31891E-09 -3.37406E-09 -3.40918E-09 -3.45643E-09 -3.51075E-09
  -3.54833E-09 -3.58066E-09 -3.61047E-09 -3.63368E-09 -3.65872E-09 -3.69076E-09 -3.72504E-09 -3.75275E-09 -3.77700E-09 -3.79917E-09
  -3.81988E-09 -3.83949E-09 -3.85819E-09 -3.87612E-09 -3.89339E-09 -3.91009E-09 -3.92629E-09 -3.94207E-09 -3.95746E-09 -3.97253E-09
  -3.98732E-09 -4.00186E-09 -4.01620E-09 -4.03037E-09 -4.04441E-09 -4.05835E-09 -4.07221E-09 -4.08604E-09 -4.09987E-09 -4.11371E-09
  -4.12761E-09 -4.14159E-09 -4.15568E-09 -4.16991E-09 -4.18431E-09 -4.19890E-09 -4.21372E-09 -4.22879E-09 -4.24414E-09 -4.25979E-09
  -4.27578E-09 -4.29213E-09 -4.30887E-09 -4.32603E-09 -4.34363E-09 -4.36170E-09 -4.38027E-09 -4.39936E-09 -4.41901E-09 -4.43923E-09
  -4.46006E-09 -4.48152E-09 -4.50364E-09 -4.52645E-09 -4.54997E-09 -4.57422E-09 -4.59925E-09 -4.62508E-09 -4.65172E-09 -4.67921E-09
  -4.70757E-09 -4.73684E-09 -4.76703E-09 -4.79818E-09 -4.83031E-09 -4.86345E-09 -4.89761E-09 -4.93285E-09 -4.96917E-09 -5.00660E-09
  -5.04518E-09 -5.08492E-09 -5.12586E-09 -5.16802E-09 -5.21143E-09 -5.25611E-09 -5.30210E-09 -5.34941E-09 -5.39807E-09 -5.44811E-09
  -5.49957E-09 -5.55245E-09 -5.60679E-09 -5.66262E-09 -5.71996E-09 -5.77883E-09 -5.83924E-09 -5.90110E-09 -5.96433E-09 -6.02884E-09
  -6.09455E-09 -6.16137E-09 -6.22920E-09 -6.29796E-09 -6.36755E-09 -6.43789E-09 -6.50886E-09 -6.58036E-09 -6.65228E-09 -6.72447E-09
  -6.79675E-09 -6.86891E-09 -6.94058E-09 -7.01112E-09 -7.07915E-09 -7.14065E-09 -7.17736E-09 -7.14043E-09 -7.08513E-09 -7.04926E-09
  -7.04588E-09 -7.07331E-09 -7.12668E-09 -7.20411E-09 -7.30978E-09 -7.45079E-09 -7.63029E-09 -7.83198E-09 -8.00752E-09 -8.10462E-09
  -8.18105E-09 -8.24992E-09 -8.31455E-09 -8.37616E-09 -8.43523E-09 -8.49200E-09 -8.54657E-09 -8.59897E-09 -8.64916E-09 -8.69712E-09
  -8.74282E-09 -8.78617E-09 -8.82712E-09 -8.86559E-09 -8.90153E-09 -8.93485E-09 -8.96545E-09 -8.99329E-09 -9.01827E-09 -9.04030E-09
  -9.05932E-09 -9.07523E-09 -9.08796E-09 -9.09743E-09 -9.10354E-09 -9.10623E-09 -9.10540E-09 -9.10097E-09 -9.09286E-09 -9.08099E-09
  -9.06526E-09 -9.04560E-09 -9.02194E-09 -8.99417E-09 -8.96221E-09 -8.92599E-09 -8.88542E-09 -8.84041E-09 -8.79091E-09 -8.73696E-09
  -8.67866E-09 -8.61614E-09 -8.54950E-09 -8.47884E-09 -8.40430E-09 -8.32595E-09 -8.24392E-09 -8.15832E-09 -8.06925E-09 -7.97683E-09
