 LCModel (Version 6.3-1R) Copyright: S.W. Provencher.          Ref.: Magn. Reson. Med. 30:672-679 (1993).                
 onepulse 29x25_ftSpec_smooth_lcm
 26 lines in following concentration table = NCONC+1
    Conc.  %SD   /Cr    Metabolite                                         
 2.28E-10 174%   0.000 Ala                                                 
 3.13E-09  25%   0.000 Asp                                                 
    0.000 999%   0.000 Cr                                                  
 2.17E-09  26%   0.000 GABA                                                
    0.000 999%   0.000 Glc                                                 
    0.000 999%   0.000 Gln                                                 
    0.000 999%   0.000 Glu                                                 
 1.03E-09  46%   0.000 Glyc                                                
    0.000 999%   0.000 GPC                                                 
    0.000 999%   0.000 GSH                                                 
    0.000 999%   0.000 Ins                                                 
    0.000 999%   0.000 Lac                                                 
    0.000 999%   0.000 NAAG                                                
    0.000 999%   0.000 NAA                                                 
 1.80E-10  65%   0.000 PCh                                                 
    0.000 999%   0.000 PCr                                                 
    0.000 999%   0.000 PE                                                  
 3.24E-10  51%   0.000 Scyllo                                              
    0.000 999%   0.000 Ser                                                 
    0.000 999%   0.000 Tau                                                 
 1.80E-10  65%   0.000 GPC+PCh                                             
    0.000 999%   0.000 NAA+NAAG                                            
 1.03E-09  46%   0.000 Ins+Glyc                                            
    0.000 999%   0.000 Cr+PCr                                              
    0.000 999%   0.000 Glu+Gln                                             
   6 lines in following misc. output table
  FWHM = 0.101 ppm    S/N =   2                                            
  Data shift = 0.291 ppm                                                   
  Ph: 177 deg      99.9 deg/ppm                                            
  alphaB,S = 1.5E-01,   7.4E+01                                            
   16 spline knots.   Ns = 5(1)                                            
  (12) 4 infls.   (11) 1 extrs.                                            
  363 points on ppm-axis = NY
      4.250000     4.238821     4.227641     4.216462     4.205282     4.194103     4.182923     4.171744     4.160564     4.149385
      4.138206     4.127026     4.115847     4.104667     4.093488     4.082308     4.071129     4.059949     4.048770     4.037591
      4.026411     4.015232     4.004052     3.992873     3.981693     3.970514     3.959334     3.948155     3.936975     3.925796
      3.914617     3.903437     3.892258     3.881078     3.869899     3.858719     3.847540     3.836360     3.825181     3.814002
      3.802822     3.791643     3.780463     3.769284     3.758104     3.746925     3.735745     3.724566     3.713387     3.702207
      3.691028     3.679848     3.668669     3.657489     3.646310     3.635130     3.623951     3.612772     3.601592     3.590413
      3.579233     3.568054     3.556874     3.545695     3.534515     3.523336     3.512156     3.500977     3.489798     3.478618
      3.467439     3.456259     3.445080     3.433900     3.422721     3.411541     3.400362     3.389183     3.378003     3.366824
      3.355644     3.344465     3.333285     3.322106     3.310926     3.299747     3.288568     3.277388     3.266209     3.255029
      3.243850     3.232670     3.221491     3.210311     3.199132     3.187953     3.176773     3.165594     3.154414     3.143235
      3.132055     3.120876     3.109696     3.098517     3.087337     3.076158     3.064979     3.053799     3.042620     3.031440
      3.020261     3.009081     2.997902     2.986722     2.975543     2.964364     2.953184     2.942005     2.930825     2.919646
      2.908466     2.897287     2.886107     2.874928     2.863749     2.852569     2.841390     2.830210     2.819031     2.807851
      2.796672     2.785492     2.774313     2.763134     2.751954     2.740775     2.729595     2.718416     2.707236     2.696057
      2.684877     2.673698     2.662519     2.651339     2.640160     2.628980     2.617801     2.606621     2.595442     2.584262
      2.573083     2.561903     2.550724     2.539545     2.528365     2.517186     2.506006     2.494827     2.483647     2.472468
      2.461288     2.450109     2.438930     2.427750     2.416571     2.405391     2.394212     2.383032     2.371853     2.360673
      2.349494     2.338315     2.327135     2.315956     2.304776     2.293597     2.282417     2.271238     2.260058     2.248879
      2.237700     2.226520     2.215341     2.204161     2.192982     2.181802     2.170623     2.159443     2.148264     2.137084
      2.125905     2.114726     2.103546     2.092367     2.081187     2.070008     2.058828     2.047649     2.036469     2.025290
      2.014111     2.002931     1.991752     1.980572     1.969393     1.958213     1.947034     1.935854     1.924675     1.913496
      1.902316     1.891137     1.879957     1.868778     1.857598     1.846419     1.835239     1.824060     1.812881     1.801701
      1.790522     1.779342     1.768163     1.756983     1.745804     1.734624     1.723445     1.712265     1.701086     1.689907
      1.678727     1.667548     1.656368     1.645189     1.634009     1.622830     1.611650     1.600471     1.589292     1.578112
      1.566933     1.555753     1.544574     1.533394     1.522215     1.511035     1.499856     1.488677     1.477497     1.466318
      1.455138     1.443959     1.432779     1.421600     1.410420     1.399241     1.388062     1.376882     1.365703     1.354523
      1.343344     1.332164     1.320985     1.309805     1.298626     1.287446     1.276267     1.265088     1.253908     1.242729
      1.231549     1.220370     1.209190     1.198011     1.186831     1.175652     1.164473     1.153293     1.142114     1.130934
      1.119755     1.108575     1.097396     1.086216     1.075037     1.063858     1.052678     1.041499     1.030319     1.019140
      1.007960     0.996781     0.985601     0.974422     0.963243     0.952063     0.940884     0.929704     0.918525     0.907345
      0.896166     0.884986     0.873807     0.862628     0.851448     0.840269     0.829089     0.817910     0.806730     0.795551
      0.784371     0.773192     0.762012     0.750833     0.739654     0.728474     0.717295     0.706115     0.694936     0.683756
      0.672577     0.661397     0.650218     0.639039     0.627859     0.616680     0.605500     0.594321     0.583141     0.571962
      0.560782     0.549603     0.538424     0.527244     0.516065     0.504885     0.493706     0.482526     0.471347     0.460167
      0.448988     0.437809     0.426629     0.415450     0.404270     0.393091     0.381911     0.370732     0.359552     0.348373
      0.337193     0.326014     0.314835     0.303655     0.292476     0.281296     0.270117     0.258937     0.247758     0.236578
      0.225399     0.214220     0.203040
 NY phased data points follow
  -1.08589E-08 -1.00876E-08 -1.19299E-08 -1.13750E-08 -1.25543E-08 -1.16441E-08 -1.19694E-08 -9.82479E-09 -8.25290E-09 -6.27916E-09
  -6.15552E-09 -4.69991E-09 -5.56044E-09 -4.75845E-09 -5.18047E-09 -4.21880E-09 -4.71772E-09 -3.37611E-09 -4.18297E-09 -3.29021E-09
  -3.28981E-09 -2.15011E-09 -2.35425E-09 -1.21779E-09 -9.66089E-10  2.96547E-10 -3.19930E-10  5.27856E-10  1.80591E-11  7.69895E-10
   2.16587E-10  1.22130E-09  1.73161E-09  1.80190E-09  1.87846E-09  2.12324E-09  1.21226E-09  2.36029E-09  2.76121E-09  4.23838E-09
   4.34513E-09  5.66744E-09  5.82564E-09  6.07727E-09  5.54512E-09  5.81508E-09  5.42554E-09  6.06380E-09  5.99421E-09  6.05404E-09
   5.64583E-09  5.89876E-09  5.43604E-09  5.29739E-09  4.88630E-09  5.09861E-09  4.75666E-09  5.08222E-09  5.16756E-09  5.14852E-09
   5.20886E-09  4.37708E-09  4.87542E-09  4.33376E-09  4.82689E-09  4.71818E-09  4.97113E-09  4.62881E-09  5.31581E-09  6.00576E-09
   7.70171E-09  7.83422E-09  8.56344E-09  7.67225E-09  7.94031E-09  7.20917E-09  7.44489E-09  5.79447E-09  6.04523E-09  5.68788E-09
   5.49834E-09  5.02846E-09  5.09338E-09  4.83203E-09  6.13367E-09  7.55518E-09  9.85013E-09  1.09281E-08  1.16776E-08  1.11588E-08
   1.13034E-08  1.06729E-08  1.05357E-08  1.02314E-08  1.01523E-08  1.04003E-08  1.00763E-08  9.70788E-09  9.73569E-09  9.15461E-09
   9.56386E-09  8.68899E-09  8.76153E-09  8.43509E-09  8.31770E-09  8.19224E-09  7.99801E-09  7.86631E-09  8.08850E-09  8.07905E-09
   8.06919E-09  7.52751E-09  7.70237E-09  7.61225E-09  7.03426E-09  6.48759E-09  6.30055E-09  5.54252E-09  6.48483E-09  6.12613E-09
   6.42030E-09  5.51793E-09  5.63559E-09  5.53453E-09  5.33457E-09  5.07963E-09  4.61623E-09  4.40476E-09  3.83889E-09  3.51697E-09
   2.68485E-09  3.01866E-09  2.76253E-09  3.13283E-09  3.40444E-09  3.05827E-09  3.55080E-09  3.62244E-09  3.60576E-09  3.94383E-09
   3.69219E-09  3.55202E-09  3.91474E-09  4.26713E-09  4.49025E-09  4.81179E-09  5.45400E-09  5.56795E-09  5.04326E-09  4.59227E-09
   5.35343E-09  5.29582E-09  5.56570E-09  5.48972E-09  5.69063E-09  5.31221E-09  6.27963E-09  5.75742E-09  6.38348E-09  6.02814E-09
   6.96259E-09  6.57121E-09  7.06697E-09  6.65886E-09  6.97585E-09  7.50346E-09  7.53774E-09  7.33057E-09  7.45569E-09  7.39298E-09
   7.65291E-09  7.54716E-09  7.93444E-09  7.54487E-09  8.27113E-09  8.92850E-09  8.77912E-09  6.89553E-09  4.88415E-09  1.04063E-09
  -1.19684E-10 -2.35841E-09 -3.03614E-09 -4.34635E-09 -5.07344E-09 -5.91232E-09 -6.70380E-09 -7.78409E-09 -8.06167E-09 -9.91208E-09
  -9.59948E-09 -1.12191E-08 -1.15360E-08 -1.25813E-08 -1.29532E-08 -1.45303E-08 -1.53523E-08 -1.62766E-08 -1.64395E-08 -1.82020E-08
  -1.89358E-08 -1.98116E-08 -2.06014E-08 -2.12871E-08 -2.13197E-08 -2.15595E-08 -2.11074E-08 -2.09374E-08 -2.00837E-08 -1.98988E-08
  -1.90801E-08 -1.84175E-08 -1.77109E-08 -1.64841E-08 -1.43251E-08 -1.20015E-08 -9.83628E-09 -7.48209E-09 -4.22397E-09 -7.87668E-10
   2.81957E-09  5.86869E-09  8.99461E-09  1.01661E-08  1.14049E-08  1.03936E-08  9.34449E-09  8.04955E-09  5.79190E-09  3.96395E-09
   2.35903E-09  2.29753E-09  2.00666E-09  2.24487E-09  2.23799E-09  1.85821E-09  1.65699E-09  1.40514E-09  7.44255E-10  9.84493E-10
   1.16664E-09  1.66909E-09  1.30633E-09  1.68955E-09  1.99646E-09  1.92777E-09  2.34008E-09  1.80702E-09  1.70395E-09  1.70769E-09
   8.42035E-10  7.82433E-10  6.06234E-10  8.61087E-10  1.14186E-09  1.05071E-09  1.62320E-09  1.29113E-09  1.04999E-09  1.20487E-09
   3.68062E-10  3.29920E-11  7.41251E-11 -4.90491E-10 -9.28425E-10 -7.93794E-10 -8.80199E-10 -6.48112E-10 -5.34184E-10  1.74634E-10
  -1.72110E-10 -1.61119E-10  6.95811E-11  4.03685E-11  2.81393E-11 -5.10593E-11 -6.29061E-12 -1.19437E-10 -5.90556E-10 -4.14611E-10
  -3.37068E-10 -3.11748E-10 -6.93459E-10 -4.33264E-10 -8.58633E-10 -1.07589E-09 -8.75373E-10 -2.00241E-10 -7.78429E-10 -5.54677E-10
  -9.49934E-10 -3.63969E-10 -4.82179E-10  1.17867E-11 -3.23967E-11 -3.93690E-10 -9.91538E-11 -4.32405E-10 -3.49978E-11  7.89225E-11
  -1.35787E-10  6.88649E-11  5.53237E-10 -1.94410E-10  6.09214E-10  1.90525E-10  7.20996E-10  3.72940E-10 -1.98047E-11 -8.19519E-11
   8.04979E-11  2.02888E-10  2.51272E-10  4.83108E-10 -3.24959E-11 -4.75055E-11 -8.66079E-11 -1.82146E-11 -5.51701E-10 -1.48740E-10
  -5.11481E-10 -5.28476E-10 -4.16392E-10 -5.78040E-10 -8.46027E-10 -5.23679E-10 -8.70445E-10 -5.50558E-10 -8.15712E-10 -6.51363E-10
  -1.01407E-09 -6.03689E-10 -1.16111E-09 -1.13769E-09 -1.34285E-09 -9.55398E-10 -1.13316E-09 -1.14364E-09 -1.27243E-09 -1.43491E-09
  -1.37273E-09 -1.47866E-09 -1.22931E-09 -1.50030E-09 -1.61157E-09 -1.46693E-09 -1.63041E-09 -1.90088E-09 -2.01512E-09 -1.54029E-09
  -1.95105E-09 -1.81680E-09 -1.99738E-09 -2.10934E-09 -1.85003E-09 -1.99897E-09 -2.25039E-09 -2.42287E-09 -2.02883E-09 -2.53045E-09
  -2.22989E-09 -2.15703E-09 -2.26217E-09
 NY points of the fit to the data follow
  -9.80747E-09 -9.91575E-09 -9.91403E-09 -9.95200E-09 -1.00216E-08 -1.00419E-08 -1.00311E-08 -9.71727E-09 -8.90078E-09 -7.70653E-09
  -6.66648E-09 -5.93321E-09 -5.42488E-09 -5.01587E-09 -4.60247E-09 -4.21125E-09 -3.95110E-09 -3.76729E-09 -3.58510E-09 -3.65703E-09
  -3.52685E-09 -3.08662E-09 -2.56473E-09 -1.72192E-09 -5.54501E-10  3.87314E-10  7.56818E-10  5.02885E-10 -5.53841E-11 -2.00225E-10
   4.76246E-10  1.05098E-09  1.30092E-09  1.58456E-09  1.71243E-09  1.95714E-09  2.72325E-09  3.52663E-09  4.08537E-09  4.28378E-09
   4.21750E-09  4.12594E-09  4.29990E-09  4.20243E-09  4.35053E-09  4.79265E-09  4.78821E-09  4.58483E-09  4.89796E-09  5.45596E-09
   5.94426E-09  6.15814E-09  5.88877E-09  5.18651E-09  4.55227E-09  4.11958E-09  4.27104E-09  4.36658E-09  4.22534E-09  4.11418E-09
   4.24132E-09  4.49083E-09  5.00195E-09  5.72299E-09  6.19536E-09  6.66137E-09  7.36811E-09  7.93288E-09  8.33902E-09  8.66330E-09
   8.83200E-09  8.77004E-09  8.46988E-09  8.03013E-09  7.61291E-09  7.13130E-09  6.46748E-09  6.13936E-09  6.10259E-09  5.95513E-09
   5.92799E-09  6.11963E-09  6.28135E-09  6.51849E-09  6.98138E-09  7.37946E-09  7.72341E-09  8.18192E-09  8.61625E-09  8.95182E-09
   9.18238E-09  9.30803E-09  9.40634E-09  9.40584E-09  9.14494E-09  8.89850E-09  8.78373E-09  8.47274E-09  8.15572E-09  8.05029E-09
   8.02389E-09  7.97061E-09  7.93249E-09  7.98477E-09  8.06562E-09  8.12830E-09  8.15332E-09  8.13113E-09  8.05008E-09  7.90384E-09
   7.71305E-09  7.53606E-09  7.41515E-09  7.21484E-09  6.99431E-09  6.87916E-09  6.79630E-09  6.72414E-09  6.65558E-09  6.58759E-09
   6.51861E-09  6.44775E-09  6.37447E-09  6.29835E-09  6.21912E-09  6.13658E-09  6.05056E-09  5.96093E-09  5.86762E-09  5.77054E-09
   5.66961E-09  5.56478E-09  5.45599E-09  5.34320E-09  5.22639E-09  5.10552E-09  4.98056E-09  4.85149E-09  4.71829E-09  4.58092E-09
   4.43936E-09  4.29363E-09  4.14366E-09  3.98942E-09  3.83085E-09  3.66794E-09  3.50068E-09  3.32908E-09  3.15314E-09  2.97288E-09
   2.78838E-09  2.59969E-09  2.40698E-09  2.21040E-09  2.01024E-09  1.80686E-09  1.60084E-09  1.39295E-09  1.18442E-09  9.77069E-10
   7.73882E-10  5.79917E-10  4.04540E-10  2.66937E-10  2.14594E-10  4.05410E-10  1.58475E-09  3.90744E-09  6.58612E-09  8.54446E-09
   9.61103E-09  1.01252E-08  1.04360E-08  1.05939E-08  1.02537E-08  8.81698E-09  5.86916E-09  1.83698E-09 -1.62703E-09 -3.60941E-09
  -4.43893E-09 -4.96160E-09 -5.36979E-09 -5.71906E-09 -6.03101E-09 -6.31554E-09 -6.57752E-09 -6.81941E-09 -7.04233E-09 -7.24672E-09
  -7.43252E-09 -7.59944E-09 -7.74693E-09 -7.87436E-09 -7.98101E-09 -8.06608E-09 -8.12913E-09 -8.17083E-09 -8.19208E-09 -8.19379E-09
  -8.17680E-09 -8.14198E-09 -8.09018E-09 -8.02223E-09 -7.93897E-09 -7.84123E-09 -7.72983E-09 -7.60560E-09 -7.46936E-09 -7.32192E-09
  -7.16410E-09 -6.99672E-09 -6.82057E-09 -6.63650E-09 -6.44528E-09 -6.24775E-09 -6.04471E-09 -5.83696E-09 -5.62532E-09 -5.41060E-09
  -5.19359E-09 -4.97511E-09 -4.75596E-09 -4.53695E-09 -4.31873E-09 -4.10162E-09 -3.88589E-09 -3.67182E-09 -3.45970E-09 -3.24981E-09
  -3.04242E-09 -2.83781E-09 -2.63628E-09 -2.43809E-09 -2.24350E-09 -2.05283E-09 -1.86634E-09 -1.68432E-09 -1.50700E-09 -1.33474E-09
  -1.16777E-09 -1.00636E-09 -8.50819E-10 -7.01427E-10 -5.58420E-10 -4.22112E-10 -2.92768E-10 -1.70669E-10 -5.61089E-11  5.06295E-11
   1.49325E-10  2.39617E-10  3.21541E-10  3.95380E-10  4.61451E-10  5.20073E-10  5.71577E-10  6.16277E-10  6.54503E-10  6.86573E-10
   7.12804E-10  7.33531E-10  7.49062E-10  7.59731E-10  7.65850E-10  7.67746E-10  7.65757E-10  7.60171E-10  7.51329E-10  7.39559E-10
   7.25183E-10  7.08507E-10  6.89873E-10  6.69597E-10  6.47984E-10  6.25391E-10  6.02104E-10  5.78465E-10  5.54790E-10  5.31401E-10
   5.08419E-10  4.85812E-10  4.63539E-10  4.41558E-10  4.19831E-10  3.98313E-10  3.76967E-10  3.55749E-10  3.34619E-10  3.13538E-10
   2.92462E-10  2.71353E-10  2.50167E-10  2.28865E-10  2.07407E-10  1.85750E-10  1.63854E-10  1.41677E-10  1.19182E-10  9.63215E-11
   7.30618E-11  4.93566E-11  2.51663E-11  4.53332E-13 -2.48272E-11 -5.07150E-11 -7.72497E-11 -1.04473E-10 -1.32387E-10 -1.60980E-10
  -1.90240E-10 -2.20153E-10 -2.50706E-10 -2.81885E-10 -3.13679E-10 -3.46073E-10 -3.79055E-10 -4.12612E-10 -4.46729E-10 -4.81395E-10
  -5.16596E-10 -5.52319E-10 -5.88551E-10 -6.25278E-10 -6.62489E-10 -7.00168E-10 -7.38304E-10 -7.76884E-10 -8.15894E-10 -8.55321E-10
  -8.95152E-10 -9.35374E-10 -9.75974E-10 -1.01694E-09 -1.05825E-09 -1.09991E-09 -1.14188E-09 -1.18417E-09 -1.22675E-09 -1.26960E-09
  -1.31272E-09 -1.35608E-09 -1.39968E-09 -1.44349E-09 -1.48750E-09 -1.53169E-09 -1.57606E-09 -1.62058E-09 -1.66524E-09 -1.71002E-09
  -1.75492E-09 -1.79990E-09 -1.84496E-09 -1.89008E-09 -1.93526E-09 -1.98046E-09 -2.02568E-09 -2.07090E-09 -2.11610E-09 -2.16128E-09
  -2.20641E-09 -2.25148E-09 -2.29647E-09
 NY background values follow
    -1.374E-08   -1.344E-08   -1.315E-08   -1.285E-08   -1.256E-08   -1.226E-08   -1.197E-08   -1.168E-08   -1.138E-08   -1.109E-08
    -1.080E-08   -1.050E-08   -1.021E-08   -9.921E-09   -9.632E-09   -9.343E-09   -9.055E-09   -8.768E-09   -8.483E-09   -8.198E-09
    -7.916E-09   -7.634E-09   -7.354E-09   -7.076E-09   -6.800E-09   -6.525E-09   -6.252E-09   -5.981E-09   -5.712E-09   -5.446E-09
    -5.181E-09   -4.919E-09   -4.659E-09   -4.401E-09   -4.145E-09   -3.892E-09   -3.640E-09   -3.392E-09   -3.145E-09   -2.900E-09
    -2.658E-09   -2.419E-09   -2.181E-09   -1.946E-09   -1.714E-09   -1.484E-09   -1.256E-09   -1.031E-09   -8.079E-10   -5.875E-10
    -3.697E-10   -1.543E-10    5.850E-11    2.688E-10    4.764E-10    6.815E-10    8.841E-10    1.084E-09    1.281E-09    1.476E-09
     1.667E-09    1.856E-09    2.041E-09    2.224E-09    2.403E-09    2.579E-09    2.752E-09    2.922E-09    3.087E-09    3.250E-09
     3.409E-09    3.564E-09    3.715E-09    3.863E-09    4.006E-09    4.146E-09    4.282E-09    4.413E-09    4.540E-09    4.663E-09
     4.782E-09    4.896E-09    5.005E-09    5.110E-09    5.211E-09    5.306E-09    5.397E-09    5.484E-09    5.565E-09    5.642E-09
     5.715E-09    5.783E-09    5.846E-09    5.905E-09    5.960E-09    6.010E-09    6.056E-09    6.097E-09    6.134E-09    6.166E-09
     6.195E-09    6.218E-09    6.238E-09    6.253E-09    6.265E-09    6.272E-09    6.274E-09    6.273E-09    6.268E-09    6.258E-09
     6.244E-09    6.227E-09    6.205E-09    6.179E-09    6.149E-09    6.115E-09    6.078E-09    6.036E-09    5.989E-09    5.939E-09
     5.885E-09    5.826E-09    5.764E-09    5.697E-09    5.626E-09    5.550E-09    5.471E-09    5.387E-09    5.299E-09    5.206E-09
     5.110E-09    5.009E-09    4.903E-09    4.794E-09    4.680E-09    4.561E-09    4.438E-09    4.311E-09    4.179E-09    4.043E-09
     3.902E-09    3.757E-09    3.608E-09    3.453E-09    3.294E-09    3.130E-09    2.962E-09    2.788E-09    2.610E-09    2.427E-09
     2.238E-09    2.045E-09    1.846E-09    1.642E-09    1.433E-09    1.219E-09    9.990E-10    7.737E-10    5.430E-10    3.067E-10
     6.483E-11   -1.827E-10   -4.360E-10   -6.950E-10   -9.599E-10   -1.231E-09   -1.507E-09   -1.790E-09   -2.079E-09   -2.373E-09
    -2.671E-09   -2.972E-09   -3.275E-09   -3.580E-09   -3.884E-09   -4.188E-09   -4.490E-09   -4.790E-09   -5.085E-09   -5.376E-09
    -5.661E-09   -5.939E-09   -6.210E-09   -6.471E-09   -6.723E-09   -6.964E-09   -7.194E-09   -7.410E-09   -7.613E-09   -7.802E-09
    -7.974E-09   -8.130E-09   -8.268E-09   -8.388E-09   -8.488E-09   -8.567E-09   -8.625E-09   -8.662E-09   -8.679E-09   -8.677E-09
    -8.657E-09   -8.619E-09   -8.564E-09   -8.494E-09   -8.408E-09   -8.308E-09   -8.195E-09   -8.069E-09   -7.931E-09   -7.782E-09
    -7.623E-09   -7.454E-09   -7.277E-09   -7.092E-09   -6.899E-09   -6.701E-09   -6.497E-09   -6.288E-09   -6.076E-09   -5.860E-09
    -5.642E-09   -5.423E-09   -5.203E-09   -4.983E-09   -4.764E-09   -4.547E-09   -4.330E-09   -4.116E-09   -3.903E-09   -3.692E-09
    -3.484E-09   -3.279E-09   -3.077E-09   -2.879E-09   -2.683E-09   -2.492E-09   -2.305E-09   -2.123E-09   -1.945E-09   -1.772E-09
    -1.605E-09   -1.443E-09   -1.287E-09   -1.138E-09   -9.941E-10   -8.575E-10   -7.278E-10   -6.053E-10   -4.904E-10   -3.833E-10
    -2.843E-10   -1.937E-10   -1.114E-10   -3.726E-11    2.913E-11    8.806E-11    1.399E-10    1.849E-10    2.234E-10    2.557E-10
     2.823E-10    3.033E-10    3.191E-10    3.300E-10    3.364E-10    3.386E-10    3.369E-10    3.315E-10    3.230E-10    3.115E-10
     2.973E-10    2.809E-10    2.625E-10    2.425E-10    2.211E-10    1.988E-10    1.757E-10    1.523E-10    1.289E-10    1.058E-10
     8.301E-11    6.063E-11    3.859E-11    1.684E-11   -4.656E-12   -2.595E-11   -4.707E-11   -6.806E-11   -8.896E-11   -1.098E-10
    -1.307E-10   -1.516E-10   -1.725E-10   -1.936E-10   -2.149E-10   -2.363E-10   -2.580E-10   -2.799E-10   -3.022E-10   -3.249E-10
    -3.479E-10   -3.714E-10   -3.954E-10   -4.199E-10   -4.449E-10   -4.706E-10   -4.970E-10   -5.240E-10   -5.517E-10   -5.801E-10
    -6.091E-10   -6.388E-10   -6.691E-10   -7.001E-10   -7.317E-10   -7.639E-10   -7.967E-10   -8.300E-10   -8.639E-10   -8.984E-10
    -9.334E-10   -9.689E-10   -1.005E-09   -1.041E-09   -1.078E-09   -1.116E-09   -1.154E-09   -1.192E-09   -1.231E-09   -1.270E-09
    -1.310E-09   -1.350E-09   -1.390E-09   -1.431E-09   -1.472E-09   -1.514E-09   -1.555E-09   -1.597E-09   -1.640E-09   -1.682E-09
    -1.725E-09   -1.768E-09   -1.812E-09   -1.855E-09   -1.899E-09   -1.943E-09   -1.987E-09   -2.032E-09   -2.076E-09   -2.121E-09
    -2.165E-09   -2.210E-09   -2.255E-09   -2.300E-09   -2.345E-09   -2.390E-09   -2.435E-09   -2.480E-09   -2.525E-09   -2.570E-09
    -2.615E-09   -2.659E-09   -2.704E-09
 Ala      Conc. = 2.28E-10
  -1.35754E-08 -1.32628E-08 -1.29582E-08 -1.26572E-08 -1.23601E-08 -1.20672E-08 -1.17820E-08 -1.15088E-08 -1.12311E-08 -1.09477E-08
  -1.06819E-08 -1.04142E-08 -1.01326E-08 -9.85566E-09 -9.57973E-09 -9.29921E-09 -9.01689E-09 -8.73413E-09 -8.45157E-09 -8.16961E-09
  -7.88855E-09 -7.60859E-09 -7.32997E-09 -7.05275E-09 -6.77704E-09 -6.50310E-09 -6.23091E-09 -5.96057E-09 -5.69225E-09 -5.42600E-09
  -5.16187E-09 -4.89984E-09 -4.63998E-09 -4.38229E-09 -4.12679E-09 -3.87350E-09 -3.62246E-09 -3.37367E-09 -3.12715E-09 -2.88291E-09
  -2.64100E-09 -2.40139E-09 -2.16416E-09 -1.92926E-09 -1.69679E-09 -1.46667E-09 -1.23898E-09 -1.01377E-09 -7.90954E-10 -5.70632E-10
  -3.52825E-10 -1.37471E-10  7.53284E-11  2.85600E-10  4.93208E-10  6.98372E-10  9.00957E-10  1.10087E-09  1.29808E-09  1.49252E-09
   1.68411E-09  1.87277E-09  2.05843E-09  2.24102E-09  2.42045E-09  2.59666E-09  2.76957E-09  2.93911E-09  3.10520E-09  3.26776E-09
   3.42674E-09  3.58204E-09  3.73361E-09  3.88135E-09  4.02521E-09  4.16510E-09  4.30096E-09  4.43273E-09  4.56033E-09  4.68366E-09
   4.80271E-09  4.91737E-09  5.02761E-09  5.13333E-09  5.23451E-09  5.33112E-09  5.42322E-09  5.51087E-09  5.59415E-09  5.67315E-09
   5.74799E-09  5.81881E-09  5.88584E-09  5.94939E-09  6.00993E-09  6.06825E-09  6.12576E-09  6.18537E-09  6.25420E-09  6.35606E-09
   6.53937E-09  6.68868E-09  6.79076E-09  6.94453E-09  7.10253E-09  7.22614E-09  7.30081E-09  7.31975E-09  7.27315E-09  7.15603E-09
   6.99011E-09  6.83479E-09  6.73309E-09  6.54984E-09  6.34450E-09  6.24282E-09  6.17189E-09  6.11047E-09  6.05166E-09  5.99253E-09
   5.93164E-09  5.86816E-09  5.80159E-09  5.73162E-09  5.65801E-09  5.58063E-09  5.49935E-09  5.41408E-09  5.32476E-09  5.23133E-09
   5.13372E-09  5.03192E-09  4.92589E-09  4.81557E-09  4.70097E-09  4.58203E-09  4.45875E-09  4.33110E-09  4.19906E-09  4.06261E-09
   3.92168E-09  3.77629E-09  3.62636E-09  3.47182E-09  3.31262E-09  3.14870E-09  2.98000E-09  2.80647E-09  2.62804E-09  2.44465E-09
   2.25627E-09  2.06282E-09  1.86426E-09  1.66054E-09  1.45161E-09  1.23742E-09  1.01794E-09  7.93115E-10  5.62953E-10  3.27423E-10
   8.65633E-11 -1.59544E-10 -4.10659E-10 -6.66380E-10 -9.25497E-10 -1.18445E-09 -1.42694E-09 -1.60533E-09 -1.78653E-09 -2.00638E-09
  -2.26368E-09 -2.54152E-09 -2.82488E-09 -3.11058E-09 -3.41021E-09 -3.74635E-09 -4.13793E-09 -4.57498E-09 -4.99694E-09 -5.32379E-09
  -5.62223E-09 -5.90728E-09 -6.18182E-09 -6.44620E-09 -6.70002E-09 -6.94260E-09 -7.17311E-09 -7.39068E-09 -7.59434E-09 -7.78316E-09
  -7.95618E-09 -8.11244E-09 -8.25095E-09 -8.37070E-09 -8.47073E-09 -8.55006E-09 -8.60807E-09 -8.64533E-09 -8.66264E-09 -8.66081E-09
  -8.64066E-09 -8.60298E-09 -8.54858E-09 -8.47826E-09 -8.39284E-09 -8.29310E-09 -8.17987E-09 -8.05394E-09 -7.91613E-09 -7.76722E-09
  -7.60803E-09 -7.43937E-09 -7.26202E-09 -7.07681E-09 -6.88453E-09 -6.68599E-09 -6.48199E-09 -6.27334E-09 -6.06084E-09 -5.84529E-09
  -5.62750E-09 -5.40827E-09 -5.18841E-09 -4.96871E-09 -4.74984E-09 -4.53209E-09 -4.31576E-09 -4.10110E-09 -3.88841E-09 -3.67797E-09
  -3.47006E-09 -3.26494E-09 -3.06291E-09 -2.86424E-09 -2.66919E-09 -2.47807E-09 -2.29113E-09 -2.10869E-09 -1.93095E-09 -1.75828E-09
  -1.59092E-09 -1.42912E-09 -1.27320E-09 -1.12344E-09 -9.80066E-10 -8.43403E-10 -7.13712E-10 -5.91272E-10 -4.76377E-10 -3.69311E-10
  -2.70294E-10 -1.79686E-10 -9.74511E-11 -2.33061E-11  4.30658E-11  1.01983E-10  1.53779E-10  1.98766E-10  2.37274E-10  2.69623E-10
   2.96130E-10  3.17128E-10  3.32928E-10  3.43862E-10  3.50243E-10  3.52398E-10  3.50665E-10  3.45332E-10  3.36741E-10  3.25219E-10
   3.11087E-10  2.94655E-10  2.76262E-10  2.56224E-10  2.34847E-10  2.12489E-10  1.89435E-10  1.66027E-10  1.42580E-10  1.19419E-10
   9.66633E-11  7.42813E-11  5.22313E-11  3.04713E-11  8.96426E-12 -1.23346E-11 -3.34631E-11 -5.44648E-11 -7.53797E-11 -9.62470E-11
  -1.17109E-10 -1.38007E-10 -1.58981E-10 -1.80073E-10 -2.01322E-10 -2.22771E-10 -2.44459E-10 -2.66428E-10 -2.88717E-10 -3.11371E-10
  -3.34426E-10 -3.57926E-10 -3.81913E-10 -4.06422E-10 -4.31499E-10 -4.57184E-10 -4.83517E-10 -5.10537E-10 -5.38250E-10 -5.66642E-10
  -5.95700E-10 -6.25412E-10 -6.55764E-10 -6.86743E-10 -7.18336E-10 -7.50530E-10 -7.83311E-10 -8.16667E-10 -8.50585E-10 -8.85051E-10
  -9.20051E-10 -9.55574E-10 -9.91606E-10 -1.02813E-09 -1.06514E-09 -1.10262E-09 -1.14056E-09 -1.17894E-09 -1.21774E-09 -1.25697E-09
  -1.29660E-09 -1.33662E-09 -1.37702E-09 -1.41778E-09 -1.45889E-09 -1.50034E-09 -1.54211E-09 -1.58420E-09 -1.62657E-09 -1.66922E-09
  -1.71213E-09 -1.75529E-09 -1.79868E-09 -1.84228E-09 -1.88608E-09 -1.93007E-09 -1.97423E-09 -2.01854E-09 -2.06299E-09 -2.10756E-09
  -2.15224E-09 -2.19701E-09 -2.24186E-09 -2.28677E-09 -2.33173E-09 -2.37672E-09 -2.42172E-09 -2.46672E-09 -2.51171E-09 -2.55667E-09
  -2.60158E-09 -2.64642E-09 -2.69120E-09
 Asp      Conc. = 3.13E-09
  -1.04243E-08 -1.05844E-08 -1.06542E-08 -1.07796E-08 -1.09455E-08 -1.10716E-08 -1.12012E-08 -1.11090E-08 -1.09249E-08 -1.06993E-08
  -1.04507E-08 -1.01870E-08 -9.91313E-09 -9.63399E-09 -9.35366E-09 -9.07169E-09 -8.78845E-09 -8.50436E-09 -8.21972E-09 -7.93475E-09
  -7.64964E-09 -7.36448E-09 -7.07937E-09 -6.79421E-09 -6.50892E-09 -6.22344E-09 -5.93738E-09 -5.65033E-09 -5.36170E-09 -5.07053E-09
  -4.77534E-09 -4.47378E-09 -4.16201E-09 -3.83299E-09 -3.47171E-09 -3.03955E-09 -2.54692E-09 -2.02946E-09 -1.57204E-09 -1.21694E-09
  -9.13650E-10 -5.59894E-10  4.66942E-11  7.47322E-10  1.73594E-09  2.53593E-09  2.94765E-09  3.28716E-09  3.87288E-09  4.57230E-09
   5.14257E-09  5.40492E-09  5.16276E-09  4.47223E-09  3.83675E-09  3.39101E-09  3.51722E-09  3.57298E-09  3.37286E-09  3.17509E-09
   3.17072E-09  3.20476E-09  3.30626E-09  3.48520E-09  3.55304E-09  3.48846E-09  3.49378E-09  3.55677E-09  3.64795E-09  3.75443E-09
   3.86962E-09  3.98971E-09  4.11232E-09  4.23584E-09  4.35913E-09  4.48133E-09  4.60183E-09  4.72011E-09  4.83578E-09  4.94847E-09
   5.05794E-09  5.16392E-09  5.26623E-09  5.36464E-09  5.45903E-09  5.54925E-09  5.63529E-09  5.71710E-09  5.79466E-09  5.86796E-09
   5.93700E-09  6.00175E-09  6.06223E-09  6.11843E-09  6.17036E-09  6.21802E-09  6.26143E-09  6.30059E-09  6.33551E-09  6.36622E-09
   6.39272E-09  6.41503E-09  6.43317E-09  6.44715E-09  6.45700E-09  6.46273E-09  6.46437E-09  6.46193E-09  6.45544E-09  6.44491E-09
   6.43037E-09  6.41184E-09  6.38934E-09  6.36286E-09  6.33240E-09  6.29791E-09  6.25942E-09  6.21687E-09  6.17027E-09  6.11957E-09
   6.06478E-09  6.00588E-09  5.94284E-09  5.87566E-09  5.80431E-09  5.72879E-09  5.64906E-09  5.56512E-09  5.47697E-09  5.38457E-09
   5.28790E-09  5.18697E-09  5.08176E-09  4.97224E-09  4.85842E-09  4.74026E-09  4.61778E-09  4.49095E-09  4.35977E-09  4.22423E-09
   4.08428E-09  3.93995E-09  3.79116E-09  3.63789E-09  3.48009E-09  3.31771E-09  3.15075E-09  2.97916E-09  2.80293E-09  2.62205E-09
   2.43655E-09  2.24643E-09  2.05174E-09  1.85258E-09  1.64905E-09  1.44136E-09  1.22979E-09  1.01478E-09  7.97012E-10  5.77531E-10
   3.58107E-10  1.41819E-10 -6.54172E-11 -2.50994E-10 -3.81740E-10 -3.38085E-10  4.78249E-10  1.63967E-09  2.48966E-09  2.87449E-09
   2.94623E-09  2.90842E-09  2.84945E-09  2.67334E-09  2.11545E-09  8.83077E-10 -1.05689E-09 -3.15822E-09 -4.32258E-09 -4.87700E-09
  -5.28038E-09 -5.62401E-09 -5.93514E-09 -6.22411E-09 -6.49534E-09 -6.75074E-09 -6.99099E-09 -7.21611E-09 -7.42577E-09 -7.61944E-09
  -7.79642E-09 -7.95597E-09 -8.09723E-09 -8.21931E-09 -8.32134E-09 -8.40239E-09 -8.46188E-09 -8.50043E-09 -8.51888E-09 -8.51807E-09
  -8.49881E-09 -8.46192E-09 -8.40823E-09 -8.33856E-09 -8.25372E-09 -8.15451E-09 -8.04176E-09 -7.91627E-09 -7.77885E-09 -7.63031E-09
  -7.47146E-09 -7.30311E-09 -7.12606E-09 -6.94112E-09 -6.74909E-09 -6.55079E-09 -6.34701E-09 -6.13856E-09 -5.92626E-09 -5.71090E-09
  -5.49328E-09 -5.27421E-09 -5.05451E-09 -4.83496E-09 -4.61622E-09 -4.39861E-09 -4.18241E-09 -3.96787E-09 -3.75531E-09 -3.54498E-09
