 LCModel (Version 6.3-1R) Copyright: S.W. Provencher.          Ref.: Magn. Reson. Med. 30:672-679 (1993).                
 onepulse 29x21_ftSpec_smooth_lcm
 26 lines in following concentration table = NCONC+1
    Conc.  %SD   /Cr    Metabolite                                         
 6.50E-10  87%   0.000 Ala                                                 
    0.000 999%   0.000 Asp                                                 
    0.000 999%   0.000 Cr                                                  
 1.49E-09  49%   0.000 GABA                                                
 4.64E-10 310%   0.000 Glc                                                 
 7.53E-10 133%   0.000 Gln                                                 
    0.000 999%   0.000 Glu                                                 
 4.86E-10 580%   0.000 Glyc                                                
    0.000 999%   0.000 GPC                                                 
    0.000 999%   0.000 GSH                                                 
 5.75E-10 487%   0.000 Ins                                                 
 2.21E-10 246%   0.000 Lac                                                 
    0.000 999%   0.000 NAAG                                                
 8.56E-10  57%   0.000 NAA                                                 
    0.000 999%   0.000 PCh                                                 
    0.000 999%   0.000 PCr                                                 
 1.10E-09 100%   0.000 PE                                                  
 1.07E-10 351%   0.000 Scyllo                                              
 1.95E-09  80%   0.000 Ser                                                 
    0.000 999%   0.000 Tau                                                 
    0.000 999%   0.000 GPC+PCh                                             
 8.56E-10  57%   0.000 NAA+NAAG                                            
 1.06E-09  75%   0.000 Ins+Glyc                                            
    0.000 999%   0.000 Cr+PCr                                              
 7.53E-10 133%   0.000 Glu+Gln                                             
   6 lines in following misc. output table
  FWHM = 0.089 ppm    S/N =   2                                            
  Data shift = 0.380 ppm                                                   
  Ph:   5 deg     -19.8 deg/ppm                                            
  alphaB,S = 5.4E+01,   5.1E+01                                            
    8 spline knots.   Ns = 5(1)                                            
  (10) 2 infls.   ( 7) 1 extrs.                                            
  363 points on ppm-axis = NY
      4.250000     4.238821     4.227641     4.216462     4.205282     4.194103     4.182923     4.171744     4.160564     4.149385
      4.138206     4.127026     4.115847     4.104667     4.093488     4.082308     4.071129     4.059949     4.048770     4.037591
      4.026411     4.015232     4.004052     3.992873     3.981693     3.970514     3.959334     3.948155     3.936975     3.925796
      3.914617     3.903437     3.892258     3.881078     3.869899     3.858719     3.847540     3.836360     3.825181     3.814002
      3.802822     3.791643     3.780463     3.769284     3.758104     3.746925     3.735745     3.724566     3.713387     3.702207
      3.691028     3.679848     3.668669     3.657489     3.646310     3.635130     3.623951     3.612772     3.601592     3.590413
      3.579233     3.568054     3.556874     3.545695     3.534515     3.523336     3.512156     3.500977     3.489798     3.478618
      3.467439     3.456259     3.445080     3.433900     3.422721     3.411541     3.400362     3.389183     3.378003     3.366824
      3.355644     3.344465     3.333285     3.322106     3.310926     3.299747     3.288568     3.277388     3.266209     3.255029
      3.243850     3.232670     3.221491     3.210311     3.199132     3.187953     3.176773     3.165594     3.154414     3.143235
      3.132055     3.120876     3.109696     3.098517     3.087337     3.076158     3.064979     3.053799     3.042620     3.031440
      3.020261     3.009081     2.997902     2.986722     2.975543     2.964364     2.953184     2.942005     2.930825     2.919646
      2.908466     2.897287     2.886107     2.874928     2.863749     2.852569     2.841390     2.830210     2.819031     2.807851
      2.796672     2.785492     2.774313     2.763134     2.751954     2.740775     2.729595     2.718416     2.707236     2.696057
      2.684877     2.673698     2.662519     2.651339     2.640160     2.628980     2.617801     2.606621     2.595442     2.584262
      2.573083     2.561903     2.550724     2.539545     2.528365     2.517186     2.506006     2.494827     2.483647     2.472468
      2.461288     2.450109     2.438930     2.427750     2.416571     2.405391     2.394212     2.383032     2.371853     2.360673
      2.349494     2.338315     2.327135     2.315956     2.304776     2.293597     2.282417     2.271238     2.260058     2.248879
      2.237700     2.226520     2.215341     2.204161     2.192982     2.181802     2.170623     2.159443     2.148264     2.137084
      2.125905     2.114726     2.103546     2.092367     2.081187     2.070008     2.058828     2.047649     2.036469     2.025290
      2.014111     2.002931     1.991752     1.980572     1.969393     1.958213     1.947034     1.935854     1.924675     1.913496
      1.902316     1.891137     1.879957     1.868778     1.857598     1.846419     1.835239     1.824060     1.812881     1.801701
      1.790522     1.779342     1.768163     1.756983     1.745804     1.734624     1.723445     1.712265     1.701086     1.689907
      1.678727     1.667548     1.656368     1.645189     1.634009     1.622830     1.611650     1.600471     1.589292     1.578112
      1.566933     1.555753     1.544574     1.533394     1.522215     1.511035     1.499856     1.488677     1.477497     1.466318
      1.455138     1.443959     1.432779     1.421600     1.410420     1.399241     1.388062     1.376882     1.365703     1.354523
      1.343344     1.332164     1.320985     1.309805     1.298626     1.287446     1.276267     1.265088     1.253908     1.242729
      1.231549     1.220370     1.209190     1.198011     1.186831     1.175652     1.164473     1.153293     1.142114     1.130934
      1.119755     1.108575     1.097396     1.086216     1.075037     1.063858     1.052678     1.041499     1.030319     1.019140
      1.007960     0.996781     0.985601     0.974422     0.963243     0.952063     0.940884     0.929704     0.918525     0.907345
      0.896166     0.884986     0.873807     0.862628     0.851448     0.840269     0.829089     0.817910     0.806730     0.795551
      0.784371     0.773192     0.762012     0.750833     0.739654     0.728474     0.717295     0.706115     0.694936     0.683756
      0.672577     0.661397     0.650218     0.639039     0.627859     0.616680     0.605500     0.594321     0.583141     0.571962
      0.560782     0.549603     0.538424     0.527244     0.516065     0.504885     0.493706     0.482526     0.471347     0.460167
      0.448988     0.437809     0.426629     0.415450     0.404270     0.393091     0.381911     0.370732     0.359552     0.348373
      0.337193     0.326014     0.314835     0.303655     0.292476     0.281296     0.270117     0.258937     0.247758     0.236578
      0.225399     0.214220     0.203040
 NY phased data points follow
   1.67926E-08  1.80902E-08  1.66270E-08  1.79167E-08  1.61057E-08  1.70051E-08  1.53133E-08  1.63740E-08  1.48378E-08  1.59791E-08
   1.45022E-08  1.59870E-08  1.48320E-08  1.61946E-08  1.49561E-08  1.59269E-08  1.41692E-08  1.52105E-08  1.42376E-08  1.46649E-08
   1.37070E-08  1.44586E-08  1.31069E-08  1.43641E-08  1.32478E-08  1.43872E-08  1.27815E-08  1.38983E-08  1.29287E-08  1.40068E-08
   1.33290E-08  1.43292E-08  1.31995E-08  1.32600E-08  1.20295E-08  1.25325E-08  1.01355E-08  1.12831E-08  9.59947E-09  1.01045E-08
   8.87151E-09  9.46590E-09  8.33902E-09  8.52210E-09  7.39535E-09  7.63781E-09  6.91395E-09  7.63367E-09  6.81599E-09  7.91264E-09
   6.75149E-09  7.39620E-09  5.98490E-09  7.66634E-09  6.45417E-09  7.39786E-09  6.78009E-09  7.94456E-09  7.30281E-09  8.84737E-09
   8.30504E-09  9.75506E-09  8.64055E-09  9.50943E-09  8.17624E-09  7.86538E-09  6.31129E-09  6.84905E-09  5.34696E-09  6.15560E-09
   5.35730E-09  6.01204E-09  5.03228E-09  6.41185E-09  5.48460E-09  7.25200E-09  8.31338E-09  9.66030E-09  9.26430E-09  9.08609E-09
   7.97476E-09  8.05276E-09  6.76288E-09  5.57974E-09  5.21665E-09  4.50143E-09  3.92544E-09  3.85415E-09  2.83365E-09  2.38083E-09
   1.48665E-09  9.19110E-10  4.86721E-10  3.36258E-10 -3.62427E-10  4.47925E-12 -5.32176E-10 -8.11644E-10 -8.85725E-10 -1.11927E-09
  -9.47225E-10 -9.65236E-10 -1.51449E-09 -1.81869E-09 -2.09351E-09 -2.37016E-09 -3.04156E-09 -3.04142E-09 -3.60085E-09 -2.95322E-09
  -3.31408E-09 -3.19086E-09 -2.60489E-09 -3.20031E-09 -3.24783E-09 -3.22160E-09 -3.09621E-09 -3.63356E-09 -3.37408E-09 -3.47335E-09
  -3.81881E-09 -3.65100E-09 -3.82956E-09 -3.77511E-09 -3.50156E-09 -3.01379E-09 -2.98394E-09 -3.04510E-09 -2.82182E-09 -2.79814E-09
  -2.99306E-09 -2.98603E-09 -3.20817E-09 -2.36978E-09 -2.72905E-09 -1.82768E-09 -2.26573E-09 -1.46342E-09 -1.64747E-09 -1.85962E-09
  -1.89516E-09 -1.49479E-09 -1.90726E-09 -8.18266E-10 -2.09637E-09 -1.53526E-09 -2.41525E-09 -2.06871E-09 -2.05853E-09 -2.45243E-09
  -2.86472E-09 -2.76578E-09 -3.14642E-09 -3.23540E-09 -3.31724E-09 -3.44847E-09 -3.64107E-09 -3.64550E-09 -4.00826E-09 -3.76092E-09
  -4.41873E-09 -4.54732E-09 -4.70854E-09 -4.59393E-09 -5.10211E-09 -5.01160E-09 -6.19118E-09 -6.13135E-09 -8.36983E-09 -9.64643E-09
  -1.19642E-08 -1.42518E-08 -1.57436E-08 -1.73651E-08 -1.80446E-08 -1.91737E-08 -1.94508E-08 -2.01789E-08 -2.06535E-08 -2.06604E-08
  -2.06935E-08 -2.16176E-08 -2.12459E-08 -2.15746E-08 -2.20998E-08 -2.28663E-08 -2.29439E-08 -2.33588E-08 -2.37004E-08 -2.34830E-08
  -2.34972E-08 -2.38690E-08 -2.33916E-08 -2.21134E-08 -2.15337E-08 -1.92636E-08 -1.71961E-08 -1.45012E-08 -1.13664E-08 -7.77978E-09
  -3.74584E-09  3.20570E-10  3.71838E-09  7.93358E-09  1.08929E-08  1.39962E-08  1.64368E-08  1.88225E-08  1.89023E-08  1.97462E-08
   1.92711E-08  1.89135E-08  1.71336E-08  1.50658E-08  1.28130E-08  1.08621E-08  9.14518E-09  6.75288E-09  5.87712E-09  4.86427E-09
   4.13699E-09  3.18183E-09  3.02819E-09  2.74820E-09  2.25288E-09  2.51235E-09  1.96836E-09  2.19006E-09  2.42342E-09  2.05060E-09
   1.44902E-09  1.29428E-09  1.71315E-09  1.56971E-09  1.32120E-09  1.68793E-09  1.20888E-09  1.59231E-09  1.36583E-09  1.49742E-09
   1.13396E-09  1.19929E-09  7.07690E-10  4.42993E-10  6.98450E-10  8.99391E-10  6.98766E-10  8.91414E-10  8.41024E-10  8.20979E-10
   4.48821E-10  1.03423E-09  1.67139E-10  4.97022E-10  2.63957E-10 -2.41203E-10 -4.02221E-10 -1.69399E-10 -1.42961E-10  3.24774E-10
   3.75051E-10  3.49967E-10  6.30423E-10  5.23336E-10  4.09430E-10  3.55255E-10  1.53988E-10  5.62045E-11 -8.44417E-11  3.48566E-10
   5.61587E-12 -7.93181E-10 -7.33498E-10 -1.43727E-10 -5.56901E-10 -1.02785E-09 -9.83204E-10 -5.78193E-10 -1.09149E-09 -7.77366E-10
  -5.39091E-10 -6.19764E-10 -9.27493E-10 -8.15257E-10 -9.82343E-10  9.74057E-11 -6.41719E-10 -7.72428E-10 -4.60026E-10 -2.21940E-10
  -8.87130E-10 -8.28656E-10 -1.09070E-09 -5.99764E-10 -7.54642E-10 -6.51503E-10 -4.87051E-10 -9.31819E-10 -3.95499E-10 -7.68841E-10
  -2.19808E-10 -1.08624E-09 -3.35906E-10 -8.16853E-10 -2.03610E-10 -6.95063E-10 -7.09942E-10 -9.25200E-10 -4.57398E-10 -8.83229E-10
  -6.31745E-10 -9.81094E-10 -7.84749E-10 -1.34708E-09 -7.64567E-10 -1.09778E-09 -1.07898E-09 -1.33634E-09 -1.12355E-09 -9.23520E-10
  -1.01011E-09 -1.47170E-09 -1.06875E-09 -1.11228E-09 -1.59674E-09 -1.63300E-09 -1.26158E-09 -2.18174E-09 -1.41794E-09 -2.08087E-09
  -1.22054E-09 -2.27431E-09 -1.52933E-09 -2.37053E-09 -1.60966E-09 -2.75006E-09 -1.83188E-09 -2.63948E-09 -1.82916E-09 -2.25638E-09
  -2.25346E-09 -2.61254E-09 -2.31114E-09 -2.49067E-09 -2.43494E-09 -2.77394E-09 -2.63926E-09 -3.16508E-09 -3.15047E-09 -2.72611E-09
  -2.50342E-09 -3.06804E-09 -3.17315E-09 -3.28821E-09 -2.65882E-09 -3.48525E-09 -2.51781E-09 -3.61933E-09 -2.93227E-09 -3.53136E-09
  -3.37386E-09 -4.35485E-09 -3.51390E-09
 NY points of the fit to the data follow
   2.03781E-08  1.94325E-08  1.86241E-08  1.80551E-08  1.73731E-08  1.65463E-08  1.56538E-08  1.49204E-08  1.46904E-08  1.49224E-08
   1.53419E-08  1.58260E-08  1.62599E-08  1.65802E-08  1.67220E-08  1.66254E-08  1.62887E-08  1.57219E-08  1.49623E-08  1.42554E-08
   1.39999E-08  1.40751E-08  1.42095E-08  1.43818E-08  1.45596E-08  1.47612E-08  1.49244E-08  1.49271E-08  1.47840E-08  1.46563E-08
   1.44072E-08  1.39588E-08  1.36080E-08  1.33694E-08  1.30325E-08  1.27542E-08  1.24813E-08  1.22078E-08  1.18315E-08  1.13397E-08
   1.08021E-08  1.02797E-08  9.64984E-09  9.12061E-09  8.89400E-09  8.64327E-09  8.37235E-09  8.26815E-09  8.24344E-09  8.25081E-09
   8.29646E-09  8.35917E-09  8.44569E-09  8.54626E-09  8.69312E-09  8.85832E-09  9.03112E-09  9.20336E-09  9.32428E-09  9.35082E-09
   9.34998E-09  9.38069E-09  9.42211E-09  9.34978E-09  9.28397E-09  9.13940E-09  8.82819E-09  8.41101E-09  7.97391E-09  7.54413E-09
   7.05404E-09  6.53700E-09  6.12197E-09  5.90486E-09  5.82631E-09  5.93793E-09  6.53317E-09  7.48177E-09  8.15253E-09  8.46644E-09
   8.32584E-09  7.72605E-09  6.86401E-09  5.76122E-09  4.34151E-09  2.82170E-09  1.42042E-09  3.39610E-10 -4.30793E-11  1.73790E-10
   2.35928E-10  1.86318E-10  1.68037E-11 -1.86465E-10 -2.73538E-10 -3.48679E-10 -4.27614E-10 -3.45394E-10 -1.59513E-10  9.47789E-11
   3.35657E-10  4.55957E-10  5.46770E-10  5.43203E-10  3.59487E-10 -1.11516E-12 -4.87269E-10 -1.08960E-09 -1.73808E-09 -2.29288E-09
  -2.71478E-09 -3.00965E-09 -3.34967E-09 -3.62929E-09 -3.67606E-09 -3.69988E-09 -3.73981E-09 -3.74662E-09 -3.70650E-09 -3.67699E-09
  -3.60131E-09 -3.45046E-09 -3.33298E-09 -3.24514E-09 -3.17661E-09 -3.12128E-09 -3.07532E-09 -3.03620E-09 -3.00210E-09 -2.97169E-09
  -2.94395E-09 -2.91805E-09 -2.89334E-09 -2.86927E-09 -2.84536E-09 -2.82119E-09 -2.79644E-09 -2.77073E-09 -2.74377E-09 -2.71525E-09
  -2.68492E-09 -2.65247E-09 -2.61764E-09 -2.58011E-09 -2.53958E-09 -2.49572E-09 -2.44817E-09 -2.39652E-09 -2.34034E-09 -2.27911E-09
  -2.21223E-09 -2.13902E-09 -2.05864E-09 -1.97013E-09 -1.87227E-09 -1.76360E-09 -1.64227E-09 -1.50594E-09 -1.35159E-09 -1.17523E-09
  -9.71476E-10 -7.32986E-10 -4.49374E-10 -1.05954E-10  3.16931E-10  8.31744E-10  1.25482E-09 -2.89322E-10 -3.56760E-09 -7.68336E-09
  -1.19107E-08 -1.58064E-08 -1.90975E-08 -2.15222E-08 -2.27115E-08 -2.22072E-08 -1.96739E-08 -1.53744E-08 -1.08001E-08 -8.60319E-09
  -7.40967E-09 -6.62296E-09 -6.04847E-09 -5.60168E-09 -5.23875E-09 -4.93427E-09 -4.67234E-09 -4.44245E-09 -4.23724E-09 -4.05151E-09
  -3.88142E-09 -3.72402E-09 -3.57711E-09 -3.43893E-09 -3.30812E-09 -3.18355E-09 -3.06430E-09 -2.94968E-09 -2.83908E-09 -2.73195E-09
  -2.62791E-09 -2.52658E-09 -2.42770E-09 -2.33098E-09 -2.23622E-09 -2.14325E-09 -2.05191E-09 -1.96206E-09 -1.87358E-09 -1.78642E-09
  -1.70043E-09 -1.61561E-09 -1.53187E-09 -1.44916E-09 -1.36744E-09 -1.28671E-09 -1.20691E-09 -1.12802E-09 -1.05006E-09 -9.72992E-10
  -8.96818E-10 -8.21528E-10 -7.47133E-10 -6.73627E-10 -6.01028E-10 -5.29327E-10 -4.58546E-10 -3.88694E-10 -3.19782E-10 -2.51829E-10
  -1.84842E-10 -1.18844E-10 -5.38525E-11  1.01160E-11  7.30435E-11  1.34908E-10  1.95692E-10  2.55372E-10  3.13929E-10  3.71340E-10
   4.27584E-10  4.82646E-10  5.36496E-10  5.89116E-10  6.40480E-10  6.90573E-10  7.39371E-10  7.86854E-10  8.33001E-10  8.77786E-10
   9.21197E-10  9.63205E-10  1.00380E-09  1.04295E-09  1.08065E-09  1.11687E-09  1.15159E-09  1.18481E-09  1.21649E-09  1.24663E-09
   1.27520E-09  1.30219E-09  1.32760E-09  1.35139E-09  1.37356E-09  1.39409E-09  1.41298E-09  1.43020E-09  1.44575E-09  1.45962E-09
   1.47180E-09  1.48227E-09  1.49103E-09  1.49806E-09  1.50338E-09  1.50696E-09  1.50880E-09  1.50889E-09  1.50724E-09  1.50383E-09
   1.49867E-09  1.49175E-09  1.48308E-09  1.47264E-09  1.46045E-09  1.44650E-09  1.43079E-09  1.41334E-09  1.39413E-09  1.37318E-09
   1.35049E-09  1.32607E-09  1.29993E-09  1.27206E-09  1.24249E-09  1.21122E-09  1.17826E-09  1.14362E-09  1.10731E-09  1.06936E-09
   1.02976E-09  9.88531E-10  9.45695E-10  9.01265E-10  8.55257E-10  8.07689E-10  7.58579E-10  7.07946E-10  6.55810E-10  6.02193E-10
   5.47115E-10  4.90598E-10  4.32667E-10  3.73344E-10  3.12654E-10  2.50623E-10  1.87276E-10  1.22640E-10  5.67428E-11 -1.03878E-11
  -7.87225E-11 -1.48234E-10 -2.18888E-10 -2.90657E-10 -3.63508E-10 -4.37410E-10 -5.12328E-10 -5.88231E-10 -6.65083E-10 -7.42852E-10
  -8.21500E-10 -9.00993E-10 -9.81295E-10 -1.06237E-09 -1.14418E-09 -1.22668E-09 -1.30984E-09 -1.39362E-09 -1.47798E-09 -1.56288E-09
  -1.64828E-09 -1.73414E-09 -1.82042E-09 -1.90707E-09 -1.99406E-09 -2.08134E-09 -2.16888E-09 -2.25662E-09 -2.34452E-09 -2.43255E-09
  -2.52065E-09 -2.60878E-09 -2.69691E-09 -2.78498E-09 -2.87295E-09 -2.96077E-09 -3.04840E-09 -3.13580E-09 -3.22293E-09 -3.30972E-09
  -3.39614E-09 -3.48215E-09 -3.56770E-09
 NY background values follow
     9.031E-09    9.054E-09    9.075E-09    9.092E-09    9.106E-09    9.117E-09    9.124E-09    9.129E-09    9.131E-09    9.130E-09
     9.125E-09    9.118E-09    9.108E-09    9.095E-09    9.079E-09    9.060E-09    9.039E-09    9.014E-09    8.987E-09    8.957E-09
     8.925E-09    8.890E-09    8.852E-09    8.812E-09    8.769E-09    8.723E-09    8.675E-09    8.625E-09    8.572E-09    8.517E-09
     8.459E-09    8.399E-09    8.337E-09    8.273E-09    8.207E-09    8.138E-09    8.068E-09    7.995E-09    7.920E-09    7.844E-09
     7.765E-09    7.685E-09    7.603E-09    7.519E-09    7.433E-09    7.346E-09    7.257E-09    7.166E-09    7.074E-09    6.981E-09
     6.886E-09    6.790E-09    6.692E-09    6.593E-09    6.493E-09    6.392E-09    6.289E-09    6.186E-09    6.081E-09    5.976E-09
     5.869E-09    5.762E-09    5.654E-09    5.545E-09    5.435E-09    5.325E-09    5.214E-09    5.102E-09    4.990E-09    4.877E-09
     4.764E-09    4.651E-09    4.537E-09    4.423E-09    4.309E-09    4.195E-09    4.080E-09    3.965E-09    3.851E-09    3.736E-09
     3.621E-09    3.507E-09    3.392E-09    3.278E-09    3.164E-09    3.050E-09    2.937E-09    2.824E-09    2.712E-09    2.599E-09
     2.488E-09    2.377E-09    2.266E-09    2.156E-09    2.047E-09    1.939E-09    1.831E-09    1.724E-09    1.618E-09    1.513E-09
     1.408E-09    1.305E-09    1.203E-09    1.101E-09    1.001E-09    9.015E-10    8.033E-10    7.063E-10    6.104E-10    5.157E-10
     4.223E-10    3.301E-10    2.392E-10    1.496E-10    6.142E-11   -2.542E-11   -1.109E-10   -1.949E-10   -2.775E-10   -3.586E-10
    -4.382E-10   -5.163E-10   -5.928E-10   -6.678E-10   -7.413E-10   -8.131E-10   -8.834E-10   -9.520E-10   -1.019E-09   -1.084E-09
    -1.148E-09   -1.210E-09   -1.270E-09   -1.329E-09   -1.386E-09   -1.441E-09   -1.494E-09   -1.546E-09   -1.596E-09   -1.644E-09
    -1.691E-09   -1.735E-09   -1.778E-09   -1.819E-09   -1.859E-09   -1.896E-09   -1.932E-09   -1.966E-09   -1.999E-09   -2.029E-09
    -2.058E-09   -2.085E-09   -2.111E-09   -2.134E-09   -2.156E-09   -2.176E-09   -2.195E-09   -2.211E-09   -2.226E-09   -2.240E-09
    -2.252E-09   -2.262E-09   -2.270E-09   -2.277E-09   -2.282E-09   -2.286E-09   -2.288E-09   -2.288E-09   -2.287E-09   -2.284E-09
    -2.280E-09   -2.275E-09   -2.268E-09   -2.259E-09   -2.249E-09   -2.238E-09   -2.225E-09   -2.211E-09   -2.196E-09   -2.179E-09
    -2.161E-09   -2.142E-09   -2.122E-09   -2.100E-09   -2.077E-09   -2.054E-09   -2.029E-09   -2.003E-09   -1.975E-09   -1.947E-09
    -1.918E-09   -1.888E-09   -1.857E-09   -1.825E-09   -1.793E-09   -1.759E-09   -1.725E-09   -1.690E-09   -1.654E-09   -1.617E-09
    -1.580E-09   -1.543E-09   -1.504E-09   -1.465E-09   -1.426E-09   -1.386E-09   -1.346E-09   -1.305E-09   -1.264E-09   -1.222E-09
    -1.180E-09   -1.138E-09   -1.096E-09   -1.054E-09   -1.011E-09   -9.682E-10   -9.253E-10   -8.824E-10   -8.395E-10   -7.966E-10
    -7.538E-10   -7.110E-10   -6.684E-10   -6.259E-10   -5.837E-10   -5.417E-10   -4.999E-10   -4.585E-10   -4.173E-10   -3.766E-10
    -3.363E-10   -2.964E-10   -2.570E-10   -2.180E-10   -1.797E-10   -1.419E-10   -1.047E-10   -6.810E-11   -3.220E-11    2.990E-12
     3.745E-11    7.116E-11    1.041E-10    1.362E-10    1.674E-10    1.978E-10    2.273E-10    2.558E-10    2.834E-10    3.100E-10
     3.356E-10    3.601E-10    3.836E-10    4.060E-10    4.273E-10    4.475E-10    4.665E-10    4.843E-10    5.010E-10    5.164E-10
     5.306E-10    5.435E-10    5.552E-10    5.656E-10    5.746E-10    5.824E-10    5.888E-10    5.939E-10    5.975E-10    5.999E-10
     6.008E-10    6.003E-10    5.984E-10    5.950E-10    5.903E-10    5.841E-10    5.764E-10    5.673E-10    5.567E-10    5.446E-10
     5.311E-10    5.161E-10    4.996E-10    4.816E-10    4.622E-10    4.412E-10    4.188E-10    3.949E-10    3.695E-10    3.426E-10
     3.143E-10    2.844E-10    2.532E-10    2.204E-10    1.862E-10    1.506E-10    1.135E-10    7.498E-11    3.505E-11   -6.277E-12
    -4.900E-11   -9.311E-11   -1.386E-10   -1.854E-10   -2.336E-10   -2.831E-10   -3.338E-10   -3.859E-10   -4.393E-10   -4.939E-10
    -5.497E-10   -6.067E-10   -6.650E-10   -7.244E-10   -7.849E-10   -8.466E-10   -9.093E-10   -9.732E-10   -1.038E-09   -1.104E-09
    -1.171E-09   -1.239E-09   -1.307E-09   -1.377E-09   -1.448E-09   -1.519E-09   -1.591E-09   -1.664E-09   -1.738E-09   -1.813E-09
    -1.888E-09   -1.964E-09   -2.040E-09   -2.117E-09   -2.195E-09   -2.273E-09   -2.352E-09   -2.431E-09   -2.510E-09   -2.590E-09
    -2.670E-09   -2.750E-09   -2.831E-09   -2.912E-09   -2.993E-09   -3.074E-09   -3.155E-09   -3.237E-09   -3.318E-09   -3.399E-09
    -3.480E-09   -3.562E-09   -3.643E-09   -3.723E-09   -3.804E-09   -3.884E-09   -3.964E-09   -4.043E-09   -4.122E-09   -4.201E-09
    -4.279E-09   -4.357E-09   -4.434E-09
 Ala      Conc. = 6.50E-10
   9.32183E-09  9.42363E-09  9.50696E-09  9.57395E-09  9.62250E-09  9.65127E-09  9.65394E-09  9.61935E-09  9.58062E-09  9.54630E-09
   9.47197E-09  9.39749E-09  9.34981E-09  9.29371E-09  9.23770E-09  9.19258E-09  9.15257E-09  9.11472E-09  9.07745E-09  9.03984E-09
   9.00130E-09  8.96147E-09  8.92008E-09  8.87697E-09  8.83200E-09  8.78513E-09  8.73627E-09  8.68542E-09  8.63253E-09  8.57761E-09
   8.52067E-09  8.46171E-09  8.40074E-09  8.33780E-09  8.27289E-09  8.20610E-09  8.13738E-09  8.06680E-09  7.99443E-09  7.92025E-09
   7.84434E-09  7.76672E-09  7.68747E-09  7.60657E-09  7.52414E-09  7.44017E-09  7.35475E-09  7.26789E-09  7.17966E-09  7.09012E-09
   6.99930E-09  6.90729E-09  6.81409E-09  6.71979E-09  6.62447E-09  6.52811E-09  6.43083E-09  6.33271E-09  6.23369E-09  6.13396E-09
   6.03353E-09  5.93244E-09  5.83080E-09  5.72864E-09  5.62607E-09  5.52311E-09  5.41985E-09  5.31636E-09  5.21272E-09  5.10902E-09
   5.00531E-09  4.90170E-09  4.79829E-09  4.69514E-09  4.59238E-09  4.49010E-09  4.38841E-09  4.28746E-09  4.18735E-09  4.08826E-09
   3.99032E-09  3.89374E-09  3.79870E-09  3.70545E-09  3.61425E-09  3.52543E-09  3.43934E-09  3.35643E-09  3.27725E-09  3.20246E-09
   3.13291E-09  3.06967E-09  3.01418E-09  2.96838E-09  2.93497E-09  2.91791E-09  2.92333E-09  2.96129E-09  3.04986E-09  3.21899E-09
   3.33824E-09  3.31542E-09  3.25948E-09  3.10729E-09  2.77023E-09  2.24493E-09  1.57306E-09  8.19970E-10  6.95822E-11 -5.79619E-10
  -1.03789E-09 -1.29176E-09 -1.52237E-09 -1.64463E-09 -1.51179E-09 -1.36421E-09 -1.27528E-09 -1.22557E-09 -1.20179E-09 -1.19586E-09
  -1.20264E-09 -1.21869E-09 -1.24161E-09 -1.26965E-09 -1.30153E-09 -1.33626E-09 -1.37308E-09 -1.41139E-09 -1.45070E-09 -1.49061E-09
  -1.53080E-09 -1.57098E-09 -1.61095E-09 -1.65049E-09 -1.68945E-09 -1.72767E-09 -1.76504E-09 -1.80143E-09 -1.83676E-09 -1.87093E-09
  -1.90386E-09 -1.93550E-09 -1.96576E-09 -1.99458E-09 -2.02192E-09 -2.04772E-09 -2.07191E-09 -2.09446E-09 -2.11531E-09 -2.13439E-09
  -2.15166E-09 -2.16705E-09 -2.18048E-09 -2.19187E-09 -2.20114E-09 -2.20815E-09 -2.21278E-09 -2.21483E-09 -2.21408E-09 -2.21023E-09
  -2.20286E-09 -2.19143E-09 -2.17511E-09 -2.15281E-09 -2.12300E-09 -2.08476E-09 -2.05334E-09 -2.17183E-09 -2.41840E-09 -2.72513E-09
  -3.03787E-09 -3.32377E-09 -3.56253E-09 -3.73436E-09 -3.81124E-09 -3.75859E-09 -3.55161E-09 -3.21167E-09 -2.85379E-09 -2.67561E-09
  -2.56925E-09 -2.49169E-09 -2.42875E-09 -2.37425E-09 -2.32497E-09 -2.27903E-09 -2.23530E-09 -2.19303E-09 -2.15165E-09 -2.11083E-09
  -2.07033E-09 -2.02990E-09 -1.98945E-09 -1.94885E-09 -1.90807E-09 -1.86700E-09 -1.82562E-09 -1.78393E-09 -1.74190E-09 -1.69951E-09
  -1.65676E-09 -1.61367E-09 -1.57025E-09 -1.52650E-09 -1.48243E-09 -1.43809E-09 -1.39347E-09 -1.34860E-09 -1.30349E-09 -1.25821E-09
  -1.21273E-09 -1.16712E-09 -1.12140E-09 -1.07559E-09 -1.02970E-09 -9.83805E-10 -9.37914E-10 -8.92042E-10 -8.46260E-10 -8.00569E-10
  -7.55014E-10 -7.09617E-10 -6.64424E-10 -6.19455E-10 -5.74757E-10 -5.30347E-10 -4.86268E-10 -4.42551E-10 -3.99228E-10 -3.56334E-10
  -3.13893E-10 -2.71945E-10 -2.30522E-10 -1.89652E-10 -1.49368E-10 -1.09703E-10 -7.06841E-11 -3.23476E-11  5.28090E-12  4.21670E-11
   7.82824E-11  1.13604E-10  1.48095E-10  1.81729E-10  2.14475E-10  2.46311E-10  2.77207E-10  3.07138E-10  3.36076E-10  3.63993E-10
   3.90871E-10  4.16675E-10  4.41396E-10  4.64989E-10  4.87445E-10  5.08746E-10  5.28861E-10  5.47771E-10  5.65455E-10  5.81893E-10
   5.97067E-10  6.10961E-10  6.23555E-10  6.34833E-10  6.44772E-10  6.53362E-10  6.60592E-10  6.66434E-10  6.70887E-10  6.73935E-10
   6.75563E-10  6.75759E-10  6.74519E-10  6.71823E-10  6.67673E-10  6.62052E-10  6.54958E-10  6.46380E-10  6.36313E-10  6.24754E-10
   6.11698E-10  5.97141E-10  5.81080E-10  5.63512E-10  5.44437E-10  5.23855E-10  5.01768E-10  4.78172E-10  4.53075E-10  4.26478E-10
   3.98383E-10  3.68798E-10  3.37726E-10  3.05175E-10  2.71150E-10  2.35661E-10  1.98716E-10  1.60325E-10  1.20498E-10  7.92465E-11
   3.65823E-11 -7.48153E-12 -5.29312E-11 -9.97524E-11 -1.47930E-10 -1.97447E-10 -2.48287E-10 -3.00433E-10 -3.53866E-10 -4.08567E-10
  -4.64516E-10 -5.21692E-10 -5.80073E-10 -6.39639E-10 -7.00364E-10 -7.62226E-10 -8.25201E-10 -8.89262E-10 -9.54386E-10 -1.02054E-09
  -1.08771E-09 -1.15586E-09 -1.22495E-09 -1.29497E-09 -1.36588E-09 -1.43766E-09 -1.51026E-09 -1.58366E-09 -1.65783E-09 -1.73274E-09
  -1.80834E-09 -1.88461E-09 -1.96152E-09 -2.03902E-09 -2.11708E-09 -2.19567E-09 -2.27474E-09 -2.35427E-09 -2.43422E-09 -2.51454E-09
  -2.59519E-09 -2.67615E-09 -2.75737E-09 -2.83881E-09 -2.92044E-09 -3.00220E-09 -3.08406E-09 -3.16598E-09 -3.24792E-09 -3.32984E-09
  -3.41169E-09 -3.49344E-09 -3.57503E-09 -3.65644E-09 -3.73761E-09 -3.81851E-09 -3.89909E-09 -3.97930E-09 -4.05911E-09 -4.13847E-09
  -4.21734E-09 -4.29567E-09 -4.37343E-09
 GABA     Conc. = 1.49E-09
   8.89002E-09  8.92253E-09  8.95235E-09  8.97951E-09  9.00406E-09  9.02609E-09  9.04563E-09  9.06275E-09  9.07757E-09  9.09016E-09
   9.10063E-09  9.10914E-09  9.11582E-09  9.12082E-09  9.12441E-09  9.12680E-09  9.12818E-09  9.12897E-09  9.12961E-09  9.13055E-09
   9.13256E-09  9.13660E-09  9.14396E-09  9.15654E-09  9.17710E-09  9.20991E-09  9.26230E-09  9.34818E-09  9.49960E-09  9.79088E-09
   1.00941E-08  1.03829E-08  1.08336E-08  1.12967E-08  1.16166E-08  1.18503E-08  1.19441E-08  1.18418E-08  1.15321E-08  1.10589E-08
   1.05093E-08  9.94618E-09  9.23952E-09  8.60673E-09  8.25948E-09  7.90019E-09  7.54864E-09  7.38347E-09  7.28635E-09  7.21540E-09
   7.15801E-09  7.10933E-09  7.06769E-09  7.03306E-09  7.00625E-09  6.98899E-09  6.98432E-09  6.99671E-09  7.03299E-09  7.10476E-09
   7.23311E-09  7.45841E-09  7.71070E-09  7.89490E-09  8.11740E-09  8.29128E-09  8.25844E-09  8.04572E-09  7.67009E-09  7.13000E-09
   6.46009E-09  5.73557E-09  5.05742E-09  4.49864E-09  3.98749E-09  3.59820E-09  3.51005E-09  3.46303E-09  3.39057E-09  3.45310E-09
   3.56651E-09  3.64779E-09  3.77230E-09  3.91061E-09  3.95657E-09  3.96712E-09  3.94421E-09  3.81739E-09  3.58921E-09  3.27041E-09
   2.90046E-09  2.50806E-09  2.05007E-09  1.59061E-09  1.26422E-09  9.54775E-10  6.35192E-10  4.56428E-10  3.39992E-10  2.18323E-10
   1.37866E-10  8.14906E-11  2.90631E-11 -2.40200E-11 -7.89619E-11 -1.35837E-10 -1.94343E-10 -2.54239E-10 -3.15318E-10 -3.77369E-10
  -4.40175E-10 -5.03359E-10 -5.66664E-10 -6.29908E-10 -6.92957E-10 -7.55724E-10 -8.18139E-10 -8.80030E-10 -9.41269E-10 -1.00175E-09
  -1.06138E-09 -1.12009E-09 -1.17782E-09 -1.23449E-09 -1.29003E-09 -1.34439E-09 -1.39750E-09 -1.44930E-09 -1.49976E-09 -1.54882E-09
  -1.59644E-09 -1.64258E-09 -1.68719E-09 -1.73025E-09 -1.77170E-09 -1.81151E-09 -1.84967E-09 -1.88611E-09 -1.92081E-09 -1.95372E-09
  -1.98481E-09 -2.01406E-09 -2.04141E-09 -2.06680E-09 -2.09022E-09 -2.11159E-09 -2.13087E-09 -2.14800E-09 -2.16290E-09 -2.17549E-09
  -2.18568E-09 -2.19335E-09 -2.19837E-09 -2.20059E-09 -2.19979E-09 -2.19575E-09 -2.18816E-09 -2.17661E-09 -2.16063E-09 -2.13953E-09
  -2.11240E-09 -2.07803E-09 -2.03465E-09 -1.97979E-09 -1.91015E-09 -1.82358E-09 -1.75000E-09 -2.00874E-09 -2.56533E-09 -3.26645E-09
  -3.98687E-09 -4.64988E-09 -5.20835E-09 -5.61746E-09 -5.81418E-09 -5.72006E-09 -5.27697E-09 -4.52814E-09 -3.72634E-09 -3.32889E-09
  -3.10601E-09 -2.95287E-09 -2.83549E-09 -2.73923E-09 -2.65651E-09 -2.58294E-09 -2.51582E-09 -2.45336E-09 -2.39429E-09 -2.33775E-09
  -2.28312E-09 -2.22989E-09 -2.17772E-09 -2.12633E-09 -2.07553E-09 -2.02514E-09 -1.97501E-09 -1.92508E-09 -1.87527E-09 -1.82549E-09
  -1.77572E-09 -1.72592E-09 -1.67607E-09 -1.62616E-09 -1.57616E-09 -1.52611E-09 -1.47598E-09 -1.42578E-09 -1.37551E-09 -1.32523E-09
  -1.27489E-09 -1.22456E-09 -1.17425E-09 -1.12396E-09 -1.07372E-09 -1.02357E-09 -9.73529E-10 -9.23603E-10 -8.73858E-10 -8.24291E-10
  -7.74943E-10 -7.25833E-10 -6.77003E-10 -6.28472E-10 -5.80283E-10 -5.32451E-10 -4.85015E-10 -4.38007E-10 -3.91454E-10 -3.45391E-10
