 LCModel (Version 6.3-1R) Copyright: S.W. Provencher.          Ref.: Magn. Reson. Med. 30:672-679 (1993).                
 onepulse 29x20_ftSpec_smooth_lcm
 26 lines in following concentration table = NCONC+1
    Conc.  %SD /Cr+PCr  Metabolite                                         
    0.000 999%   0.000 Ala                                                 
    0.000 999%   0.000 Asp                                                 
    0.000 999%   0.000 Cr                                                  
 1.21E-10 947%   0.579 GABA                                                
    0.000 999%   0.000 Glc                                                 
 6.82E-10 180%   3.275 Gln                                                 
 6.90E-10 184%   3.312 Glu                                                 
    0.000 999%   0.000 Glyc                                                
 9.38E-11 179%   0.450 GPC                                                 
 9.13E-11 714%   0.438 GSH                                                 
 1.63E-09  31%   7.832 Ins                                                 
    0.000 999%   0.000 Lac                                                 
 1.83E-10 180%   0.881 NAAG                                                
 3.66E-10 129%   1.756 NAA                                                 
    0.000 999%   0.000 PCh                                                 
 2.08E-10 265%   1.000 PCr                                                 
    0.000 999%   0.000 PE                                                  
    0.000 999%   0.000 Scyllo                                              
 5.00E-09  26%  24.010 Ser                                                 
 9.28E-10  64%   4.459 Tau                                                 
 9.38E-11 179%   0.450 GPC+PCh                                             
 5.49E-10  79%   2.637 NAA+NAAG                                            
 1.63E-09  31%   7.832 Ins+Glyc                                            
 2.08E-10 265%   1.000 Cr+PCr                                              
 1.37E-09  84%   6.587 Glu+Gln                                             
   6 lines in following misc. output table
  FWHM = 0.123 ppm    S/N =   2                                            
  Data shift = 0.347 ppm                                                   
  Ph: -56 deg     -25.8 deg/ppm                                            
  alphaB,S = 2.0E-01,   3.7E-01                                            
   16 spline knots.   Ns = 5(1)                                            
  (12) 2 infls.   (11) 1 extrs.                                            
  363 points on ppm-axis = NY
      4.250000     4.238821     4.227641     4.216462     4.205282     4.194103     4.182923     4.171744     4.160564     4.149385
      4.138206     4.127026     4.115847     4.104667     4.093488     4.082308     4.071129     4.059949     4.048770     4.037591
      4.026411     4.015232     4.004052     3.992873     3.981693     3.970514     3.959334     3.948155     3.936975     3.925796
      3.914617     3.903437     3.892258     3.881078     3.869899     3.858719     3.847540     3.836360     3.825181     3.814002
      3.802822     3.791643     3.780463     3.769284     3.758104     3.746925     3.735745     3.724566     3.713387     3.702207
      3.691028     3.679848     3.668669     3.657489     3.646310     3.635130     3.623951     3.612772     3.601592     3.590413
      3.579233     3.568054     3.556874     3.545695     3.534515     3.523336     3.512156     3.500977     3.489798     3.478618
      3.467439     3.456259     3.445080     3.433900     3.422721     3.411541     3.400362     3.389183     3.378003     3.366824
      3.355644     3.344465     3.333285     3.322106     3.310926     3.299747     3.288568     3.277388     3.266209     3.255029
      3.243850     3.232670     3.221491     3.210311     3.199132     3.187953     3.176773     3.165594     3.154414     3.143235
      3.132055     3.120876     3.109696     3.098517     3.087337     3.076158     3.064979     3.053799     3.042620     3.031440
      3.020261     3.009081     2.997902     2.986722     2.975543     2.964364     2.953184     2.942005     2.930825     2.919646
      2.908466     2.897287     2.886107     2.874928     2.863749     2.852569     2.841390     2.830210     2.819031     2.807851
      2.796672     2.785492     2.774313     2.763134     2.751954     2.740775     2.729595     2.718416     2.707236     2.696057
      2.684877     2.673698     2.662519     2.651339     2.640160     2.628980     2.617801     2.606621     2.595442     2.584262
      2.573083     2.561903     2.550724     2.539545     2.528365     2.517186     2.506006     2.494827     2.483647     2.472468
      2.461288     2.450109     2.438930     2.427750     2.416571     2.405391     2.394212     2.383032     2.371853     2.360673
      2.349494     2.338315     2.327135     2.315956     2.304776     2.293597     2.282417     2.271238     2.260058     2.248879
      2.237700     2.226520     2.215341     2.204161     2.192982     2.181802     2.170623     2.159443     2.148264     2.137084
      2.125905     2.114726     2.103546     2.092367     2.081187     2.070008     2.058828     2.047649     2.036469     2.025290
      2.014111     2.002931     1.991752     1.980572     1.969393     1.958213     1.947034     1.935854     1.924675     1.913496
      1.902316     1.891137     1.879957     1.868778     1.857598     1.846419     1.835239     1.824060     1.812881     1.801701
      1.790522     1.779342     1.768163     1.756983     1.745804     1.734624     1.723445     1.712265     1.701086     1.689907
      1.678727     1.667548     1.656368     1.645189     1.634009     1.622830     1.611650     1.600471     1.589292     1.578112
      1.566933     1.555753     1.544574     1.533394     1.522215     1.511035     1.499856     1.488677     1.477497     1.466318
      1.455138     1.443959     1.432779     1.421600     1.410420     1.399241     1.388062     1.376882     1.365703     1.354523
      1.343344     1.332164     1.320985     1.309805     1.298626     1.287446     1.276267     1.265088     1.253908     1.242729
      1.231549     1.220370     1.209190     1.198011     1.186831     1.175652     1.164473     1.153293     1.142114     1.130934
      1.119755     1.108575     1.097396     1.086216     1.075037     1.063858     1.052678     1.041499     1.030319     1.019140
      1.007960     0.996781     0.985601     0.974422     0.963243     0.952063     0.940884     0.929704     0.918525     0.907345
      0.896166     0.884986     0.873807     0.862628     0.851448     0.840269     0.829089     0.817910     0.806730     0.795551
      0.784371     0.773192     0.762012     0.750833     0.739654     0.728474     0.717295     0.706115     0.694936     0.683756
      0.672577     0.661397     0.650218     0.639039     0.627859     0.616680     0.605500     0.594321     0.583141     0.571962
      0.560782     0.549603     0.538424     0.527244     0.516065     0.504885     0.493706     0.482526     0.471347     0.460167
      0.448988     0.437809     0.426629     0.415450     0.404270     0.393091     0.381911     0.370732     0.359552     0.348373
      0.337193     0.326014     0.314835     0.303655     0.292476     0.281296     0.270117     0.258937     0.247758     0.236578
      0.225399     0.214220     0.203040
 NY phased data points follow
   1.64977E-08  1.51082E-08  1.82688E-08  1.55426E-08  1.73674E-08  1.50899E-08  1.68688E-08  1.42943E-08  1.60101E-08  1.32842E-08
   1.51224E-08  1.29029E-08  1.44946E-08  1.25442E-08  1.48467E-08  1.29352E-08  1.48028E-08  1.30674E-08  1.44693E-08  1.22909E-08
   1.40073E-08  1.24124E-08  1.33508E-08  1.20652E-08  1.31373E-08  1.14526E-08  1.32687E-08  1.17685E-08  1.33292E-08  1.13483E-08
   1.31849E-08  1.16791E-08  1.33047E-08  1.23388E-08  1.37539E-08  1.24707E-08  1.28350E-08  1.15354E-08  1.25697E-08  9.83909E-09
   1.14830E-08  9.60247E-09  1.02286E-08  9.02025E-09  9.96295E-09  8.52458E-09  9.19653E-09  7.83185E-09  8.44060E-09  7.57779E-09
   8.22682E-09  7.31321E-09  8.41924E-09  7.21299E-09  8.20689E-09  6.55553E-09  8.34090E-09  7.15848E-09  7.99591E-09  7.15247E-09
   8.39969E-09  7.89412E-09  9.29773E-09  8.93529E-09  1.07015E-08  1.00775E-08  1.12185E-08  1.05703E-08  1.04112E-08  8.83518E-09
   9.52084E-09  8.21239E-09  8.52730E-09  7.75947E-09  8.26340E-09  7.31262E-09  8.33641E-09  7.20988E-09  8.47369E-09  9.77213E-09
   1.15705E-08  1.21213E-08  1.27588E-08  1.25628E-08  1.29838E-08  1.25704E-08  1.15932E-08  1.12822E-08  1.10661E-08  1.02916E-08
   1.06253E-08  9.99543E-09  9.83105E-09  9.04635E-09  8.70053E-09  7.81117E-09  8.09343E-09  6.95916E-09  7.51599E-09  7.01954E-09
   6.67969E-09  6.51427E-09  6.29390E-09  6.18146E-09  6.62518E-09  6.13512E-09  6.30351E-09  5.70019E-09  5.85563E-09  5.00027E-09
   5.17843E-09  4.06863E-09  4.48866E-09  4.16156E-09  4.07221E-09  4.34764E-09  4.51543E-09  4.06202E-09  4.18724E-09  4.35370E-09
   4.37473E-09  3.82462E-09  4.34502E-09  3.47367E-09  3.79404E-09  3.30196E-09  3.36588E-09  2.81472E-09  3.39406E-09  3.27307E-09
   3.72148E-09  3.09334E-09  3.92772E-09  3.35647E-09  4.09445E-09  2.72504E-09  3.99622E-09  3.15264E-09  4.18235E-09  3.75043E-09
   4.69839E-09  4.61956E-09  5.28671E-09  4.69547E-09  5.96357E-09  4.90020E-09  6.48906E-09  6.09232E-09  6.52283E-09  6.08546E-09
   6.40168E-09  6.59074E-09  7.22126E-09  6.31162E-09  7.07364E-09  6.71025E-09  7.03434E-09  6.76276E-09  7.62659E-09  6.89215E-09
   8.11721E-09  6.96993E-09  8.29532E-09  7.77586E-09  8.63301E-09  7.94409E-09  9.51460E-09  8.91422E-09  1.08179E-08  1.07955E-08
   1.25980E-08  1.31205E-08  1.38622E-08  1.41694E-08  1.40586E-08  1.30481E-08  1.24866E-08  1.06255E-08  1.02524E-08  8.26922E-09
   8.32077E-09  6.39714E-09  5.93823E-09  4.62422E-09  4.75765E-09  2.35801E-09  2.89610E-09  1.39868E-09  1.12097E-09 -1.53085E-09
  -1.26801E-09 -3.83588E-09 -4.61006E-09 -6.70377E-09 -7.23418E-09 -1.08357E-08 -1.16992E-08 -1.48865E-08 -1.65654E-08 -1.91853E-08
  -2.02031E-08 -2.31780E-08 -2.40128E-08 -2.60178E-08 -2.55272E-08 -2.64241E-08 -2.49555E-08 -2.47532E-08 -2.24339E-08 -2.15828E-08
  -1.82983E-08 -1.63047E-08 -1.33799E-08 -1.13460E-08 -8.30404E-09 -6.29016E-09 -3.44580E-09 -2.41889E-09 -8.24651E-10 -7.90584E-10
   7.08604E-10 -5.64946E-10  4.64479E-10 -3.59132E-10  8.45459E-10 -7.18890E-10  4.61371E-10 -7.65970E-10 -1.19045E-10 -7.59680E-10
  -2.30695E-10 -1.14719E-09  1.54768E-10 -2.81888E-10  2.89223E-10 -9.73847E-10  1.78037E-10 -7.98567E-10  1.78703E-10 -4.31153E-10
   2.23476E-11 -6.34601E-10  1.08654E-11 -5.24698E-10  2.97169E-10 -1.61262E-11  5.83959E-10 -5.40192E-10  5.09616E-10 -3.17848E-10
   3.89285E-10 -4.21378E-10  7.76177E-10  5.83958E-11  3.70045E-10  2.93983E-10  3.04374E-10  4.75305E-10  1.15709E-09  3.47508E-10
   7.43325E-10 -7.29743E-13  2.53197E-10 -3.99316E-10  3.11814E-10 -3.91277E-10  1.72504E-10 -1.27586E-10  7.08120E-10  2.76543E-10
   8.95788E-10  4.92603E-10  5.36588E-10  5.82842E-10  1.90090E-09  7.27007E-10  8.95035E-10  1.01852E-09  1.83445E-09  8.65533E-10
   9.92297E-10  1.12026E-09  1.19063E-09  2.72169E-10  1.03644E-09  4.84953E-10  1.00867E-09  6.76425E-10  1.60448E-10  6.68410E-10
   9.52210E-10  2.88840E-10  2.53734E-10  8.69964E-10  7.99626E-10  1.05326E-09  6.51706E-10  6.62604E-10  7.46037E-10  4.74927E-10
   1.01526E-09  2.98416E-10  7.45423E-10  1.19754E-10  1.08220E-09  2.64371E-10  7.85076E-10  2.43213E-10  7.44789E-10  5.65451E-10
   1.13360E-09  3.99327E-10  8.14533E-10  3.89495E-10  8.53916E-10  4.49538E-10  1.26639E-09  5.53285E-10  1.03749E-09  6.97226E-10
   9.41506E-10  6.20767E-10  8.13253E-10  6.54892E-10  8.14182E-10  7.12281E-10  7.71746E-10  1.13681E-09  1.31506E-09  7.74613E-10
   1.61680E-09  7.59569E-10  1.69576E-09  6.68353E-10  1.56232E-09  9.08901E-10  1.56014E-09  1.18238E-09  1.75707E-09  1.25073E-09
   1.59232E-09  1.46700E-09  1.24809E-09  1.49956E-09  1.63834E-09  1.54160E-09  1.57757E-09  1.71196E-09  1.70769E-09  1.82288E-09
   1.99942E-09  2.26067E-09  1.69695E-09  1.55738E-09  1.94774E-09  1.94668E-09  2.40214E-09  1.49973E-09  2.35367E-09  1.50604E-09
   2.05409E-09  1.82289E-09  2.30349E-09
 NY points of the fit to the data follow
   1.65070E-08  1.48038E-08  1.88928E-08  1.75401E-08  1.59281E-08  1.41193E-08  1.49324E-08  1.62773E-08  1.60075E-08  1.39089E-08
   1.48627E-08  1.27751E-08  1.41743E-08  1.26848E-08  1.46644E-08  1.42362E-08  1.43797E-08  1.34070E-08  1.53611E-08  1.35608E-08
   1.37409E-08  1.13640E-08  1.33934E-08  1.13209E-08  1.36681E-08  1.14911E-08  1.32858E-08  1.15515E-08  1.31491E-08  1.15837E-08
   1.29744E-08  1.27876E-08  1.42887E-08  1.21435E-08  1.40332E-08  1.18935E-08  1.23870E-08  1.06786E-08  1.12601E-08  1.00165E-08
   1.09164E-08  9.51113E-09  1.06836E-08  9.72222E-09  9.20338E-09  8.96790E-09  8.48856E-09  8.49655E-09  8.02361E-09  8.12819E-09
   7.70608E-09  7.95009E-09  7.43034E-09  7.78411E-09  7.58782E-09  7.53346E-09  7.53947E-09  8.00865E-09  7.91999E-09  8.30890E-09
   8.12297E-09  8.73225E-09  9.14923E-09  8.52956E-09  9.66545E-09  9.14323E-09  9.46926E-09  9.24420E-09  9.67658E-09  9.03581E-09
   9.22227E-09  8.70398E-09  9.18453E-09  8.82869E-09  8.45088E-09  8.95911E-09  9.48434E-09  1.03169E-08  9.92067E-09  1.11457E-08
   1.07280E-08  1.17447E-08  1.18189E-08  1.21093E-08  1.16880E-08  1.24879E-08  1.14966E-08  1.20803E-08  1.11256E-08  9.78249E-09
   9.21098E-09  8.72900E-09  8.38544E-09  8.21659E-09  7.96858E-09  7.70114E-09  7.62134E-09  7.41868E-09  7.26006E-09  7.14230E-09
   7.00424E-09  6.87570E-09  6.77497E-09  6.67110E-09  6.57198E-09  6.48062E-09  6.39304E-09  6.31051E-09  6.23136E-09  6.15516E-09
   6.08174E-09  6.01076E-09  5.94185E-09  5.87493E-09  5.80954E-09  5.74549E-09  5.68254E-09  5.62044E-09  5.55894E-09  5.49788E-09
   5.43703E-09  5.37621E-09  5.31526E-09  5.25400E-09  5.19227E-09  5.12990E-09  5.06674E-09  5.00264E-09  4.93745E-09  4.87105E-09
   4.80326E-09  4.73398E-09  4.66306E-09  4.59037E-09  4.51582E-09  4.43924E-09  4.36054E-09  4.27962E-09  4.19636E-09  4.11064E-09
   4.02236E-09  3.93151E-09  3.83805E-09  3.74194E-09  3.64318E-09  3.54178E-09  3.43775E-09  3.33113E-09  3.22201E-09  3.11045E-09
   2.99663E-09  2.88073E-09  2.76302E-09  2.64388E-09  2.52383E-09  2.40359E-09  2.28419E-09  2.16711E-09  2.05465E-09  1.95029E-09
   1.85993E-09  1.79392E-09  1.77278E-09  1.84266E-09  2.13342E-09  3.16387E-09  7.73517E-09  1.14829E-08  1.02425E-08  1.13889E-08
   1.28633E-08  1.30422E-08  1.52621E-08  1.38663E-08  1.46464E-08  1.36137E-08  1.29698E-08  1.22489E-08  9.67717E-09  7.84983E-10
  -1.38661E-09 -2.23123E-09 -2.71913E-09 -3.07085E-09 -3.35733E-09 -3.60694E-09 -3.83272E-09 -4.04124E-09 -4.23597E-09 -4.41877E-09
  -4.59069E-09 -4.75218E-09 -4.90342E-09 -5.04431E-09 -5.17477E-09 -5.29447E-09 -5.40330E-09 -5.50145E-09 -5.58926E-09 -5.66698E-09
  -5.73488E-09 -5.79321E-09 -5.84222E-09 -5.88213E-09 -5.91318E-09 -5.93559E-09 -5.94959E-09 -5.95541E-09 -5.95325E-09 -5.94334E-09
  -5.92590E-09 -5.90115E-09 -5.86930E-09 -5.83058E-09 -5.78519E-09 -5.73337E-09 -5.67532E-09 -5.61125E-09 -5.54140E-09 -5.46596E-09
  -5.38516E-09 -5.29922E-09 -5.20834E-09 -5.11274E-09 -5.01267E-09 -4.90843E-09 -4.80032E-09 -4.68864E-09 -4.57371E-09 -4.45582E-09
  -4.33528E-09 -4.21237E-09 -4.08739E-09 -3.96064E-09 -3.83238E-09 -3.70294E-09 -3.57256E-09 -3.44155E-09 -3.31015E-09 -3.17867E-09
  -3.04737E-09 -2.91650E-09 -2.78633E-09 -2.65713E-09 -2.52912E-09 -2.40258E-09 -2.27774E-09 -2.15485E-09 -2.03415E-09 -1.91587E-09
  -1.80021E-09 -1.68744E-09 -1.57763E-09 -1.47073E-09 -1.36670E-09 -1.26549E-09 -1.16702E-09 -1.07125E-09 -9.78114E-10 -8.87564E-10
  -7.99541E-10 -7.13985E-10 -6.30851E-10 -5.50076E-10 -4.71613E-10 -3.95405E-10 -3.21383E-10 -2.49529E-10 -1.79769E-10 -1.12049E-10
  -4.63186E-11  1.74618E-11  7.93570E-11  1.39410E-10  1.97659E-10  2.54178E-10  3.08984E-10  3.62145E-10  4.13693E-10  4.63690E-10
   5.12163E-10  5.59153E-10  6.04693E-10  6.48821E-10  6.91567E-10  7.32967E-10  7.73054E-10  8.11859E-10  8.49417E-10  8.85753E-10
   9.20904E-10  9.54893E-10  9.87754E-10  1.01951E-09  1.05020E-09  1.07983E-09  1.10845E-09  1.13607E-09  1.16271E-09  1.18841E-09
   1.21317E-09  1.23704E-09  1.26002E-09  1.28214E-09  1.30341E-09  1.32385E-09  1.34349E-09  1.36233E-09  1.38038E-09  1.39764E-09
   1.41409E-09  1.42974E-09  1.44457E-09  1.45858E-09  1.47177E-09  1.48413E-09  1.49565E-09  1.50632E-09  1.51615E-09  1.52512E-09
   1.53324E-09  1.54048E-09  1.54685E-09  1.55234E-09  1.55695E-09  1.56066E-09  1.56347E-09  1.56538E-09  1.56637E-09  1.56645E-09
   1.56560E-09  1.56381E-09  1.56109E-09  1.55742E-09  1.55279E-09  1.54721E-09  1.54064E-09  1.53310E-09  1.52455E-09  1.51499E-09
   1.50439E-09  1.49277E-09  1.48008E-09  1.46634E-09  1.45152E-09  1.43562E-09  1.41862E-09  1.40053E-09  1.38132E-09  1.36098E-09
   1.33952E-09  1.31692E-09  1.29318E-09  1.26829E-09  1.24224E-09  1.21502E-09  1.18664E-09  1.15709E-09  1.12636E-09  1.09444E-09
   1.06135E-09  1.02706E-09  9.91590E-10
 NY background values follow
     3.498E-09    3.539E-09    3.580E-09    3.620E-09    3.659E-09    3.698E-09    3.736E-09    3.774E-09    3.811E-09    3.848E-09
     3.884E-09    3.919E-09    3.954E-09    3.989E-09    4.023E-09    4.056E-09    4.089E-09    4.121E-09    4.152E-09    4.183E-09
     4.214E-09    4.244E-09    4.273E-09    4.302E-09    4.330E-09    4.357E-09    4.384E-09    4.411E-09    4.436E-09    4.461E-09
     4.486E-09    4.510E-09    4.533E-09    4.556E-09    4.578E-09    4.600E-09    4.621E-09    4.641E-09    4.661E-09    4.680E-09
     4.698E-09    4.716E-09    4.733E-09    4.750E-09    4.766E-09    4.782E-09    4.796E-09    4.811E-09    4.824E-09    4.837E-09
     4.850E-09    4.862E-09    4.873E-09    4.884E-09    4.894E-09    4.903E-09    4.912E-09    4.920E-09    4.927E-09    4.934E-09
     4.941E-09    4.946E-09    4.952E-09    4.956E-09    4.960E-09    4.963E-09    4.966E-09    4.967E-09    4.969E-09    4.969E-09
     4.969E-09    4.968E-09    4.967E-09    4.965E-09    4.962E-09    4.959E-09    4.955E-09    4.950E-09    4.944E-09    4.938E-09
     4.931E-09    4.923E-09    4.915E-09    4.906E-09    4.896E-09    4.886E-09    4.875E-09    4.863E-09    4.850E-09    4.837E-09
     4.823E-09    4.809E-09    4.793E-09    4.778E-09    4.761E-09    4.745E-09    4.727E-09    4.709E-09    4.691E-09    4.672E-09
     4.652E-09    4.632E-09    4.612E-09    4.591E-09    4.570E-09    4.548E-09    4.526E-09    4.504E-09    4.481E-09    4.458E-09
     4.435E-09    4.412E-09    4.388E-09    4.364E-09    4.339E-09    4.314E-09    4.289E-09    4.262E-09    4.235E-09    4.207E-09
     4.178E-09    4.147E-09    4.116E-09    4.083E-09    4.048E-09    4.012E-09    3.975E-09    3.935E-09    3.893E-09    3.850E-09
     3.804E-09    3.756E-09    3.706E-09    3.653E-09    3.598E-09    3.539E-09    3.478E-09    3.414E-09    3.347E-09    3.277E-09
     3.204E-09    3.127E-09    3.047E-09    2.963E-09    2.876E-09    2.785E-09    2.690E-09    2.592E-09    2.490E-09    2.384E-09
     2.274E-09    2.160E-09    2.042E-09    1.921E-09    1.795E-09    1.665E-09    1.530E-09    1.392E-09    1.249E-09    1.102E-09
     9.503E-10    7.942E-10    6.338E-10    4.687E-10    2.992E-10    1.250E-10   -5.386E-11   -2.374E-10   -4.255E-10   -6.179E-10
    -8.139E-10   -1.013E-09   -1.215E-09   -1.418E-09   -1.623E-09   -1.829E-09   -2.035E-09   -2.241E-09   -2.447E-09   -2.650E-09
    -2.852E-09   -3.052E-09   -3.248E-09   -3.441E-09   -3.630E-09   -3.814E-09   -3.993E-09   -4.166E-09   -4.333E-09   -4.493E-09
    -4.646E-09   -4.792E-09   -4.928E-09   -5.056E-09   -5.175E-09   -5.284E-09   -5.383E-09   -5.471E-09   -5.550E-09   -5.619E-09
    -5.678E-09   -5.729E-09   -5.770E-09   -5.802E-09   -5.826E-09   -5.841E-09   -5.848E-09   -5.846E-09   -5.837E-09   -5.821E-09
    -5.797E-09   -5.765E-09   -5.727E-09   -5.682E-09   -5.630E-09   -5.572E-09   -5.508E-09   -5.438E-09   -5.362E-09   -5.280E-09
    -5.194E-09   -5.102E-09   -5.005E-09   -4.904E-09   -4.798E-09   -4.688E-09   -4.575E-09   -4.457E-09   -4.337E-09   -4.214E-09
    -4.088E-09   -3.960E-09   -3.829E-09   -3.697E-09   -3.564E-09   -3.429E-09   -3.294E-09   -3.158E-09   -3.022E-09   -2.885E-09
    -2.749E-09   -2.613E-09   -2.478E-09   -2.344E-09   -2.212E-09   -2.080E-09   -1.951E-09   -1.823E-09   -1.698E-09   -1.575E-09
    -1.455E-09   -1.338E-09   -1.224E-09   -1.113E-09   -1.004E-09   -8.988E-10   -7.961E-10   -6.961E-10   -5.988E-10   -5.041E-10
    -4.120E-10   -3.224E-10   -2.352E-10   -1.505E-10   -6.805E-11    1.208E-11    8.998E-11    1.657E-10    2.393E-10    3.108E-10
     3.802E-10    4.477E-10    5.133E-10    5.770E-10    6.389E-10    6.990E-10    7.574E-10    8.140E-10    8.691E-10    9.225E-10
     9.744E-10    1.025E-09    1.074E-09    1.121E-09    1.167E-09    1.212E-09    1.255E-09    1.297E-09    1.338E-09    1.378E-09
     1.416E-09    1.453E-09    1.489E-09    1.524E-09    1.557E-09    1.590E-09    1.622E-09    1.652E-09    1.682E-09    1.710E-09
     1.738E-09    1.765E-09    1.790E-09    1.815E-09    1.839E-09    1.862E-09    1.885E-09    1.906E-09    1.927E-09    1.947E-09
     1.966E-09    1.984E-09    2.002E-09    2.018E-09    2.034E-09    2.049E-09    2.063E-09    2.076E-09    2.088E-09    2.099E-09
     2.110E-09    2.119E-09    2.128E-09    2.136E-09    2.143E-09    2.149E-09    2.154E-09    2.158E-09    2.161E-09    2.163E-09
     2.164E-09    2.165E-09    2.164E-09    2.162E-09    2.160E-09    2.156E-09    2.152E-09    2.146E-09    2.139E-09    2.132E-09
     2.123E-09    2.113E-09    2.102E-09    2.091E-09    2.078E-09    2.063E-09    2.048E-09    2.032E-09    2.014E-09    1.996E-09
     1.976E-09    1.955E-09    1.933E-09    1.910E-09    1.885E-09    1.860E-09    1.833E-09    1.805E-09    1.776E-09    1.745E-09
     1.713E-09    1.681E-09    1.647E-09
 GABA     Conc. = 1.21E-10
   3.44743E-09  3.48756E-09  3.52712E-09  3.56611E-09  3.60450E-09  3.64230E-09  3.67950E-09  3.71609E-09  3.75207E-09  3.78743E-09
   3.82213E-09  3.85623E-09  3.88967E-09  3.92237E-09  3.95454E-09  3.98582E-09  4.01649E-09  4.04641E-09  4.07553E-09  4.10380E-09
   4.13137E-09  4.15778E-09  4.18354E-09  4.20806E-09  4.23159E-09  4.25406E-09  4.27557E-09  4.29734E-09  4.32721E-09  4.41671E-09
   4.33714E-09  4.45397E-09  4.54951E-09  4.49596E-09  4.61111E-09  4.65898E-09  4.67408E-09  4.79290E-09  4.76762E-09  4.85229E-09
   4.91437E-09  4.84168E-09  4.91506E-09  5.00936E-09  4.85370E-09  4.92581E-09  4.92291E-09  4.90112E-09  4.89099E-09  4.88718E-09
   4.88674E-09  4.88781E-09  4.89034E-09  4.89303E-09  4.89621E-09  4.89929E-09  4.90222E-09  4.90506E-09  4.90817E-09  4.91211E-09
   4.92183E-09  4.96160E-09  4.99021E-09  4.91515E-09  5.09765E-09  5.03192E-09  5.06461E-09  5.11759E-09  5.11732E-09  5.14856E-09
   5.18635E-09  5.14912E-09  5.21541E-09  5.17429E-09  5.09057E-09  5.19903E-09  5.10055E-09  5.02492E-09  5.04611E-09  5.03518E-09
   5.00611E-09  4.94318E-09  5.00717E-09  4.98907E-09  4.92570E-09  5.00987E-09  4.96617E-09  4.97452E-09  4.99485E-09  4.96253E-09
   4.99971E-09  4.99051E-09  4.91882E-09  4.99475E-09  4.95554E-09  4.86074E-09  4.91547E-09  4.86593E-09  4.80769E-09  4.79574E-09
   4.76094E-09  4.72803E-09  4.69793E-09  4.66923E-09  4.64167E-09  4.61471E-09  4.58817E-09  4.56184E-09  4.53569E-09  4.50958E-09
   4.48353E-09  4.45753E-09  4.43138E-09  4.40521E-09  4.37873E-09  4.35191E-09  4.32461E-09  4.29672E-09  4.26808E-09  4.23861E-09
   4.20816E-09  4.17664E-09  4.14393E-09  4.10991E-09  4.07446E-09  4.03747E-09  3.99883E-09  3.95841E-09  3.91611E-09  3.87181E-09
   3.82538E-09  3.77672E-09  3.72571E-09  3.67223E-09  3.61618E-09  3.55741E-09  3.49585E-09  3.43136E-09  3.36383E-09  3.29315E-09
   3.21916E-09  3.14186E-09  3.06116E-09  2.97699E-09  2.88929E-09  2.79801E-09  2.70308E-09  2.60446E-09  2.50207E-09  2.39587E-09
   2.28581E-09  2.17183E-09  2.05388E-09  1.93191E-09  1.80589E-09  1.67575E-09  1.54148E-09  1.40304E-09  1.26041E-09  1.11359E-09
   9.62610E-10  8.07561E-10  6.48715E-10  4.86642E-10  3.23225E-10  1.65881E-10  6.16671E-11 -4.27750E-11 -3.84777E-10 -3.57293E-10
  -7.56785E-10 -7.27555E-10 -1.10673E-09 -1.14635E-09 -1.51053E-09 -1.55289E-09 -1.95137E-09 -1.97215E-09 -2.38094E-09 -2.62492E-09
  -2.83840E-09 -3.04274E-09 -3.24177E-09 -3.43623E-09 -3.62607E-09 -3.81098E-09 -3.99054E-09 -4.16428E-09 -4.33169E-09 -4.49228E-09
  -4.64554E-09 -4.79098E-09 -4.92807E-09 -5.05629E-09 -5.17517E-09 -5.28421E-09 -5.38306E-09 -5.47181E-09 -5.55068E-09 -5.61985E-09
  -5.67953E-09 -5.72991E-09 -5.77121E-09 -5.80362E-09 -5.82735E-09 -5.84260E-09 -5.84958E-09 -5.84851E-09 -5.83959E-09 -5.82302E-09
  -5.79902E-09 -5.76781E-09 -5.72959E-09 -5.68457E-09 -5.63297E-09 -5.57501E-09 -5.51088E-09 -5.44082E-09 -5.36503E-09 -5.28372E-09
  -5.19711E-09 -5.10542E-09 -5.00885E-09 -4.90762E-09 -4.80197E-09 -4.69220E-09 -4.57862E-09 -4.46152E-09 -4.34122E-09 -4.21802E-09
  -4.09220E-09 -3.96407E-09 -3.83392E-09 -3.70204E-09 -3.56871E-09 -3.43423E-09 -3.29886E-09 -3.16291E-09 -3.02661E-09 -2.89028E-09
  -2.75416E-09 -2.61852E-09 -2.48362E-09 -2.34973E-09 -2.21708E-09 -2.08594E-09 -1.95654E-09 -1.82912E-09 -1.70393E-09 -1.58121E-09
  -1.46115E-09 -1.34401E-09 -1.22987E-09 -1.11868E-09 -1.01040E-09 -9.04970E-10 -8.02320E-10 -7.02407E-10 -6.05163E-10 -5.10539E-10
  -4.18482E-10 -3.28924E-10 -2.41824E-10 -1.57116E-10 -7.47561E-11  5.31557E-12  8.31664E-11  1.58818E-10  2.32340E-10  3.03791E-10
   3.73219E-10  4.40664E-10  5.06193E-10  5.69846E-10  6.31664E-10  6.91720E-10  7.50033E-10  8.06668E-10  8.61663E-10  9.15073E-10
   9.66931E-10  1.01727E-09  1.06614E-09  1.11356E-09  1.15957E-09  1.20421E-09  1.24750E-09  1.28949E-09  1.33020E-09  1.36965E-09
   1.40790E-09  1.44495E-09  1.48085E-09  1.51562E-09  1.54929E-09  1.58188E-09  1.61342E-09  1.64394E-09  1.67346E-09  1.70200E-09
   1.72959E-09  1.75625E-09  1.78200E-09  1.80686E-09  1.83085E-09  1.85399E-09  1.87629E-09  1.89777E-09  1.91844E-09  1.93829E-09
   1.95731E-09  1.97549E-09  1.99284E-09  2.00935E-09  2.02500E-09  2.03980E-09  2.05374E-09  2.06681E-09  2.07902E-09  2.09034E-09
   2.10077E-09  2.11032E-09  2.11897E-09  2.12671E-09  2.13355E-09  2.13947E-09  2.14447E-09  2.14854E-09  2.15167E-09  2.15387E-09
   2.15511E-09  2.15540E-09  2.15472E-09  2.15308E-09  2.15047E-09  2.14686E-09  2.14227E-09  2.13666E-09  2.13003E-09  2.12237E-09
   2.11365E-09  2.10388E-09  2.09303E-09  2.08110E-09  2.06808E-09  2.05395E-09  2.03870E-09  2.02233E-09  2.00483E-09  1.98619E-09
   1.96639E-09  1.94544E-09  1.92332E-09  1.90004E-09  1.87557E-09  1.84992E-09  1.82309E-09  1.79506E-09  1.76583E-09  1.73541E-09
   1.70377E-09  1.67094E-09  1.63689E-09
 Gln      Conc. = 6.82E-10
   2.87205E-09  3.57169E-09  3.39794E-09  3.68359E-09  3.72395E-09  4.00873E-09  3.91145E-09  4.34784E-09  4.28452E-09  4.22758E-09
   4.69771E-09  4.24146E-09  4.49395E-09  4.40399E-09  4.33811E-09  4.30374E-09  4.28552E-09  4.27918E-09  4.27830E-09  4.28311E-09
   4.29020E-09  4.30037E-09  4.31123E-09  4.32431E-09  4.33680E-09  4.35094E-09  4.36510E-09  4.37923E-09  4.39359E-09  4.40784E-09
   4.42183E-09  4.43550E-09  4.44875E-09  4.46153E-09  4.47376E-09  4.48539E-09  4.49636E-09  4.50659E-09  4.51593E-09  4.52476E-09
   4.53209E-09  4.53932E-09  4.54469E-09  4.54968E-09  4.55267E-09  4.55565E-09  4.55524E-09  4.55514E-09  4.55439E-09  4.54982E-09
   4.54619E-09  4.54585E-09  4.55225E-09  4.60328E-09  4.88314E-09  4.77740E-09  4.78875E-09  5.50351E-09  5.05533E-09  5.67882E-09
   5.46011E-09  5.91693E-09  5.75966E-09  6.18771E-09  5.82891E-09  6.45083E-09  5.73926E-09  5.95530E-09  6.03516E-09  5.58351E-09
   5.42158E-09  5.68126E-09  5.29942E-09  5.43323E-09  5.70116E-09  5.40292E-09  5.85370E-09  5.76682E-09  5.93588E-09  6.09174E-09
   6.06336E-09  6.15023E-09  6.42510E-09  6.00944E-09  6.16692E-09  6.25237E-09  5.79101E-09  5.86473E-09  5.71110E-09  5.56944E-09
   5.46626E-09  5.38468E-09  5.31578E-09  5.25813E-09  5.20716E-09  5.15886E-09  5.11552E-09  5.07443E-09  5.03549E-09  4.99808E-09
   4.96257E-09  4.92764E-09  4.89390E-09  4.86052E-09  4.82783E-09  4.79568E-09  4.76392E-09  4.73247E-09  4.70128E-09  4.67033E-09
   4.63957E-09  4.60898E-09  4.57850E-09  4.54809E-09  4.51761E-09  4.48692E-09  4.45590E-09  4.42441E-09  4.39234E-09  4.35955E-09
   4.32593E-09  4.29134E-09  4.25568E-09  4.21882E-09  4.18064E-09  4.14101E-09  4.09982E-09  4.05695E-09  4.01228E-09  3.96570E-09
   3.91706E-09  3.86627E-09  3.81321E-09  3.75774E-09  3.69977E-09  3.63916E-09  3.57581E-09  3.50960E-09  3.44042E-09  3.36814E-09
   3.29262E-09  3.21386E-09  3.13174E-09  3.04623E-09  2.95726E-09  2.86477E-09  2.76872E-09  2.66903E-09  2.56568E-09  2.45859E-09
   2.34775E-09  2.23309E-09  2.11461E-09  1.99225E-09  1.86603E-09  1.73592E-09  1.60196E-09  1.46420E-09  1.32277E-09  1.17786E-09
   1.02984E-09  8.79426E-10  7.28120E-10  5.79262E-10  4.42420E-10  3.53755E-10  5.29380E-10  1.00917E-09 -3.31496E-10  1.02010E-09
  -6.22780E-10  7.44611E-10 -7.03092E-10  2.63912E-10 -1.09624E-09 -1.00470E-10 -1.66994E-09 -6.01128E-10 -2.02228E-09 -2.48776E-09
  -2.76132E-09 -2.99012E-09 -3.20172E-09 -3.40369E-09 -3.59847E-09 -3.78692E-09 -3.96914E-09 -4.14500E-09 -4.31414E-09 -4.47621E-09
  -4.63076E-09 -4.77734E-09 -4.91547E-09 -5.04465E-09 -5.16443E-09 -5.27431E-09 -5.37395E-09 -5.46346E-09 -5.54305E-09 -5.61293E-09
  -5.67329E-09 -5.72433E-09 -5.76627E-09 -5.79931E-09 -5.82365E-09 -5.83950E-09 -5.84707E-09 -5.84658E-09 -5.83822E-09 -5.82221E-09
  -5.79877E-09 -5.76810E-09 -5.73041E-09 -5.68592E-09 -5.63484E-09 -5.57738E-09 -5.51377E-09 -5.44420E-09 -5.36891E-09 -5.28809E-09
  -5.20196E-09 -5.11074E-09 -5.01465E-09 -4.91388E-09 -4.80869E-09 -4.69938E-09 -4.58625E-09 -4.46960E-09 -4.34974E-09 -4.22697E-09
