 LCModel (Version 6.3-1R) Copyright: S.W. Provencher.          Ref.: Magn. Reson. Med. 30:672-679 (1993).                
 onepulse 29x27_ftSpec_smooth_lcm
 26 lines in following concentration table = NCONC+1
    Conc.  %SD   /Cr    Metabolite                                         
    0.000 999%   0.000 Ala                                                 
 2.74E-10 197%   0.000 Asp                                                 
    0.000 999%   0.000 Cr                                                  
 7.62E-10  41%   0.000 GABA                                                
    0.000 999%   0.000 Glc                                                 
    0.000 999%   0.000 Gln                                                 
    0.000 999%   0.000 Glu                                                 
    0.000 999%   0.000 Glyc                                                
 6.93E-11  88%   0.000 GPC                                                 
 2.26E-10 125%   0.000 GSH                                                 
 1.06E-09  22%   0.000 Ins                                                 
    0.000 999%   0.000 Lac                                                 
    0.000 999%   0.000 NAAG                                                
    0.000 999%   0.000 NAA                                                 
    0.000 999%   0.000 PCh                                                 
    0.000 999%   0.000 PCr                                                 
    0.000 999%   0.000 PE                                                  
 1.84E-10  49%   0.000 Scyllo                                              
 4.36E-10 151%   0.000 Ser                                                 
    0.000 999%   0.000 Tau                                                 
 6.93E-11  88%   0.000 GPC+PCh                                             
    0.000 999%   0.000 NAA+NAAG                                            
 1.06E-09  22%   0.000 Ins+Glyc                                            
    0.000 999%   0.000 Cr+PCr                                              
    0.000 999%   0.000 Glu+Gln                                             
   6 lines in following misc. output table
  FWHM = 0.101 ppm    S/N =   2                                            
  Data shift = 0.224 ppm                                                   
  Ph:  -4 deg      28.3 deg/ppm                                            
  alphaB,S = 1.8E-01,   4.3E+01                                            
   10 spline knots.   Ns = 5(1)                                            
  ( 8) 2 infls.   ( 7) 1 extrs.                                            
  363 points on ppm-axis = NY
      4.250000     4.238821     4.227641     4.216462     4.205282     4.194103     4.182923     4.171744     4.160564     4.149385
      4.138206     4.127026     4.115847     4.104667     4.093488     4.082308     4.071129     4.059949     4.048770     4.037591
      4.026411     4.015232     4.004052     3.992873     3.981693     3.970514     3.959334     3.948155     3.936975     3.925796
      3.914617     3.903437     3.892258     3.881078     3.869899     3.858719     3.847540     3.836360     3.825181     3.814002
      3.802822     3.791643     3.780463     3.769284     3.758104     3.746925     3.735745     3.724566     3.713387     3.702207
      3.691028     3.679848     3.668669     3.657489     3.646310     3.635130     3.623951     3.612772     3.601592     3.590413
      3.579233     3.568054     3.556874     3.545695     3.534515     3.523336     3.512156     3.500977     3.489798     3.478618
      3.467439     3.456259     3.445080     3.433900     3.422721     3.411541     3.400362     3.389183     3.378003     3.366824
      3.355644     3.344465     3.333285     3.322106     3.310926     3.299747     3.288568     3.277388     3.266209     3.255029
      3.243850     3.232670     3.221491     3.210311     3.199132     3.187953     3.176773     3.165594     3.154414     3.143235
      3.132055     3.120876     3.109696     3.098517     3.087337     3.076158     3.064979     3.053799     3.042620     3.031440
      3.020261     3.009081     2.997902     2.986722     2.975543     2.964364     2.953184     2.942005     2.930825     2.919646
      2.908466     2.897287     2.886107     2.874928     2.863749     2.852569     2.841390     2.830210     2.819031     2.807851
      2.796672     2.785492     2.774313     2.763134     2.751954     2.740775     2.729595     2.718416     2.707236     2.696057
      2.684877     2.673698     2.662519     2.651339     2.640160     2.628980     2.617801     2.606621     2.595442     2.584262
      2.573083     2.561903     2.550724     2.539545     2.528365     2.517186     2.506006     2.494827     2.483647     2.472468
      2.461288     2.450109     2.438930     2.427750     2.416571     2.405391     2.394212     2.383032     2.371853     2.360673
      2.349494     2.338315     2.327135     2.315956     2.304776     2.293597     2.282417     2.271238     2.260058     2.248879
      2.237700     2.226520     2.215341     2.204161     2.192982     2.181802     2.170623     2.159443     2.148264     2.137084
      2.125905     2.114726     2.103546     2.092367     2.081187     2.070008     2.058828     2.047649     2.036469     2.025290
      2.014111     2.002931     1.991752     1.980572     1.969393     1.958213     1.947034     1.935854     1.924675     1.913496
      1.902316     1.891137     1.879957     1.868778     1.857598     1.846419     1.835239     1.824060     1.812881     1.801701
      1.790522     1.779342     1.768163     1.756983     1.745804     1.734624     1.723445     1.712265     1.701086     1.689907
      1.678727     1.667548     1.656368     1.645189     1.634009     1.622830     1.611650     1.600471     1.589292     1.578112
      1.566933     1.555753     1.544574     1.533394     1.522215     1.511035     1.499856     1.488677     1.477497     1.466318
      1.455138     1.443959     1.432779     1.421600     1.410420     1.399241     1.388062     1.376882     1.365703     1.354523
      1.343344     1.332164     1.320985     1.309805     1.298626     1.287446     1.276267     1.265088     1.253908     1.242729
      1.231549     1.220370     1.209190     1.198011     1.186831     1.175652     1.164473     1.153293     1.142114     1.130934
      1.119755     1.108575     1.097396     1.086216     1.075037     1.063858     1.052678     1.041499     1.030319     1.019140
      1.007960     0.996781     0.985601     0.974422     0.963243     0.952063     0.940884     0.929704     0.918525     0.907345
      0.896166     0.884986     0.873807     0.862628     0.851448     0.840269     0.829089     0.817910     0.806730     0.795551
      0.784371     0.773192     0.762012     0.750833     0.739654     0.728474     0.717295     0.706115     0.694936     0.683756
      0.672577     0.661397     0.650218     0.639039     0.627859     0.616680     0.605500     0.594321     0.583141     0.571962
      0.560782     0.549603     0.538424     0.527244     0.516065     0.504885     0.493706     0.482526     0.471347     0.460167
      0.448988     0.437809     0.426629     0.415450     0.404270     0.393091     0.381911     0.370732     0.359552     0.348373
      0.337193     0.326014     0.314835     0.303655     0.292476     0.281296     0.270117     0.258937     0.247758     0.236578
      0.225399     0.214220     0.203040
 NY phased data points follow
   8.00508E-09  6.92472E-09  7.53270E-09  7.31838E-09  7.80608E-09  7.16525E-09  8.00223E-09  7.50450E-09  8.61990E-09  8.71157E-09
   9.73428E-09  9.84252E-09  1.02402E-08  9.37272E-09  8.84349E-09  7.60007E-09  7.58135E-09  6.72944E-09  7.06632E-09  6.76574E-09
   6.96743E-09  6.44822E-09  7.05493E-09  6.28089E-09  7.07398E-09  6.51201E-09  6.84283E-09  6.21886E-09  6.58070E-09  6.10164E-09
   6.24729E-09  5.05726E-09  5.47595E-09  4.99548E-09  5.36727E-09  5.07866E-09  5.60152E-09  5.32213E-09  4.83232E-09  4.68198E-09
   4.72632E-09  4.32946E-09  5.23583E-09  5.13085E-09  5.48145E-09  4.37871E-09  4.47583E-09  3.72992E-09  3.09807E-09  2.83528E-09
   2.84956E-09  2.78745E-09  3.12652E-09  2.48958E-09  2.40981E-09  2.19892E-09  2.17783E-09  1.88894E-09  1.80699E-09  1.99654E-09
   2.08179E-09  2.11579E-09  2.11477E-09  2.21839E-09  2.01539E-09  2.00290E-09  1.94712E-09  2.02462E-09  2.30331E-09  2.40966E-09
   2.52374E-09  2.54579E-09  2.76182E-09  2.82661E-09  3.53745E-09  3.52803E-09  3.29358E-09  2.50505E-09  2.19251E-09  1.49244E-09
   1.71253E-09  1.17566E-09  1.25014E-09  1.11005E-09  2.20698E-09  1.59441E-09  2.12307E-09  2.07140E-09  2.71533E-09  3.00325E-09
   4.93375E-09  4.46874E-09  4.82800E-09  3.62932E-09  3.03966E-09  2.01273E-09  2.01539E-09  1.44219E-09  1.78604E-09  1.35882E-09
   1.73125E-09  1.16224E-09  1.32530E-09  1.04827E-09  1.17662E-09  9.30255E-10  1.27191E-09  2.97389E-10  1.12320E-09  7.25223E-10
   9.69687E-10  6.67126E-10  1.07892E-09  8.24779E-10  1.04665E-09  6.53885E-10  7.87828E-10  3.50037E-10  7.52408E-10  2.87424E-10
   2.85815E-11 -5.71148E-11  1.21600E-10  2.44600E-10  8.61098E-10  4.70484E-10  4.58591E-10 -8.83220E-11  6.05500E-10 -1.33264E-10
   3.99232E-10 -2.82723E-10 -5.27178E-11 -4.65074E-10 -4.40407E-10 -1.07699E-09 -4.28146E-10 -4.56583E-10 -5.09674E-10 -1.33013E-10
   6.89015E-11  1.02777E-10  6.79979E-10  4.92212E-10  9.32184E-10  1.10837E-09  1.32913E-09  1.17797E-09  1.85624E-09  2.00050E-09
   2.38530E-09  2.52276E-09  2.73086E-09  2.37236E-09  2.12266E-09  1.83343E-09  2.50461E-09  2.13560E-09  2.02242E-09  1.76839E-09
   1.86891E-09  1.68424E-09  2.14097E-09  1.84643E-09  2.45874E-09  2.15804E-09  3.05157E-09  2.48878E-09  2.87184E-09  2.61743E-09
   3.20015E-09  3.02934E-09  3.00628E-09  2.49116E-09  2.39363E-09  1.92311E-09  1.79846E-09  1.73416E-09  1.47383E-09  1.30392E-09
   1.79383E-09  2.10168E-09  1.62064E-09 -4.50551E-12 -1.41225E-09 -3.71500E-09 -4.27325E-09 -5.56331E-09 -5.79812E-09 -6.44801E-09
  -6.80663E-09 -7.35407E-09 -7.33751E-09 -8.18582E-09 -8.17543E-09 -9.19177E-09 -8.66464E-09 -9.49871E-09 -9.47405E-09 -9.96571E-09
  -1.00099E-08 -1.06236E-08 -1.09348E-08 -1.11058E-08 -1.09271E-08 -1.17070E-08 -1.15364E-08 -1.17758E-08 -1.14935E-08 -1.09919E-08
  -9.67191E-09 -8.51851E-09 -6.65318E-09 -4.77152E-09 -2.71704E-09 -1.57156E-09 -2.04709E-10  1.56267E-10 -7.64583E-11 -1.00947E-09
  -1.91995E-09 -3.75201E-09 -5.74926E-09 -8.34178E-09 -9.74050E-09 -1.07227E-08 -1.00999E-08 -9.49442E-09 -7.26939E-09 -5.28351E-09
  -2.81511E-09 -8.47669E-10  2.52181E-10  6.85782E-10 -1.65999E-10 -1.38816E-09 -2.63560E-09 -2.73731E-09 -2.04946E-09 -9.60799E-10
   4.81200E-10  1.38759E-09  1.34259E-09  8.59204E-10 -7.28893E-10 -1.78798E-09 -2.18328E-09 -1.75978E-09 -1.03980E-09 -5.20919E-10
   5.39795E-10  1.13237E-09  1.87701E-09  1.51916E-09  1.07497E-09  9.19423E-10  5.06805E-10  1.16079E-10  5.44703E-10  6.99721E-10
   1.49962E-09  1.41101E-09  2.04503E-09  2.27060E-09  1.87518E-09  1.90204E-09  1.69902E-09  1.08539E-09  1.17477E-09  6.84490E-10
   4.58920E-10  3.25174E-10  3.28838E-11 -2.84900E-10 -2.04263E-10 -3.01198E-10 -2.23462E-10 -5.59040E-10 -5.31111E-10 -9.72354E-10
  -8.54252E-10 -8.41344E-10 -7.27675E-10 -5.55870E-10 -6.19731E-10 -8.08793E-10 -6.36982E-10 -7.02678E-10 -8.72064E-10 -9.30805E-10
  -9.19256E-10 -1.22179E-09 -1.24699E-09 -1.08247E-09 -7.71366E-10 -8.93584E-10 -9.31378E-10 -1.22299E-09 -7.35027E-10 -8.22696E-10
  -6.58646E-10 -8.41603E-10 -6.93214E-10 -7.41144E-10 -7.13024E-10 -5.62825E-10 -6.40451E-10 -7.14918E-10 -3.89162E-10 -1.41428E-10
  -4.83300E-10 -7.22061E-11 -6.92215E-11  3.96770E-10  2.17396E-10  8.20973E-11  7.10418E-13  1.91994E-10 -3.88136E-11  3.53399E-10
   5.56965E-10  6.32014E-10  8.14113E-11  7.91325E-10  7.24418E-10  3.23663E-10  8.74910E-10  7.45971E-10  6.81475E-10  8.28347E-10
   7.86163E-10  9.23348E-10  7.44805E-10  8.93268E-10  8.95957E-10  9.65639E-10  8.56677E-10  9.37636E-10  1.34573E-09  9.67156E-10
   1.16252E-09  9.29126E-10  1.27528E-09  1.02976E-09  1.25469E-09  1.05775E-09  1.38106E-09  1.12188E-09  1.07557E-09  1.25670E-09
   1.34132E-09  1.10879E-09  1.63902E-09  1.44301E-09  1.27727E-09  1.11713E-09  1.52194E-09  1.16494E-09  1.69326E-09  9.96003E-10
   1.11172E-09  1.23428E-09  1.38528E-09
 NY points of the fit to the data follow
   7.51449E-09  7.46864E-09  7.40128E-09  7.35108E-09  7.40127E-09  7.53168E-09  7.61734E-09  7.74866E-09  8.13529E-09  8.65851E-09
   9.14968E-09  9.47214E-09  9.58696E-09  9.49455E-09  9.11079E-09  8.52941E-09  7.92921E-09  7.39352E-09  6.91973E-09  6.54815E-09
   6.44009E-09  6.50559E-09  6.55801E-09  6.68939E-09  6.88650E-09  7.01300E-09  6.93510E-09  6.62817E-09  6.20838E-09  5.95967E-09
   5.84869E-09  5.63939E-09  5.46401E-09  5.34482E-09  5.21534E-09  5.20134E-09  5.28162E-09  5.34679E-09  5.32264E-09  5.18690E-09
   4.96475E-09  4.69883E-09  4.33334E-09  3.93314E-09  3.65751E-09  3.42983E-09  3.19983E-09  3.02089E-09  2.93712E-09  2.90675E-09
   2.90749E-09  2.91341E-09  2.89089E-09  2.85471E-09  2.81792E-09  2.77785E-09  2.75316E-09  2.73857E-09  2.69740E-09  2.63869E-09
   2.60273E-09  2.61799E-09  2.71606E-09  2.79803E-09  2.88467E-09  3.07014E-09  3.22816E-09  3.30399E-09  3.33580E-09  3.31996E-09
   3.23903E-09  3.07727E-09  2.88556E-09  2.70588E-09  2.53124E-09  2.30717E-09  2.14186E-09  2.07995E-09  1.98420E-09  1.88935E-09
   1.85774E-09  1.83031E-09  1.80699E-09  1.85129E-09  1.92106E-09  1.97398E-09  2.05849E-09  2.15498E-09  2.22389E-09  2.26201E-09
   2.26070E-09  2.23718E-09  2.19028E-09  2.07113E-09  1.93670E-09  1.85010E-09  1.72402E-09  1.58384E-09  1.50005E-09  1.42666E-09
   1.35562E-09  1.30528E-09  1.26875E-09  1.24128E-09  1.22017E-09  1.20374E-09  1.19091E-09  1.18091E-09  1.17318E-09  1.16725E-09
   1.16271E-09  1.15921E-09  1.15651E-09  1.15441E-09  1.15273E-09  1.15130E-09  1.14993E-09  1.14843E-09  1.14666E-09  1.14448E-09
   1.14176E-09  1.13837E-09  1.13419E-09  1.12908E-09  1.12292E-09  1.11560E-09  1.10700E-09  1.09700E-09  1.08549E-09  1.07237E-09
   1.05751E-09  1.04081E-09  1.02216E-09  1.00146E-09  9.78594E-10  9.53460E-10  9.25954E-10  8.95967E-10  8.63399E-10  8.28151E-10
   7.90119E-10  7.49204E-10  7.05312E-10  6.58343E-10  6.08199E-10  5.54797E-10  4.98048E-10  4.37872E-10  3.74186E-10  3.06926E-10
   2.36021E-10  1.61429E-10  8.31204E-11  1.07689E-12 -8.46740E-11 -1.74073E-10 -2.66936E-10 -3.62781E-10 -4.60864E-10 -5.60191E-10
  -6.59337E-10 -7.56078E-10 -8.46611E-10 -9.23586E-10 -9.70289E-10 -9.37714E-10 -6.06668E-10  5.77379E-10  1.97622E-09  3.11702E-09
   3.83642E-09  4.14300E-09  4.10755E-09  3.78468E-09  3.16026E-09  2.15543E-09  7.34796E-10 -9.34553E-10 -2.32198E-09 -2.82489E-09
  -3.10436E-09 -3.31369E-09 -3.49140E-09 -3.65141E-09 -3.79989E-09 -3.93995E-09 -4.07324E-09 -4.20067E-09 -4.32274E-09 -4.43973E-09
  -4.55172E-09 -4.65872E-09 -4.76067E-09 -4.85745E-09 -4.94893E-09 -5.03493E-09 -5.11527E-09 -5.18976E-09 -5.25818E-09 -5.32032E-09
  -5.37596E-09 -5.42487E-09 -5.46683E-09 -5.50160E-09 -5.52894E-09 -5.54862E-09 -5.56039E-09 -5.56403E-09 -5.55941E-09 -5.54675E-09
  -5.52631E-09 -5.49837E-09 -5.46317E-09 -5.42100E-09 -5.37211E-09 -5.31677E-09 -5.25524E-09 -5.18779E-09 -5.11467E-09 -5.03615E-09
  -4.95250E-09 -4.86397E-09 -4.77083E-09 -4.67334E-09 -4.57176E-09 -4.46636E-09 -4.35739E-09 -4.24511E-09 -4.12981E-09 -4.01172E-09
  -3.89111E-09 -3.76826E-09 -3.64340E-09 -3.51682E-09 -3.38876E-09 -3.25950E-09 -3.12929E-09 -2.99839E-09 -2.86706E-09 -2.73558E-09
  -2.60419E-09 -2.47316E-09 -2.34276E-09 -2.21323E-09 -2.08485E-09 -1.95787E-09 -1.83256E-09 -1.70917E-09 -1.58797E-09 -1.46923E-09
  -1.35319E-09 -1.24012E-09 -1.13029E-09 -1.02395E-09 -9.21371E-10 -8.22795E-10 -7.28508E-10 -6.38758E-10 -5.53802E-10 -4.73914E-10
  -3.99149E-10 -3.29387E-10 -2.64492E-10 -2.04303E-10 -1.48680E-10 -9.74834E-11 -5.05604E-11 -7.77528E-12  3.10307E-11  6.59923E-11
   9.72485E-11  1.24962E-10  1.49256E-10  1.70300E-10  1.88234E-10  2.03180E-10  2.15310E-10  2.24754E-10  2.31675E-10  2.36188E-10
   2.38471E-10  2.38631E-10  2.36864E-10  2.33283E-10  2.28021E-10  2.21239E-10  2.13100E-10  2.03728E-10  1.93261E-10  1.81846E-10
   1.69645E-10  1.56806E-10  1.43467E-10  1.29744E-10  1.15830E-10  1.01825E-10  8.79166E-11  7.42257E-11  6.09086E-11  4.80879E-11
   3.59191E-11  2.45862E-11  1.41664E-11  4.86300E-12 -3.20283E-12 -9.90685E-12 -1.50790E-11 -1.85486E-11 -2.02403E-11 -1.99364E-11
  -1.75443E-11 -1.29351E-11 -6.04811E-12  3.01295E-12  1.41773E-11  2.73767E-11  4.25391E-11  5.95943E-11  7.84724E-11  9.91026E-11
   1.21417E-10  1.45340E-10  1.70804E-10  1.97740E-10  2.26075E-10  2.55740E-10  2.86664E-10  3.18778E-10  3.52009E-10  3.86287E-10
   4.21544E-10  4.57708E-10  4.94706E-10  5.32474E-10  5.70936E-10  6.10023E-10  6.49666E-10  6.89794E-10  7.30334E-10  7.71219E-10
   8.12377E-10  8.53738E-10  8.95232E-10  9.36788E-10  9.78332E-10  1.01980E-09  1.06112E-09  1.10222E-09  1.14303E-09  1.18347E-09
   1.22349E-09  1.26300E-09  1.30195E-09  1.34025E-09  1.37783E-09  1.41464E-09  1.45059E-09  1.48562E-09  1.51965E-09  1.55262E-09
   1.58445E-09  1.61508E-09  1.64443E-09
 NY background values follow
     3.693E-09    3.651E-09    3.609E-09    3.567E-09    3.525E-09    3.483E-09    3.442E-09    3.400E-09    3.358E-09    3.316E-09
     3.275E-09    3.233E-09    3.192E-09    3.150E-09    3.109E-09    3.068E-09    3.027E-09    2.986E-09    2.945E-09    2.904E-09
     2.863E-09    2.823E-09    2.783E-09    2.742E-09    2.702E-09    2.663E-09    2.623E-09    2.584E-09    2.544E-09    2.505E-09
     2.467E-09    2.428E-09    2.390E-09    2.352E-09    2.314E-09    2.276E-09    2.239E-09    2.202E-09    2.165E-09    2.129E-09
     2.093E-09    2.057E-09    2.021E-09    1.986E-09    1.951E-09    1.917E-09    1.883E-09    1.849E-09    1.816E-09    1.783E-09
     1.750E-09    1.718E-09    1.686E-09    1.655E-09    1.624E-09    1.593E-09    1.563E-09    1.534E-09    1.504E-09    1.476E-09
     1.448E-09    1.420E-09    1.392E-09    1.366E-09    1.339E-09    1.314E-09    1.288E-09    1.264E-09    1.239E-09    1.216E-09
     1.193E-09    1.170E-09    1.148E-09    1.127E-09    1.106E-09    1.086E-09    1.066E-09    1.047E-09    1.029E-09    1.011E-09
     9.935E-10    9.770E-10    9.611E-10    9.459E-10    9.313E-10    9.174E-10    9.042E-10    8.917E-10    8.798E-10    8.687E-10
     8.582E-10    8.485E-10    8.395E-10    8.313E-10    8.238E-10    8.170E-10    8.110E-10    8.057E-10    8.013E-10    7.976E-10
     7.947E-10    7.926E-10    7.913E-10    7.908E-10    7.911E-10    7.922E-10    7.940E-10    7.963E-10    7.991E-10    8.022E-10
     8.055E-10    8.090E-10    8.126E-10    8.161E-10    8.194E-10    8.224E-10    8.250E-10    8.272E-10    8.288E-10    8.297E-10
     8.297E-10    8.289E-10    8.271E-10    8.242E-10    8.200E-10    8.146E-10    8.077E-10    7.993E-10    7.893E-10    7.775E-10
     7.639E-10    7.484E-10    7.308E-10    7.111E-10    6.891E-10    6.648E-10    6.380E-10    6.086E-10    5.766E-10    5.418E-10
     5.041E-10    4.634E-10    4.196E-10    3.727E-10    3.225E-10    2.688E-10    2.117E-10    1.510E-10    8.651E-11    1.824E-11
    -5.394E-11   -1.301E-10   -2.105E-10   -2.950E-10   -3.839E-10   -4.773E-10   -5.751E-10   -6.773E-10   -7.836E-10   -8.937E-10
    -1.007E-09   -1.125E-09   -1.245E-09   -1.368E-09   -1.493E-09   -1.621E-09   -1.751E-09   -1.883E-09   -2.017E-09   -2.152E-09
    -2.288E-09   -2.425E-09   -2.562E-09   -2.700E-09   -2.838E-09   -2.976E-09   -3.114E-09   -3.251E-09   -3.387E-09   -3.522E-09
    -3.655E-09   -3.787E-09   -3.917E-09   -4.045E-09   -4.171E-09   -4.294E-09   -4.414E-09   -4.531E-09   -4.645E-09   -4.755E-09
    -4.861E-09   -4.963E-09   -5.061E-09   -5.154E-09   -5.242E-09   -5.326E-09   -5.404E-09   -5.476E-09   -5.542E-09   -5.603E-09
    -5.657E-09   -5.704E-09   -5.745E-09   -5.778E-09   -5.805E-09   -5.823E-09   -5.834E-09   -5.837E-09   -5.831E-09   -5.818E-09
    -5.797E-09   -5.768E-09   -5.732E-09   -5.689E-09   -5.640E-09   -5.584E-09   -5.522E-09   -5.454E-09   -5.380E-09   -5.301E-09
    -5.217E-09   -5.128E-09   -5.035E-09   -4.937E-09   -4.835E-09   -4.729E-09   -4.620E-09   -4.507E-09   -4.392E-09   -4.273E-09
    -4.152E-09   -4.029E-09   -3.904E-09   -3.777E-09   -3.649E-09   -3.519E-09   -3.389E-09   -3.258E-09   -3.126E-09   -2.995E-09
    -2.863E-09   -2.732E-09   -2.601E-09   -2.471E-09   -2.343E-09   -2.216E-09   -2.090E-09   -1.966E-09   -1.845E-09   -1.726E-09
    -1.610E-09   -1.497E-09   -1.387E-09   -1.280E-09   -1.177E-09   -1.079E-09   -9.842E-10   -8.943E-10   -8.091E-10   -7.291E-10
    -6.542E-10   -5.842E-10   -5.192E-10   -4.588E-10   -4.031E-10   -3.517E-10   -3.047E-10   -2.617E-10   -2.228E-10   -1.877E-10
    -1.563E-10   -1.284E-10   -1.040E-10   -8.279E-11   -6.472E-11   -4.963E-11   -3.737E-11   -2.779E-11   -2.073E-11   -1.609E-11
    -1.367E-11   -1.338E-11   -1.502E-11   -1.847E-11   -2.360E-11   -3.026E-11   -3.827E-11   -4.751E-11   -5.786E-11   -6.915E-11
    -8.122E-11   -9.394E-11   -1.072E-10   -1.208E-10   -1.345E-10   -1.484E-10   -1.622E-10   -1.758E-10   -1.890E-10   -2.017E-10
    -2.137E-10   -2.249E-10   -2.352E-10   -2.444E-10   -2.524E-10   -2.590E-10   -2.640E-10   -2.674E-10   -2.689E-10   -2.685E-10
    -2.660E-10   -2.613E-10   -2.543E-10   -2.451E-10   -2.338E-10   -2.205E-10   -2.052E-10   -1.880E-10   -1.690E-10   -1.483E-10
    -1.258E-10   -1.018E-10   -7.622E-11   -4.917E-11   -2.072E-11    9.068E-12    4.011E-11    7.234E-11    1.057E-10    1.401E-10
     1.755E-10    2.118E-10    2.489E-10    2.868E-10    3.253E-10    3.645E-10    4.043E-10    4.446E-10    4.852E-10    5.262E-10
     5.675E-10    6.090E-10    6.506E-10    6.923E-10    7.340E-10    7.755E-10    8.170E-10    8.582E-10    8.992E-10    9.397E-10
     9.799E-10    1.020E-09    1.059E-09    1.097E-09    1.135E-09    1.172E-09    1.208E-09    1.243E-09    1.277E-09    1.310E-09
     1.342E-09    1.373E-09    1.402E-09
 Asp      Conc. = 2.74E-10
   3.99437E-09  3.90930E-09  3.82868E-09  3.74527E-09  3.66666E-09  3.58635E-09  3.51257E-09  3.44942E-09  3.39709E-09  3.34920E-09
   3.30365E-09  3.25955E-09  3.21645E-09  3.17402E-09  3.13192E-09  3.09010E-09  3.04860E-09  3.00736E-09  2.96641E-09  2.92571E-09
   2.88528E-09  2.84512E-09  2.80524E-09  2.76565E-09  2.72639E-09  2.68747E-09  2.64894E-09  2.61084E-09  2.57323E-09  2.53619E-09
   2.49984E-09  2.46438E-09  2.43004E-09  2.39730E-09  2.36703E-09  2.34124E-09  2.32465E-09  2.31030E-09  2.29912E-09  2.28139E-09
   2.25467E-09  2.22287E-09  2.19766E-09  2.18860E-09  2.20118E-09  2.23365E-09  2.25174E-09  2.24663E-09  2.24822E-09  2.24762E-09
   2.23813E-09  2.20862E-09  2.14995E-09  2.05874E-09  1.95220E-09  1.85844E-09  1.79188E-09  1.74761E-09  1.69151E-09  1.62739E-09
   1.58066E-09  1.53929E-09  1.50051E-09  1.46904E-09  1.43628E-09  1.39653E-09  1.35451E-09  1.31953E-09  1.28835E-09  1.25957E-09
   1.23250E-09  1.20679E-09  1.18222E-09  1.15866E-09  1.13602E-09  1.11423E-09  1.09326E-09  1.07306E-09  1.05361E-09  1.03490E-09
   1.01693E-09  9.99681E-10  9.83142E-10  9.67328E-10  9.52235E-10  9.37851E-10  9.24192E-10  9.11250E-10  8.99036E-10  8.87557E-10
   8.76808E-10  8.66810E-10  8.57544E-10  8.49043E-10  8.41301E-10  8.34315E-10  8.28100E-10  8.22667E-10  8.18023E-10  8.14166E-10
   8.11123E-10  8.08868E-10  8.07430E-10  8.06823E-10  8.07023E-10  8.08004E-10  8.09654E-10  8.11865E-10  8.14537E-10  8.17562E-10
   8.20836E-10  8.24257E-10  8.27718E-10  8.31115E-10  8.34347E-10  8.37303E-10  8.39886E-10  8.41989E-10  8.43505E-10  8.44335E-10
   8.44369E-10  8.43508E-10  8.41645E-10  8.38677E-10  8.34499E-10  8.29010E-10  8.22099E-10  8.13670E-10  8.03614E-10  7.91827E-10
   7.78207E-10  7.62650E-10  7.45052E-10  7.25306E-10  7.03312E-10  6.78962E-10  6.52157E-10  6.22790E-10  5.90760E-10  5.55962E-10
   5.18291E-10  4.77642E-10  4.33919E-10  3.87013E-10  3.36819E-10  2.83239E-10  2.26168E-10  1.65507E-10  1.01150E-10  3.30018E-11
  -3.90462E-11 -1.15087E-10 -1.95215E-10 -2.79536E-10 -3.68135E-10 -4.61108E-10 -5.58486E-10 -6.60094E-10 -7.65632E-10 -8.74788E-10
  -9.87205E-10 -1.10246E-09 -1.21998E-09 -1.33887E-09 -1.45740E-09 -1.57087E-09 -1.65891E-09 -1.67050E-09 -1.66449E-09 -1.68348E-09
  -1.74189E-09 -1.83859E-09 -1.96688E-09 -2.12159E-09 -2.30385E-09 -2.52070E-09 -2.77513E-09 -3.05160E-09 -3.30125E-09 -3.46894E-09
  -3.61563E-09 -3.75457E-09 -3.88898E-09 -4.01986E-09 -4.14755E-09 -4.27210E-09 -4.39344E-09 -4.51142E-09 -4.62586E-09 -4.73656E-09
  -4.84330E-09 -4.94586E-09 -5.04401E-09 -5.13751E-09 -5.22613E-09 -5.30961E-09 -5.38773E-09 -5.46022E-09 -5.52686E-09 -5.58740E-09
  -5.64158E-09 -5.68917E-09 -5.72991E-09 -5.76356E-09 -5.78988E-09 -5.80861E-09 -5.81951E-09 -5.82232E-09 -5.81694E-09 -5.80357E-09
  -5.78246E-09 -5.75388E-09 -5.71809E-09 -5.67535E-09 -5.62593E-09 -5.57008E-09 -5.50807E-09 -5.44016E-09 -5.36660E-09 -5.28767E-09
  -5.20361E-09 -5.11470E-09 -5.02119E-09 -4.92335E-09 -4.82143E-09 -4.71570E-09 -4.60642E-09 -4.49384E-09 -4.37824E-09 -4.25987E-09
  -4.13898E-09 -4.01586E-09 -3.89074E-09 -3.76391E-09 -3.63561E-09 -3.50610E-09 -3.37566E-09 -3.24453E-09 -3.11299E-09 -2.98129E-09
  -2.84969E-09 -2.71845E-09 -2.58785E-09 -2.45812E-09 -2.32955E-09 -2.20238E-09 -2.07689E-09 -1.95331E-09 -1.83194E-09 -1.71301E-09
  -1.59680E-09 -1.48357E-09 -1.37357E-09 -1.26707E-09 -1.16432E-09 -1.06559E-09 -9.71144E-10 -8.81240E-10 -7.96131E-10 -7.16093E-10
  -6.41179E-10 -5.71270E-10 -5.06230E-10 -4.45898E-10 -3.90133E-10 -3.38797E-10 -2.91735E-10 -2.48813E-10 -2.09871E-10 -1.74774E-10
  -1.43385E-10 -1.15539E-10 -9.11145E-11 -6.99405E-11 -5.18777E-11 -3.68034E-11 -2.45467E-11 -1.49770E-11 -7.93101E-12 -3.29415E-12
  -8.87924E-13 -6.04930E-13 -2.25084E-12 -5.71025E-12 -1.08522E-11 -1.75145E-11 -2.55344E-11 -3.47880E-11 -4.51373E-11 -5.64353E-11
  -6.85188E-11 -8.12418E-11 -9.44645E-11 -1.08072E-10 -1.21871E-10 -1.35761E-10 -1.49555E-10 -1.63132E-10 -1.76336E-10 -1.89043E-10
  -2.01099E-10 -2.12318E-10 -2.22626E-10 -2.31817E-10 -2.39770E-10 -2.46362E-10 -2.51423E-10 -2.54781E-10 -2.56361E-10 -2.55945E-10
  -2.53442E-10 -2.48721E-10 -2.41723E-10 -2.32551E-10 -2.21275E-10 -2.07964E-10 -1.92691E-10 -1.75524E-10 -1.56535E-10 -1.35793E-10
  -1.13367E-10 -8.93331E-11 -6.37574E-11 -3.67105E-11 -8.26337E-12  2.15134E-11  5.25493E-11  8.47751E-11  1.18119E-10  1.52509E-10
   1.87879E-10  2.24156E-10  2.61267E-10  2.99148E-10  3.37723E-10  3.76924E-10  4.16682E-10  4.56923E-10  4.97579E-10  5.38578E-10
   5.79852E-10  6.21328E-10  6.62937E-10  7.04610E-10  7.46271E-10  7.87855E-10  8.29293E-10  8.70508E-10  9.11435E-10  9.51998E-10
   9.92136E-10  1.03177E-09  1.07083E-09  1.10925E-09  1.14696E-09  1.18389E-09  1.21996E-09  1.25511E-09  1.28927E-09  1.32236E-09
   1.35431E-09  1.38506E-09  1.41454E-09
 GABA     Conc. = 7.62E-10
   3.77334E-09  3.73257E-09  3.69186E-09  3.65122E-09  3.61068E-09  3.57026E-09  3.52998E-09  3.48985E-09  3.44990E-09  3.41017E-09
   3.37069E-09  3.33150E-09  3.29267E-09  3.25422E-09  3.21625E-09  3.17883E-09  3.14201E-09  3.10592E-09  3.07076E-09  3.03665E-09
   3.00390E-09  2.97290E-09  2.94414E-09  2.91843E-09  2.89699E-09  2.88170E-09  2.87607E-09  2.88701E-09  2.93157E-09  3.05717E-09
   3.18894E-09  3.29556E-09  3.50326E-09  3.74189E-09  3.90337E-09  4.03298E-09  4.11705E-09  4.11994E-09  4.02859E-09  3.85630E-09
   3.63854E-09  3.41498E-09  3.11797E-09  2.80201E-09  2.61144E-09  2.44209E-09  2.25111E-09  2.12941E-09  2.05171E-09  1.99369E-09
   1.94677E-09  1.90710E-09  1.87276E-09  1.84298E-09  1.81747E-09  1.79638E-09  1.78050E-09  1.77131E-09  1.77151E-09  1.78631E-09
   1.82701E-09  1.92465E-09  2.09853E-09  2.25020E-09  2.41053E-09  2.64623E-09  2.83552E-09  2.93497E-09  2.97671E-09  2.94705E-09
   2.83351E-09  2.64321E-09  2.40575E-09  2.16985E-09  1.94910E-09  1.68554E-09  1.49139E-09  1.41647E-09  1.32513E-09  1.25417E-09
   1.26660E-09  1.28408E-09  1.31058E-09  1.41875E-09  1.53230E-09  1.61957E-09  1.73936E-09  1.85853E-09  1.94234E-09  1.99124E-09
   1.99812E-09  1.98109E-09  1.93949E-09  1.82473E-09  1.69401E-09  1.61060E-09  1.48731E-09  1.34958E-09  1.26796E-09  1.19649E-09
   1.12717E-09  1.07840E-09  1.04330E-09  1.01714E-09  9.97232E-10  9.81904E-10  9.70084E-10  9.61027E-10  9.54174E-10  9.49066E-10
   9.45292E-10  9.42497E-10  9.40465E-10  9.38994E-10  9.37908E-10  9.37031E-10  9.36178E-10  9.35170E-10  9.33858E-10  9.32111E-10
   9.29794E-10  9.26789E-10  9.22960E-10  9.18185E-10  9.12339E-10  9.05309E-10  8.96970E-10  8.87217E-10  8.75935E-10  8.63010E-10
   8.48330E-10  8.31788E-10  8.13273E-10  7.92675E-10  7.69891E-10  7.44810E-10  7.17327E-10  6.87329E-10  6.54716E-10  6.19383E-10
   5.81223E-10  5.40132E-10  4.96009E-10  4.48747E-10  3.98239E-10  3.44392E-10  2.87102E-10  2.26274E-10  1.61805E-10  9.36044E-11
   2.15694E-11 -5.43833E-11 -1.34336E-10 -2.18377E-10 -3.06573E-10 -3.98990E-10 -4.95621E-10 -5.96234E-10 -7.00451E-10 -8.07839E-10
  -9.17857E-10 -1.02978E-09 -1.14249E-09 -1.25408E-09 -1.36053E-09 -1.45094E-09 -1.48055E-09 -1.28848E-09 -1.02971E-09 -8.31956E-10
  -7.41948E-10 -7.59466E-10 -8.66328E-10 -1.04701E-09 -1.30298E-09 -1.65386E-09 -2.11146E-09 -2.64027E-09 -3.11310E-09 -3.35211E-09
  -3.52451E-09 -3.67638E-09 -3.81846E-09 -3.95438E-09 -4.08559E-09 -4.21274E-09 -4.33605E-09 -4.45557E-09 -4.57126E-09 -4.68297E-09
  -4.79057E-09 -4.89384E-09 -4.99261E-09 -5.08664E-09 -5.17572E-09 -5.25961E-09 -5.33809E-09 -5.41091E-09 -5.47785E-09 -5.53865E-09
  -5.59308E-09 -5.64089E-09 -5.68184E-09 -5.71568E-09 -5.74218E-09 -5.76107E-09 -5.77212E-09 -5.77509E-09 -5.76984E-09 -5.75660E-09
  -5.73561E-09 -5.70715E-09 -5.67147E-09 -5.62884E-09 -5.57952E-09 -5.52377E-09 -5.46186E-09 -5.39403E-09 -5.32057E-09 -5.24172E-09
  -5.15774E-09 -5.06891E-09 -4.97548E-09 -4.87771E-09 -4.77586E-09 -4.67019E-09 -4.56098E-09 -4.44847E-09 -4.33293E-09 -4.21462E-09
