 LCModel (Version 6.3-1R) Copyright: S.W. Provencher.          Ref.: Magn. Reson. Med. 30:672-679 (1993).                
 onepulse 29x22_ftSpec_smooth_lcm
 26 lines in following concentration table = NCONC+1
    Conc.  %SD   /Cr    Metabolite                                         
 3.63E-10 189%   0.000 Ala                                                 
    0.000 999%   0.000 Asp                                                 
    0.000 999%   0.000 Cr                                                  
 1.38E-09  64%   0.000 GABA                                                
 1.74E-11 999%   0.000 Glc                                                 
    0.000 999%   0.000 Gln                                                 
    0.000 999%   0.000 Glu                                                 
    0.000 999%   0.000 Glyc                                                
 7.21E-12 999%   0.000 GPC                                                 
    0.000 999%   0.000 GSH                                                 
 1.33E-09  69%   0.000 Ins                                                 
 8.62E-11 761%   0.000 Lac                                                 
 2.73E-10 128%   0.000 NAAG                                                
    0.000 999%   0.000 NAA                                                 
    0.000 999%   0.000 PCh                                                 
    0.000 999%   0.000 PCr                                                 
    0.000 999%   0.000 PE                                                  
 1.31E-10 275%   0.000 Scyllo                                              
 2.03E-09  68%   0.000 Ser                                                 
    0.000 999%   0.000 Tau                                                 
 7.21E-12 999%   0.000 GPC+PCh                                             
 2.73E-10 128%   0.000 NAA+NAAG                                            
 1.33E-09  69%   0.000 Ins+Glyc                                            
    0.000 999%   0.000 Cr+PCr                                              
    0.000 999%   0.000 Glu+Gln                                             
   6 lines in following misc. output table
  FWHM = 0.089 ppm    S/N =   1                                            
  Data shift = 0.235 ppm                                                   
  Ph: -44 deg      -7.2 deg/ppm                                            
  alphaB,S = 5.4E+01,   2.9E+01                                            
    8 spline knots.   Ns = 5(1)                                            
  ( 8) 4 infls.   ( 7) 1 extrs.                                            
  363 points on ppm-axis = NY
      4.250000     4.238821     4.227641     4.216462     4.205282     4.194103     4.182923     4.171744     4.160564     4.149385
      4.138206     4.127026     4.115847     4.104667     4.093488     4.082308     4.071129     4.059949     4.048770     4.037591
      4.026411     4.015232     4.004052     3.992873     3.981693     3.970514     3.959334     3.948155     3.936975     3.925796
      3.914617     3.903437     3.892258     3.881078     3.869899     3.858719     3.847540     3.836360     3.825181     3.814002
      3.802822     3.791643     3.780463     3.769284     3.758104     3.746925     3.735745     3.724566     3.713387     3.702207
      3.691028     3.679848     3.668669     3.657489     3.646310     3.635130     3.623951     3.612772     3.601592     3.590413
      3.579233     3.568054     3.556874     3.545695     3.534515     3.523336     3.512156     3.500977     3.489798     3.478618
      3.467439     3.456259     3.445080     3.433900     3.422721     3.411541     3.400362     3.389183     3.378003     3.366824
      3.355644     3.344465     3.333285     3.322106     3.310926     3.299747     3.288568     3.277388     3.266209     3.255029
      3.243850     3.232670     3.221491     3.210311     3.199132     3.187953     3.176773     3.165594     3.154414     3.143235
      3.132055     3.120876     3.109696     3.098517     3.087337     3.076158     3.064979     3.053799     3.042620     3.031440
      3.020261     3.009081     2.997902     2.986722     2.975543     2.964364     2.953184     2.942005     2.930825     2.919646
      2.908466     2.897287     2.886107     2.874928     2.863749     2.852569     2.841390     2.830210     2.819031     2.807851
      2.796672     2.785492     2.774313     2.763134     2.751954     2.740775     2.729595     2.718416     2.707236     2.696057
      2.684877     2.673698     2.662519     2.651339     2.640160     2.628980     2.617801     2.606621     2.595442     2.584262
      2.573083     2.561903     2.550724     2.539545     2.528365     2.517186     2.506006     2.494827     2.483647     2.472468
      2.461288     2.450109     2.438930     2.427750     2.416571     2.405391     2.394212     2.383032     2.371853     2.360673
      2.349494     2.338315     2.327135     2.315956     2.304776     2.293597     2.282417     2.271238     2.260058     2.248879
      2.237700     2.226520     2.215341     2.204161     2.192982     2.181802     2.170623     2.159443     2.148264     2.137084
      2.125905     2.114726     2.103546     2.092367     2.081187     2.070008     2.058828     2.047649     2.036469     2.025290
      2.014111     2.002931     1.991752     1.980572     1.969393     1.958213     1.947034     1.935854     1.924675     1.913496
      1.902316     1.891137     1.879957     1.868778     1.857598     1.846419     1.835239     1.824060     1.812881     1.801701
      1.790522     1.779342     1.768163     1.756983     1.745804     1.734624     1.723445     1.712265     1.701086     1.689907
      1.678727     1.667548     1.656368     1.645189     1.634009     1.622830     1.611650     1.600471     1.589292     1.578112
      1.566933     1.555753     1.544574     1.533394     1.522215     1.511035     1.499856     1.488677     1.477497     1.466318
      1.455138     1.443959     1.432779     1.421600     1.410420     1.399241     1.388062     1.376882     1.365703     1.354523
      1.343344     1.332164     1.320985     1.309805     1.298626     1.287446     1.276267     1.265088     1.253908     1.242729
      1.231549     1.220370     1.209190     1.198011     1.186831     1.175652     1.164473     1.153293     1.142114     1.130934
      1.119755     1.108575     1.097396     1.086216     1.075037     1.063858     1.052678     1.041499     1.030319     1.019140
      1.007960     0.996781     0.985601     0.974422     0.963243     0.952063     0.940884     0.929704     0.918525     0.907345
      0.896166     0.884986     0.873807     0.862628     0.851448     0.840269     0.829089     0.817910     0.806730     0.795551
      0.784371     0.773192     0.762012     0.750833     0.739654     0.728474     0.717295     0.706115     0.694936     0.683756
      0.672577     0.661397     0.650218     0.639039     0.627859     0.616680     0.605500     0.594321     0.583141     0.571962
      0.560782     0.549603     0.538424     0.527244     0.516065     0.504885     0.493706     0.482526     0.471347     0.460167
      0.448988     0.437809     0.426629     0.415450     0.404270     0.393091     0.381911     0.370732     0.359552     0.348373
      0.337193     0.326014     0.314835     0.303655     0.292476     0.281296     0.270117     0.258937     0.247758     0.236578
      0.225399     0.214220     0.203040
 NY phased data points follow
   1.06999E-08  1.02923E-08  1.06145E-08  9.82269E-09  1.01129E-08  9.39643E-09  9.69093E-09  9.25843E-09  9.70509E-09  1.01319E-08
   1.09380E-08  1.17471E-08  1.36758E-08  1.37703E-08  1.41813E-08  1.39156E-08  1.41510E-08  1.37404E-08  1.35505E-08  1.31307E-08
   1.31960E-08  1.27205E-08  1.29468E-08  1.24984E-08  1.26837E-08  1.27329E-08  1.30795E-08  1.31818E-08  1.33916E-08  1.30719E-08
   1.26836E-08  1.30221E-08  1.27021E-08  1.24634E-08  1.25350E-08  1.21661E-08  1.23441E-08  1.23494E-08  1.23767E-08  1.23849E-08
   1.19812E-08  1.21095E-08  1.22691E-08  1.26806E-08  1.31885E-08  1.37113E-08  1.36941E-08  1.35439E-08  1.37055E-08  1.28721E-08
   1.25471E-08  1.24337E-08  1.19961E-08  1.19974E-08  1.13500E-08  1.14852E-08  1.10386E-08  1.06948E-08  1.01254E-08  9.28288E-09
   9.45721E-09  8.91214E-09  9.19817E-09  9.05228E-09  8.98659E-09  8.38007E-09  7.85698E-09  8.15908E-09  7.39408E-09  7.64225E-09
   7.51706E-09  7.32356E-09  7.28739E-09  7.96643E-09  8.22636E-09  9.34894E-09  9.49257E-09  1.05648E-08  1.01465E-08  1.01761E-08
   9.61918E-09  9.51608E-09  8.36391E-09  8.57468E-09  7.87137E-09  7.70458E-09  6.65292E-09  7.04156E-09  5.62359E-09  6.43283E-09
   7.04504E-09  9.09233E-09  9.84105E-09  1.09040E-08  1.07981E-08  1.23392E-08  1.19326E-08  1.19656E-08  1.21028E-08  1.18570E-08
   1.23035E-08  1.25944E-08  1.23628E-08  1.25228E-08  1.22313E-08  1.18494E-08  1.18015E-08  1.13991E-08  1.11493E-08  1.09273E-08
   1.09820E-08  1.05063E-08  1.05898E-08  1.00000E-08  1.06664E-08  1.05009E-08  1.08146E-08  1.02527E-08  1.09501E-08  1.03711E-08
   1.04574E-08  9.79756E-09  9.40630E-09  9.25073E-09  9.05998E-09  8.40180E-09  9.55543E-09  8.29314E-09  8.96661E-09  8.22801E-09
   9.01059E-09  7.73468E-09  8.61106E-09  7.73239E-09  8.14842E-09  7.37170E-09  7.45774E-09  6.38025E-09  6.64968E-09  6.24506E-09
   6.62811E-09  5.88559E-09  6.56525E-09  5.97173E-09  6.47354E-09  5.87662E-09  5.66198E-09  5.17274E-09  5.01742E-09  4.90470E-09
   4.49773E-09  4.41237E-09  5.13503E-09  4.66613E-09  4.51390E-09  4.34508E-09  3.88002E-09  4.66034E-09  4.21590E-09  4.98681E-09
   4.56644E-09  4.44147E-09  4.90784E-09  5.03954E-09  5.18189E-09  5.12646E-09  5.40621E-09  5.40725E-09  5.60967E-09  5.54564E-09
   5.33795E-09  5.60923E-09  5.62143E-09  5.96808E-09  6.12550E-09  6.13932E-09  6.15870E-09  6.39466E-09  6.72543E-09  7.40473E-09
   7.61151E-09  9.50605E-09  1.10024E-08  1.33252E-08  1.56760E-08  1.65917E-08  1.80334E-08  1.82250E-08  1.93291E-08  1.94655E-08
   2.01795E-08  2.05630E-08  2.05532E-08  2.07719E-08  2.17154E-08  2.13719E-08  2.21203E-08  2.26656E-08  2.35107E-08  2.41296E-08
   2.51984E-08  2.60328E-08  2.65619E-08  2.75018E-08  2.87706E-08  2.97815E-08  2.95708E-08  3.06998E-08  3.01566E-08  2.98351E-08
   2.85987E-08  2.69652E-08  2.47027E-08  2.20152E-08  1.82312E-08  1.56848E-08  1.11526E-08  7.93015E-09  3.63350E-09  1.19579E-10
  -4.73044E-09 -7.02113E-09 -1.02180E-08 -1.20651E-08 -1.45271E-08 -1.50992E-08 -1.52228E-08 -1.44130E-08 -1.35779E-08 -1.22883E-08
  -1.03168E-08 -8.46746E-09 -7.78504E-09 -6.03494E-09 -5.35443E-09 -4.01349E-09 -4.20690E-09 -2.89271E-09 -3.37007E-09 -2.42470E-09
  -2.49471E-09 -2.38957E-09 -2.64619E-09 -1.64964E-09 -1.74325E-09 -1.33989E-09 -2.08639E-09 -1.00642E-09 -1.86685E-09 -1.25558E-09
  -1.89003E-09 -1.57338E-09 -2.17552E-09 -1.52446E-09 -1.99317E-09 -1.38734E-09 -1.36088E-09 -5.20713E-10 -1.20056E-09 -8.53792E-10
  -1.37450E-09 -1.05072E-09 -1.62636E-09 -1.05523E-09 -1.91793E-09 -1.51005E-09 -1.36018E-09 -1.31736E-09 -1.58641E-09 -5.81140E-10
  -7.94859E-10 -3.09759E-10 -7.42746E-10 -5.87575E-10 -7.68336E-10 -8.56293E-10 -1.29599E-09 -9.02987E-10 -1.49718E-09 -1.26780E-09
  -1.58940E-09 -9.87582E-10 -1.68198E-09 -1.56665E-09 -1.84768E-09 -1.06803E-09 -1.44382E-09 -1.52825E-09 -1.70504E-09 -1.08815E-09
  -1.34699E-09 -8.86157E-10 -9.59396E-10 -1.01958E-09 -1.26123E-09 -1.06190E-09 -8.69583E-10 -5.60653E-10 -4.67626E-10 -1.45012E-09
  -8.63389E-10 -9.86812E-10 -1.08125E-09 -1.34511E-09 -1.06770E-09 -1.07390E-09 -5.96376E-10 -1.20212E-09 -5.35507E-10 -1.24948E-09
  -7.96245E-10 -1.03961E-09 -9.89650E-10 -1.19538E-09 -1.33757E-09 -9.22481E-10 -1.20335E-09 -8.94754E-10 -1.62083E-09 -1.42828E-09
  -1.15867E-09 -1.50749E-09 -1.72082E-09 -1.57327E-09 -1.78896E-09 -1.76313E-09 -1.73123E-09 -1.59087E-09 -1.88264E-09 -2.06254E-09
  -1.84918E-09 -1.80981E-09 -1.38151E-09 -2.21450E-09 -2.07118E-09 -1.81387E-09 -1.94805E-09 -2.51429E-09 -1.94822E-09 -2.46919E-09
  -2.51730E-09 -2.24705E-09 -2.26954E-09 -2.27674E-09 -2.72831E-09 -2.31453E-09 -2.66103E-09 -2.39355E-09 -3.17415E-09 -2.34585E-09
  -2.96852E-09 -2.11999E-09 -2.88793E-09 -2.74816E-09 -2.94872E-09 -2.66316E-09 -2.72808E-09 -2.80081E-09 -3.12943E-09 -3.01361E-09
  -3.40083E-09 -3.33316E-09 -2.95309E-09
 NY points of the fit to the data follow
   1.13778E-08  1.17104E-08  1.16631E-08  1.15712E-08  1.14858E-08  1.13302E-08  1.09124E-08  1.01912E-08  9.46362E-09  9.08214E-09
   9.15279E-09  9.49236E-09  1.00353E-08  1.08329E-08  1.17479E-08  1.25711E-08  1.31892E-08  1.37343E-08  1.40380E-08  1.38121E-08
   1.33340E-08  1.29355E-08  1.26961E-08  1.25031E-08  1.23453E-08  1.23211E-08  1.23928E-08  1.24344E-08  1.22803E-08  1.19022E-08
   1.17153E-08  1.15756E-08  1.13608E-08  1.12943E-08  1.14181E-08  1.15704E-08  1.17690E-08  1.20724E-08  1.24438E-08  1.28041E-08
   1.30839E-08  1.33159E-08  1.35474E-08  1.35341E-08  1.33485E-08  1.32649E-08  1.31107E-08  1.28295E-08  1.25666E-08  1.23341E-08
   1.21186E-08  1.19180E-08  1.17240E-08  1.15352E-08  1.13384E-08  1.11555E-08  1.09710E-08  1.07793E-08  1.05651E-08  1.03162E-08
   1.00006E-08  9.63688E-09  9.36236E-09  9.19142E-09  8.97687E-09  8.88968E-09  8.98882E-09  9.17578E-09  9.44434E-09  9.81430E-09
   1.02321E-08  1.06236E-08  1.09243E-08  1.11027E-08  1.12296E-08  1.10880E-08  1.07430E-08  1.06264E-08  1.06660E-08  1.06351E-08
   1.06312E-08  1.06818E-08  1.06994E-08  1.07885E-08  1.10281E-08  1.12110E-08  1.12023E-08  1.10051E-08  1.09041E-08  1.09262E-08
   1.09982E-08  1.10880E-08  1.12525E-08  1.14093E-08  1.14235E-08  1.14355E-08  1.14677E-08  1.13466E-08  1.11455E-08  1.09159E-08
   1.06826E-08  1.05131E-08  1.03442E-08  1.02077E-08  1.01604E-08  1.02042E-08  1.03183E-08  1.05018E-08  1.07252E-08  1.09197E-08
   1.10508E-08  1.11023E-08  1.11762E-08  1.12474E-08  1.11811E-08  1.10741E-08  1.09865E-08  1.08993E-08  1.08001E-08  1.07118E-08
   1.06143E-08  1.04799E-08  1.03505E-08  1.02316E-08  1.01202E-08  1.00146E-08  9.91314E-09  9.81503E-09  9.71945E-09  9.62582E-09
   9.53371E-09  9.44268E-09  9.35246E-09  9.26273E-09  9.17322E-09  9.08364E-09  8.99390E-09  8.90364E-09  8.81268E-09  8.72075E-09
   8.62768E-09  8.53318E-09  8.43701E-09  8.33882E-09  8.23835E-09  8.13520E-09  8.02897E-09  7.91920E-09  7.80536E-09  7.68680E-09
   7.56279E-09  7.43245E-09  7.29469E-09  7.14820E-09  6.99137E-09  6.82214E-09  6.63791E-09  6.43526E-09  6.20966E-09  5.95488E-09
   5.66209E-09  5.31841E-09  4.90371E-09  4.38469E-09  3.70022E-09  2.72126E-09  1.14205E-09 -3.84914E-10 -9.57528E-10 -5.94377E-10
   4.08394E-10  1.81321E-09  3.54576E-09  5.65652E-09  8.17392E-09  1.09115E-08  1.33290E-08  1.45738E-08  1.39886E-08  1.27031E-08
   1.18085E-08  1.11557E-08  1.06506E-08  1.02427E-08  9.90239E-09  9.61117E-09  9.35691E-09  9.13129E-09  8.92819E-09  8.74327E-09
   8.57325E-09  8.41549E-09  8.26805E-09  8.12930E-09  7.99804E-09  7.87317E-09  7.75380E-09  7.63931E-09  7.52905E-09  7.42249E-09
   7.31923E-09  7.21889E-09  7.12118E-09  7.02579E-09  6.93246E-09  6.84106E-09  6.75133E-09  6.66313E-09  6.57629E-09  6.49077E-09
   6.40633E-09  6.32295E-09  6.24053E-09  6.15896E-09  6.07814E-09  5.99808E-09  5.91866E-09  5.83981E-09  5.76155E-09  5.68377E-09
   5.60645E-09  5.52952E-09  5.45299E-09  5.37679E-09  5.30092E-09  5.22531E-09  5.14997E-09  5.07486E-09  4.99995E-09  4.92524E-09
   4.85069E-09  4.77628E-09  4.70201E-09  4.62786E-09  4.55379E-09  4.47982E-09  4.40591E-09  4.33206E-09  4.25826E-09  4.18449E-09
   4.11076E-09  4.03702E-09  3.96329E-09  3.88956E-09  3.81583E-09  3.74207E-09  3.66828E-09  3.59445E-09  3.52058E-09  3.44667E-09
   3.37269E-09  3.29867E-09  3.22455E-09  3.15040E-09  3.07616E-09  3.00182E-09  2.92741E-09  2.85290E-09  2.77831E-09  2.70362E-09
   2.62883E-09  2.55392E-09  2.47891E-09  2.40377E-09  2.32853E-09  2.25318E-09  2.17767E-09  2.10208E-09  2.02634E-09  1.95047E-09
   1.87447E-09  1.79834E-09  1.72206E-09  1.64566E-09  1.56910E-09  1.49241E-09  1.41555E-09  1.33856E-09  1.26143E-09  1.18414E-09
   1.10669E-09  1.02909E-09  9.51322E-10  8.73410E-10  7.95334E-10  7.17095E-10  6.38680E-10  5.60134E-10  4.81409E-10  4.02508E-10
   3.23457E-10  2.44230E-10  1.64830E-10  8.52606E-11  5.51498E-12 -7.43937E-11 -1.54487E-10 -2.34750E-10 -3.15191E-10 -3.95809E-10
  -4.76602E-10 -5.57578E-10 -6.38727E-10 -7.20059E-10 -8.01576E-10 -8.83274E-10 -9.65150E-10 -1.04721E-09 -1.12945E-09 -1.21188E-09
  -1.29450E-09 -1.37730E-09 -1.46028E-09 -1.54346E-09 -1.62682E-09 -1.71037E-09 -1.79410E-09 -1.87804E-09 -1.96215E-09 -2.04646E-09
  -2.13095E-09 -2.21565E-09 -2.30053E-09 -2.38560E-09 -2.47087E-09 -2.55634E-09 -2.64198E-09 -2.72783E-09 -2.81386E-09 -2.90010E-09
  -2.98653E-09 -3.07315E-09 -3.15997E-09 -3.24699E-09 -3.33420E-09 -3.42161E-09 -3.50921E-09 -3.59702E-09 -3.68501E-09 -3.77322E-09
  -3.86161E-09 -3.95021E-09 -4.03900E-09 -4.12799E-09 -4.21720E-09 -4.30658E-09 -4.39617E-09 -4.48596E-09 -4.57595E-09 -4.66614E-09
  -4.75653E-09 -4.84712E-09 -4.93791E-09 -5.02891E-09 -5.12011E-09 -5.21151E-09 -5.30310E-09 -5.39490E-09 -5.48691E-09 -5.57911E-09
  -5.67152E-09 -5.76413E-09 -5.85693E-09
 NY background values follow
     1.144E-08    1.144E-08    1.143E-08    1.142E-08    1.142E-08    1.141E-08    1.140E-08    1.139E-08    1.139E-08    1.138E-08
     1.137E-08    1.136E-08    1.135E-08    1.135E-08    1.134E-08    1.133E-08    1.132E-08    1.131E-08    1.130E-08    1.129E-08
     1.128E-08    1.127E-08    1.126E-08    1.124E-08    1.123E-08    1.122E-08    1.121E-08    1.120E-08    1.118E-08    1.117E-08
     1.116E-08    1.115E-08    1.113E-08    1.112E-08    1.110E-08    1.109E-08    1.108E-08    1.106E-08    1.105E-08    1.103E-08
     1.102E-08    1.100E-08    1.098E-08    1.097E-08    1.095E-08    1.094E-08    1.092E-08    1.090E-08    1.088E-08    1.087E-08
     1.085E-08    1.083E-08    1.081E-08    1.080E-08    1.078E-08    1.076E-08    1.074E-08    1.072E-08    1.070E-08    1.068E-08
     1.066E-08    1.064E-08    1.062E-08    1.060E-08    1.058E-08    1.056E-08    1.053E-08    1.051E-08    1.049E-08    1.047E-08
     1.044E-08    1.042E-08    1.040E-08    1.038E-08    1.035E-08    1.033E-08    1.030E-08    1.028E-08    1.026E-08    1.023E-08
     1.021E-08    1.018E-08    1.016E-08    1.013E-08    1.010E-08    1.008E-08    1.005E-08    1.003E-08    9.999E-09    9.971E-09
     9.944E-09    9.917E-09    9.889E-09    9.861E-09    9.833E-09    9.804E-09    9.775E-09    9.746E-09    9.717E-09    9.688E-09
     9.658E-09    9.628E-09    9.598E-09    9.568E-09    9.537E-09    9.506E-09    9.475E-09    9.444E-09    9.412E-09    9.380E-09
     9.348E-09    9.316E-09    9.283E-09    9.251E-09    9.218E-09    9.184E-09    9.151E-09    9.117E-09    9.083E-09    9.049E-09
     9.015E-09    8.980E-09    8.945E-09    8.910E-09    8.874E-09    8.839E-09    8.803E-09    8.767E-09    8.731E-09    8.694E-09
     8.657E-09    8.620E-09    8.583E-09    8.545E-09    8.508E-09    8.470E-09    8.431E-09    8.393E-09    8.354E-09    8.315E-09
     8.276E-09    8.237E-09    8.197E-09    8.157E-09    8.117E-09    8.077E-09    8.036E-09    7.995E-09    7.954E-09    7.913E-09
     7.871E-09    7.830E-09    7.788E-09    7.745E-09    7.703E-09    7.660E-09    7.617E-09    7.574E-09    7.531E-09    7.487E-09
     7.443E-09    7.399E-09    7.355E-09    7.310E-09    7.265E-09    7.220E-09    7.175E-09    7.129E-09    7.084E-09    7.038E-09
     6.992E-09    6.945E-09    6.898E-09    6.851E-09    6.804E-09    6.757E-09    6.709E-09    6.661E-09    6.613E-09    6.565E-09
     6.516E-09    6.467E-09    6.418E-09    6.369E-09    6.320E-09    6.270E-09    6.220E-09    6.170E-09    6.119E-09    6.069E-09
     6.018E-09    5.967E-09    5.915E-09    5.864E-09    5.812E-09    5.760E-09    5.707E-09    5.655E-09    5.602E-09    5.549E-09
     5.496E-09    5.442E-09    5.389E-09    5.335E-09    5.280E-09    5.226E-09    5.171E-09    5.116E-09    5.061E-09    5.006E-09
     4.950E-09    4.895E-09    4.839E-09    4.782E-09    4.726E-09    4.669E-09    4.612E-09    4.555E-09    4.498E-09    4.440E-09
     4.382E-09    4.324E-09    4.266E-09    4.207E-09    4.148E-09    4.089E-09    4.030E-09    3.970E-09    3.911E-09    3.851E-09
     3.790E-09    3.730E-09    3.669E-09    3.608E-09    3.547E-09    3.486E-09    3.424E-09    3.362E-09    3.300E-09    3.238E-09
     3.176E-09    3.113E-09    3.050E-09    2.987E-09    2.923E-09    2.860E-09    2.796E-09    2.732E-09    2.667E-09    2.603E-09
     2.538E-09    2.473E-09    2.408E-09    2.342E-09    2.276E-09    2.210E-09    2.144E-09    2.078E-09    2.011E-09    1.944E-09
     1.877E-09    1.810E-09    1.742E-09    1.674E-09    1.606E-09    1.538E-09    1.470E-09    1.401E-09    1.332E-09    1.263E-09
     1.194E-09    1.124E-09    1.054E-09    9.840E-10    9.137E-10    8.432E-10    7.725E-10    7.015E-10    6.303E-10    5.588E-10
     4.872E-10    4.153E-10    3.431E-10    2.708E-10    1.982E-10    1.254E-10    5.238E-11   -2.086E-11   -9.434E-11   -1.681E-10
    -2.420E-10   -3.161E-10   -3.905E-10   -4.652E-10   -5.400E-10   -6.151E-10   -6.904E-10   -7.659E-10   -8.416E-10   -9.176E-10
    -9.938E-10   -1.070E-09   -1.147E-09   -1.224E-09   -1.301E-09   -1.378E-09   -1.456E-09   -1.534E-09   -1.612E-09   -1.690E-09
    -1.768E-09   -1.847E-09   -1.926E-09   -2.005E-09   -2.084E-09   -2.164E-09   -2.244E-09   -2.324E-09   -2.404E-09   -2.484E-09
    -2.565E-09   -2.646E-09   -2.727E-09   -2.809E-09   -2.890E-09   -2.972E-09   -3.054E-09   -3.136E-09   -3.219E-09   -3.302E-09
    -3.384E-09   -3.468E-09   -3.551E-09   -3.635E-09   -3.718E-09   -3.803E-09   -3.887E-09   -3.971E-09   -4.056E-09   -4.141E-09
    -4.226E-09   -4.312E-09   -4.397E-09   -4.483E-09   -4.569E-09   -4.655E-09   -4.742E-09   -4.829E-09   -4.916E-09   -5.003E-09
    -5.090E-09   -5.178E-09   -5.266E-09   -5.354E-09   -5.442E-09   -5.531E-09   -5.619E-09   -5.708E-09   -5.797E-09   -5.887E-09
    -5.976E-09   -6.066E-09   -6.156E-09
 Ala      Conc. = 3.63E-10
   1.11855E-08  1.12070E-08  1.12324E-08  1.12615E-08  1.12940E-08  1.13296E-08  1.13705E-08  1.13978E-08  1.14063E-08  1.14322E-08
   1.14490E-08  1.14311E-08  1.14210E-08  1.14148E-08  1.13959E-08  1.13749E-08  1.13548E-08  1.13356E-08  1.13172E-08  1.12996E-08
   1.12824E-08  1.12657E-08  1.12492E-08  1.12330E-08  1.12168E-08  1.12008E-08  1.11848E-08  1.11688E-08  1.11528E-08  1.11367E-08
   1.11205E-08  1.11042E-08  1.10877E-08  1.10712E-08  1.10544E-08  1.10375E-08  1.10205E-08  1.10032E-08  1.09857E-08  1.09681E-08
   1.09502E-08  1.09321E-08  1.09137E-08  1.08952E-08  1.08764E-08  1.08573E-08  1.08380E-08  1.08185E-08  1.07986E-08  1.07786E-08
   1.07582E-08  1.07376E-08  1.07166E-08  1.06954E-08  1.06740E-08  1.06522E-08  1.06301E-08  1.06077E-08  1.05849E-08  1.05619E-08
   1.05385E-08  1.05147E-08  1.04906E-08  1.04662E-08  1.04414E-08  1.04162E-08  1.03906E-08  1.03646E-08  1.03382E-08  1.03113E-08
   1.02840E-08  1.02561E-08  1.02279E-08  1.01990E-08  1.01697E-08  1.01397E-08  1.01091E-08  1.00779E-08  1.00459E-08  1.00132E-08
   9.97966E-09  9.94521E-09  9.90978E-09  9.87325E-09  9.83553E-09  9.79644E-09  9.75581E-09  9.71344E-09  9.66904E-09  9.62228E-09
   9.57269E-09  9.51976E-09  9.46265E-09  9.40041E-09  9.33147E-09  9.25368E-09  9.16366E-09  9.05574E-09  8.91967E-09  8.73835E-09
   8.59124E-09  8.52421E-09  8.45677E-09  8.42300E-09  8.47839E-09  8.62698E-09  8.85301E-09  9.13284E-09  9.43267E-09  9.70501E-09
   9.89451E-09  9.97620E-09  1.00544E-08  1.01094E-08  1.00123E-08  9.86776E-09  9.74715E-09  9.64546E-09  9.55699E-09  9.47805E-09
   9.40602E-09  9.33932E-09  9.27667E-09  9.21725E-09  9.16038E-09  9.10557E-09  9.05239E-09  9.00064E-09  8.94999E-09  8.90025E-09
   8.85129E-09  8.80292E-09  8.75508E-09  8.70765E-09  8.66053E-09  8.61362E-09  8.56697E-09  8.52040E-09  8.47392E-09  8.42743E-09
   8.38094E-09  8.33440E-09  8.28776E-09  8.24095E-09  8.19398E-09  8.14679E-09  8.09935E-09  8.05160E-09  8.00350E-09  7.95501E-09
   7.90606E-09  7.85660E-09  7.80653E-09  7.75577E-09  7.70421E-09  7.65170E-09  7.59808E-09  7.54312E-09  7.48652E-09  7.42787E-09
   7.36658E-09  7.30183E-09  7.23229E-09  7.15578E-09  7.06832E-09  6.96140E-09  6.81492E-09  6.67410E-09  6.59524E-09  6.57628E-09
   6.59793E-09  6.64505E-09  6.71312E-09  6.80549E-09  6.92385E-09  7.05567E-09  7.16543E-09  7.19772E-09  7.11098E-09  6.98259E-09
   6.87918E-09  6.79104E-09  6.71213E-09  6.63928E-09  6.57055E-09  6.50476E-09  6.44116E-09  6.37923E-09  6.31850E-09  6.25874E-09
   6.19977E-09  6.14135E-09  6.08339E-09  6.02576E-09  5.96846E-09  5.91133E-09  5.85432E-09  5.79747E-09  5.74068E-09  5.68389E-09
   5.62712E-09  5.57032E-09  5.51349E-09  5.45661E-09  5.39961E-09  5.34257E-09  5.28542E-09  5.22815E-09  5.17073E-09  5.11325E-09
   5.05557E-09  4.99777E-09  4.93983E-09  4.88173E-09  4.82343E-09  4.76501E-09  4.70641E-09  4.64761E-09  4.58867E-09  4.52953E-09
   4.47022E-09  4.41071E-09  4.35102E-09  4.29113E-09  4.23107E-09  4.17079E-09  4.11032E-09  4.04966E-09  3.98880E-09  3.92775E-09
   3.86648E-09  3.80501E-09  3.74334E-09  3.68146E-09  3.61938E-09  3.55709E-09  3.49459E-09  3.43188E-09  3.36896E-09  3.30583E-09
   3.24250E-09  3.17893E-09  3.11517E-09  3.05118E-09  2.98700E-09  2.92259E-09  2.85797E-09  2.79313E-09  2.72808E-09  2.66282E-09
   2.59732E-09  2.53163E-09  2.46569E-09  2.39957E-09  2.33323E-09  2.26664E-09  2.19985E-09  2.13284E-09  2.06562E-09  1.99818E-09
   1.93052E-09  1.86263E-09  1.79453E-09  1.72619E-09  1.65765E-09  1.58889E-09  1.51989E-09  1.45070E-09  1.38127E-09  1.31161E-09
   1.24175E-09  1.17167E-09  1.10135E-09  1.03083E-09  9.60071E-10  8.89104E-10  8.17901E-10  7.46485E-10  6.74857E-10  6.03003E-10
   5.30911E-10  4.58609E-10  3.86077E-10  3.13334E-10  2.40365E-10  1.67172E-10  9.37431E-11  2.01241E-11 -5.37300E-11 -1.27816E-10
  -2.02107E-10 -2.76627E-10 -3.51373E-10 -4.26340E-10 -5.01532E-10 -5.76937E-10 -6.52576E-10 -7.28430E-10 -8.04509E-10 -8.80812E-10
  -9.57332E-10 -1.03408E-09 -1.11104E-09 -1.18823E-09 -1.26565E-09 -1.34328E-09 -1.42114E-09 -1.49921E-09 -1.57751E-09 -1.65604E-09
  -1.73478E-09 -1.81375E-09 -1.89294E-09 -1.97235E-09 -2.05198E-09 -2.13184E-09 -2.21191E-09 -2.29222E-09 -2.37274E-09 -2.45348E-09
  -2.53444E-09 -2.61563E-09 -2.69704E-09 -2.77867E-09 -2.86052E-09 -2.94260E-09 -3.02489E-09 -3.10741E-09 -3.19014E-09 -3.27311E-09
  -3.35628E-09 -3.43968E-09 -3.52331E-09 -3.60716E-09 -3.69123E-09 -3.77551E-09 -3.86002E-09 -3.94475E-09 -4.02969E-09 -4.11488E-09
  -4.20027E-09 -4.28589E-09 -4.37172E-09 -4.45777E-09 -4.54406E-09 -4.63055E-09 -4.71727E-09 -4.80421E-09 -4.89137E-09 -4.97875E-09
  -5.06635E-09 -5.15417E-09 -5.24221E-09 -5.33048E-09 -5.41896E-09 -5.50767E-09 -5.59658E-09 -5.68573E-09 -5.77510E-09 -5.86468E-09
  -5.95449E-09 -6.04451E-09 -6.13475E-09
 GABA     Conc. = 1.38E-09
   1.07238E-08  1.07034E-08  1.06820E-08  1.06595E-08  1.06360E-08  1.06114E-08  1.05856E-08  1.05583E-08  1.05297E-08  1.04995E-08
   1.04676E-08  1.04337E-08  1.03979E-08  1.03597E-08  1.03189E-08  1.02753E-08  1.02285E-08  1.01779E-08  1.01231E-08  1.00633E-08
   9.99758E-09  9.92476E-09  9.84330E-09  9.75109E-09  9.64538E-09  9.52212E-09  9.37522E-09  9.19546E-09  8.96990E-09  8.73081E-09
   8.59564E-09  8.45558E-09  8.29386E-09  8.32439E-09  8.51353E-09  8.76988E-09  9.14570E-09  9.63057E-09  1.01672E-08  1.06775E-08
   1.10976E-08  1.14529E-08  1.17947E-08  1.18723E-08  1.17647E-08  1.17549E-08  1.16756E-08  1.14619E-08  1.12649E-08  1.10901E-08
   1.09318E-08  1.07851E-08  1.06453E-08  1.05089E-08  1.03727E-08  1.02334E-08  1.00874E-08  9.93025E-09  9.75615E-09  9.55724E-09
   9.32166E-09  9.04263E-09  8.85043E-09  8.74148E-09  8.58682E-09  8.57731E-09  8.77353E-09  9.06065E-09  9.43653E-09  9.89579E-09
   1.03934E-08  1.08566E-08  1.12058E-08  1.14169E-08  1.16080E-08  1.16319E-08  1.13694E-08  1.11825E-08  1.10329E-08  1.07508E-08
   1.04791E-08  1.02587E-08  9.99604E-09  9.76296E-09  9.63733E-09  9.52601E-09  9.44841E-09  9.46916E-09  9.56741E-09  9.73251E-09
   9.92273E-09  1.01181E-08  1.03782E-08  1.06299E-08  1.07392E-08  1.08522E-08  1.09922E-08  1.09929E-08  1.09421E-08  1.09101E-08
   1.08428E-08  1.07551E-08  1.06668E-08  1.05820E-08  1.05012E-08  1.04243E-08  1.03507E-08  1.02801E-08  1.02122E-08  1.01465E-08
   1.00831E-08  1.00213E-08  9.96110E-09  9.90210E-09  9.84419E-09  9.78729E-09  9.73136E-09  9.67623E-09  9.62176E-09  9.56792E-09
   9.51451E-09  9.46156E-09  9.40895E-09  9.35667E-09  9.30465E-09  9.25280E-09  9.20107E-09  9.14949E-09  9.09795E-09  9.04640E-09
   8.99485E-09  8.94319E-09  8.89146E-09  8.83957E-09  8.78750E-09  8.73516E-09  8.68263E-09  8.62975E-09  8.57654E-09  8.52288E-09
   8.46879E-09  8.41419E-09  8.35903E-09  8.30320E-09  8.24668E-09  8.18934E-09  8.13110E-09  8.07185E-09  8.01145E-09  7.94976E-09
   7.88659E-09  7.82174E-09  7.75491E-09  7.68582E-09  7.61406E-09  7.53912E-09  7.46039E-09  7.37702E-09  7.28793E-09  7.19160E-09
   7.08587E-09  6.96765E-09  6.83208E-09  6.67114E-09  6.47018E-09  6.19842E-09  5.78278E-09  5.36443E-09  5.17706E-09  5.22150E-09
   5.42572E-09  5.73014E-09  6.11494E-09  6.59179E-09  7.16885E-09  7.80342E-09  8.36678E-09  8.65187E-09  8.49128E-09  8.13536E-09
   7.87623E-09  7.67720E-09  7.51473E-09  7.37623E-09  7.25429E-09  7.14433E-09  7.04335E-09  6.94931E-09  6.86064E-09  6.77628E-09
   6.69546E-09  6.61747E-09  6.54186E-09  6.46822E-09  6.39629E-09  6.32575E-09  6.25636E-09  6.18806E-09  6.12063E-09  6.05392E-09
   5.98787E-09  5.92236E-09  5.85735E-09  5.79273E-09  5.72844E-09  5.66448E-09  5.60076E-09  5.53724E-09  5.47388E-09  5.41071E-09
   5.34759E-09  5.28460E-09  5.22167E-09  5.15878E-09  5.09588E-09  5.03303E-09  4.97017E-09  4.90725E-09  4.84434E-09  4.78136E-09
   4.71834E-09  4.65523E-09  4.59206E-09  4.52879E-09  4.46545E-09  4.40199E-09  4.33844E-09  4.27477E-09  4.21098E-09  4.14708E-09
