 LCModel (Version 6.3-1R) Copyright: S.W. Provencher.          Ref.: Magn. Reson. Med. 30:672-679 (1993).                
 onepulse 30x17_ftSpec_smooth_lcm
 26 lines in following concentration table = NCONC+1
    Conc.  %SD   /Cr    Metabolite                                         
 5.39E-11 438%   0.000 Ala                                                 
 1.28E-09  44%   0.000 Asp                                                 
    0.000 999%   0.000 Cr                                                  
 3.89E-10 107%   0.000 GABA                                                
 2.95E-10 258%   0.000 Glc                                                 
 1.18E-09  44%   0.000 Gln                                                 
    0.000 999%   0.000 Glu                                                 
 6.33E-10  81%   0.000 Glyc                                                
    0.000 999%   0.000 GPC                                                 
 3.09E-10 106%   0.000 GSH                                                 
 1.05E-09  53%   0.000 Ins                                                 
    0.000 999%   0.000 Lac                                                 
 4.87E-10  42%   0.000 NAAG                                                
 1.35E-10 156%   0.000 NAA                                                 
    0.000 999%   0.000 PCh                                                 
    0.000 999%   0.000 PCr                                                 
 2.58E-09  18%   0.000 PE                                                  
 1.54E-10 107%   0.000 Scyllo                                              
 2.77E-10 303%   0.000 Ser                                                 
    0.000 999%   0.000 Tau                                                 
    0.000 999%   0.000 GPC+PCh                                             
 6.22E-10  35%   0.000 NAA+NAAG                                            
 1.69E-09  28%   0.000 Ins+Glyc                                            
    0.000 999%   0.000 Cr+PCr                                              
 1.18E-09  44%   0.000 Glu+Gln                                             
   6 lines in following misc. output table
  FWHM = 0.123 ppm    S/N =   3                                            
  Data shift = 0.436 ppm                                                   
  Ph:   4 deg     -28.2 deg/ppm                                            
  alphaB,S = 1.1E+00,   4.0E-01                                            
    8 spline knots.   Ns = 5(1)                                            
  11 inflections.    11 extrema                                            
  363 points on ppm-axis = NY
      4.250000     4.238821     4.227641     4.216462     4.205282     4.194103     4.182923     4.171744     4.160564     4.149385
      4.138206     4.127026     4.115847     4.104667     4.093488     4.082308     4.071129     4.059949     4.048770     4.037591
      4.026411     4.015232     4.004052     3.992873     3.981693     3.970514     3.959334     3.948155     3.936975     3.925796
      3.914617     3.903437     3.892258     3.881078     3.869899     3.858719     3.847540     3.836360     3.825181     3.814002
      3.802822     3.791643     3.780463     3.769284     3.758104     3.746925     3.735745     3.724566     3.713387     3.702207
      3.691028     3.679848     3.668669     3.657489     3.646310     3.635130     3.623951     3.612772     3.601592     3.590413
      3.579233     3.568054     3.556874     3.545695     3.534515     3.523336     3.512156     3.500977     3.489798     3.478618
      3.467439     3.456259     3.445080     3.433900     3.422721     3.411541     3.400362     3.389183     3.378003     3.366824
      3.355644     3.344465     3.333285     3.322106     3.310926     3.299747     3.288568     3.277388     3.266209     3.255029
      3.243850     3.232670     3.221491     3.210311     3.199132     3.187953     3.176773     3.165594     3.154414     3.143235
      3.132055     3.120876     3.109696     3.098517     3.087337     3.076158     3.064979     3.053799     3.042620     3.031440
      3.020261     3.009081     2.997902     2.986722     2.975543     2.964364     2.953184     2.942005     2.930825     2.919646
      2.908466     2.897287     2.886107     2.874928     2.863749     2.852569     2.841390     2.830210     2.819031     2.807851
      2.796672     2.785492     2.774313     2.763134     2.751954     2.740775     2.729595     2.718416     2.707236     2.696057
      2.684877     2.673698     2.662519     2.651339     2.640160     2.628980     2.617801     2.606621     2.595442     2.584262
      2.573083     2.561903     2.550724     2.539545     2.528365     2.517186     2.506006     2.494827     2.483647     2.472468
      2.461288     2.450109     2.438930     2.427750     2.416571     2.405391     2.394212     2.383032     2.371853     2.360673
      2.349494     2.338315     2.327135     2.315956     2.304776     2.293597     2.282417     2.271238     2.260058     2.248879
      2.237700     2.226520     2.215341     2.204161     2.192982     2.181802     2.170623     2.159443     2.148264     2.137084
      2.125905     2.114726     2.103546     2.092367     2.081187     2.070008     2.058828     2.047649     2.036469     2.025290
      2.014111     2.002931     1.991752     1.980572     1.969393     1.958213     1.947034     1.935854     1.924675     1.913496
      1.902316     1.891137     1.879957     1.868778     1.857598     1.846419     1.835239     1.824060     1.812881     1.801701
      1.790522     1.779342     1.768163     1.756983     1.745804     1.734624     1.723445     1.712265     1.701086     1.689907
      1.678727     1.667548     1.656368     1.645189     1.634009     1.622830     1.611650     1.600471     1.589292     1.578112
      1.566933     1.555753     1.544574     1.533394     1.522215     1.511035     1.499856     1.488677     1.477497     1.466318
      1.455138     1.443959     1.432779     1.421600     1.410420     1.399241     1.388062     1.376882     1.365703     1.354523
      1.343344     1.332164     1.320985     1.309805     1.298626     1.287446     1.276267     1.265088     1.253908     1.242729
      1.231549     1.220370     1.209190     1.198011     1.186831     1.175652     1.164473     1.153293     1.142114     1.130934
      1.119755     1.108575     1.097396     1.086216     1.075037     1.063858     1.052678     1.041499     1.030319     1.019140
      1.007960     0.996781     0.985601     0.974422     0.963243     0.952063     0.940884     0.929704     0.918525     0.907345
      0.896166     0.884986     0.873807     0.862628     0.851448     0.840269     0.829089     0.817910     0.806730     0.795551
      0.784371     0.773192     0.762012     0.750833     0.739654     0.728474     0.717295     0.706115     0.694936     0.683756
      0.672577     0.661397     0.650218     0.639039     0.627859     0.616680     0.605500     0.594321     0.583141     0.571962
      0.560782     0.549603     0.538424     0.527244     0.516065     0.504885     0.493706     0.482526     0.471347     0.460167
      0.448988     0.437809     0.426629     0.415450     0.404270     0.393091     0.381911     0.370732     0.359552     0.348373
      0.337193     0.326014     0.314835     0.303655     0.292476     0.281296     0.270117     0.258937     0.247758     0.236578
      0.225399     0.214220     0.203040
 NY phased data points follow
   9.57134E-09  7.24197E-09  9.31788E-09  6.95787E-09  8.85876E-09  6.96542E-09  9.70355E-09  7.24979E-09  9.61961E-09  7.43975E-09
   9.22106E-09  7.04259E-09  9.54528E-09  7.10514E-09  8.30824E-09  6.83632E-09  8.44883E-09  6.62303E-09  8.82972E-09  6.59457E-09
   8.61361E-09  6.65532E-09  8.91764E-09  6.58782E-09  9.34701E-09  7.56875E-09  9.99144E-09  7.87235E-09  9.44121E-09  7.37911E-09
   8.98480E-09  6.30921E-09  8.34438E-09  6.00079E-09  7.57853E-09  5.68234E-09  7.15113E-09  5.15629E-09  6.67442E-09  4.94230E-09
   6.51810E-09  4.97526E-09  6.10655E-09  4.28330E-09  5.75549E-09  3.94214E-09  6.15186E-09  3.90801E-09  5.75724E-09  4.16237E-09
   5.23890E-09  4.16361E-09  5.31947E-09  4.17360E-09  6.24748E-09  5.02603E-09  7.14666E-09  6.53898E-09  7.94939E-09  7.18234E-09
   7.77396E-09  6.01627E-09  6.77358E-09  5.51860E-09  6.27402E-09  4.74309E-09  5.27912E-09  4.10526E-09  5.41603E-09  3.70622E-09
   5.17765E-09  5.15411E-09  7.57966E-09  7.41885E-09  9.80538E-09  8.92402E-09  1.03678E-08  9.27880E-09  1.01661E-08  8.72019E-09
   9.60256E-09  8.03935E-09  9.12697E-09  8.32889E-09  8.86483E-09  7.66314E-09  8.46326E-09  6.83389E-09  7.86560E-09  6.07218E-09
   7.24664E-09  6.26932E-09  6.72572E-09  5.89668E-09  6.61455E-09  5.65594E-09  6.68845E-09  5.22611E-09  6.17193E-09  5.27344E-09
   5.83918E-09  4.84818E-09  5.28099E-09  4.23572E-09  4.44081E-09  3.84594E-09  4.43497E-09  3.94431E-09  4.41762E-09  3.83478E-09
   4.19829E-09  3.95844E-09  4.77996E-09  3.94920E-09  4.62399E-09  3.61778E-09  4.47593E-09  3.61126E-09  3.79736E-09  2.66080E-09
   3.20426E-09  2.87472E-09  3.81089E-09  2.66346E-09  3.10219E-09  3.12316E-09  3.83948E-09  2.51762E-09  3.41852E-09  2.85769E-09
   3.31641E-09  2.51392E-09  3.80368E-09  3.45190E-09  4.29524E-09  4.15566E-09  4.99241E-09  4.46195E-09  5.14657E-09  5.01221E-09
   5.90975E-09  5.09149E-09  5.87290E-09  5.64567E-09  6.49230E-09  5.57224E-09  6.02805E-09  5.80244E-09  6.29590E-09  5.63670E-09
   6.58802E-09  5.59932E-09  6.46717E-09  5.82851E-09  6.54876E-09  5.74532E-09  6.43081E-09  5.98726E-09  6.32845E-09  5.73290E-09
   6.43952E-09  6.31967E-09  7.91643E-09  8.83966E-09  1.02433E-08  1.20058E-08  1.32649E-08  1.39708E-08  1.45107E-08  1.44971E-08
   1.49961E-08  1.41826E-08  1.49090E-08  1.44774E-08  1.45338E-08  1.39419E-08  1.41543E-08  1.35832E-08  1.35004E-08  1.29050E-08
   1.29529E-08  1.16349E-08  1.11498E-08  1.06065E-08  9.73439E-09  8.25021E-09  7.96398E-09  5.57653E-09  4.65875E-09  3.27467E-09
   1.58753E-09 -5.01292E-10 -1.44172E-09 -2.98628E-09 -4.51658E-09 -5.74651E-09 -6.48896E-09 -8.16003E-09 -7.99636E-09 -8.44600E-09
  -8.49055E-09 -8.17328E-09 -7.88717E-09 -7.10833E-09 -6.55250E-09 -5.54379E-09 -4.41864E-09 -4.08882E-09 -3.39846E-09 -3.20029E-09
  -1.91084E-09 -2.49000E-09 -1.91853E-09 -2.18099E-09 -2.28827E-09 -1.72858E-09 -1.58125E-09 -1.25349E-09 -1.46104E-09 -8.19745E-10
  -1.12304E-09 -1.76886E-09 -1.43329E-09 -1.03633E-09 -1.33675E-09 -9.66476E-10 -1.33024E-09 -1.03894E-09 -1.53143E-09 -1.13521E-09
  -1.17558E-09 -7.32262E-10 -3.72944E-10 -7.88632E-10 -1.04541E-09 -1.08473E-09 -1.31421E-09 -1.21599E-09 -9.11250E-10 -1.49097E-09
  -9.20378E-10 -1.23210E-09 -1.06123E-09 -5.74036E-10 -1.36811E-09 -4.25639E-10 -4.61864E-10 -1.43571E-10 -8.70497E-10 -5.37499E-10
  -6.19002E-10 -4.99387E-10 -8.71329E-10 -6.24588E-10 -1.14918E-09 -7.39626E-10 -1.14774E-09 -1.03781E-09 -1.39730E-09 -1.45439E-09
  -1.63703E-09 -1.22899E-09 -1.40327E-09 -1.04939E-09 -1.58168E-09 -1.06512E-09 -1.38498E-09 -4.98530E-10 -9.90312E-10 -8.48419E-10
  -7.83669E-10 -2.25855E-10 -6.22276E-10 -1.92842E-11 -3.04738E-10 -3.45146E-11 -7.31770E-10 -5.45822E-11 -1.10835E-09 -2.44473E-10
  -7.43998E-10 -5.60306E-10 -8.50811E-10 -1.70779E-10 -1.15162E-09 -4.21602E-10 -1.55163E-09 -7.77288E-10 -9.09200E-10 -8.17666E-10
  -1.31305E-09 -1.11201E-09 -9.77876E-10 -7.19093E-10 -1.20463E-09 -8.47783E-10 -1.58889E-09 -9.83402E-10 -1.77561E-09 -1.11021E-09
  -1.73946E-09 -1.18990E-09 -1.49101E-09 -1.08596E-09 -1.27335E-09 -9.61935E-10 -1.56966E-09 -9.32474E-10 -1.83529E-09 -1.08035E-09
  -1.73500E-09 -7.72464E-10 -1.66722E-09 -1.49441E-09 -2.00086E-09 -1.03734E-09 -1.87648E-09 -1.43514E-09 -2.18474E-09 -1.21450E-09
  -1.89711E-09 -1.38963E-09 -2.08776E-09 -1.35625E-09 -2.11718E-09 -1.21596E-09 -2.30562E-09 -1.22258E-09 -2.07321E-09 -1.77873E-09
  -2.47450E-09 -1.31032E-09 -2.49518E-09 -1.66281E-09 -2.21479E-09 -2.09694E-09 -2.47278E-09 -1.94051E-09 -2.38021E-09 -1.94146E-09
  -2.20975E-09 -1.83721E-09 -2.21532E-09 -1.68704E-09 -2.08385E-09 -1.87857E-09 -2.78303E-09 -2.00024E-09 -2.80807E-09 -1.61344E-09
  -2.61438E-09 -1.70086E-09 -2.55829E-09 -2.47725E-09 -2.86838E-09 -2.58412E-09 -2.85369E-09 -2.38879E-09 -2.88279E-09 -2.32702E-09
  -2.58053E-09 -2.07796E-09 -2.70435E-09
 NY points of the fit to the data follow
   1.01144E-08  9.60630E-09  8.68187E-09  7.54631E-09  8.92130E-09  5.56921E-09  8.81445E-09  8.05486E-09  1.07971E-08  8.06274E-09
   9.08938E-09  7.20697E-09  9.09943E-09  6.26920E-09  9.11727E-09  6.91175E-09  8.07572E-09  7.06624E-09  9.84257E-09  7.06090E-09
   6.19390E-09  5.97587E-09  8.10872E-09  6.35306E-09  9.84427E-09  7.55871E-09  1.04667E-08  8.14310E-09  1.08632E-08  7.91886E-09
   9.48021E-09  7.32137E-09  1.05087E-08  7.04102E-09  8.53039E-09  7.11563E-09  6.87821E-09  5.86743E-09  5.29801E-09  4.29037E-09
   5.02260E-09  3.65962E-09  5.64624E-09  4.16307E-09  6.20052E-09  4.00775E-09  5.67080E-09  4.35795E-09  6.12945E-09  3.94819E-09
   6.45785E-09  4.51226E-09  6.38605E-09  5.80198E-09  6.94471E-09  5.50454E-09  7.77974E-09  5.52615E-09  7.16298E-09  6.52608E-09
   6.94668E-09  6.31443E-09  7.06788E-09  5.38242E-09  7.75936E-09  5.93030E-09  6.13111E-09  6.38924E-09  6.62577E-09  5.30140E-09
   6.91078E-09  6.61611E-09  6.69876E-09  7.06167E-09  7.45966E-09  8.97417E-09  1.01104E-08  8.52999E-09  9.99820E-09  9.30288E-09
   9.28300E-09  9.29192E-09  9.27112E-09  8.06421E-09  8.94524E-09  7.65239E-09  8.62471E-09  7.40587E-09  6.07610E-09  5.46943E-09
   5.34410E-09  5.13598E-09  4.86937E-09  5.16175E-09  4.87895E-09  4.61348E-09  4.92888E-09  4.62074E-09  4.61633E-09  4.68630E-09
   4.66333E-09  4.44001E-09  4.68662E-09  4.60702E-09  4.56218E-09  4.61677E-09  4.57492E-09  4.56600E-09  4.63596E-09  4.51419E-09
   4.64270E-09  4.59704E-09  4.41259E-09  4.61483E-09  4.50319E-09  4.47120E-09  4.46036E-09  4.45568E-09  4.45306E-09  4.45116E-09
   4.44918E-09  4.44685E-09  4.44390E-09  4.44020E-09  4.43563E-09  4.43010E-09  4.42359E-09  4.41597E-09  4.40724E-09  4.39736E-09
   4.38627E-09  4.37396E-09  4.36040E-09  4.34554E-09  4.32940E-09  4.31193E-09  4.29312E-09  4.27296E-09  4.25144E-09  4.22855E-09
   4.20429E-09  4.17866E-09  4.15167E-09  4.12335E-09  4.09369E-09  4.06274E-09  4.03057E-09  3.99728E-09  3.96303E-09  3.92800E-09
   3.89238E-09  3.85644E-09  3.82050E-09  3.78498E-09  3.75045E-09  3.71766E-09  3.68769E-09  3.66210E-09  3.64327E-09  3.63501E-09
   3.64380E-09  3.68157E-09  3.77265E-09  3.97454E-09  4.45554E-09  5.90745E-09  1.25709E-08  1.51350E-08  1.40642E-08  1.43441E-08
   1.49041E-08  1.40009E-08  1.48774E-08  1.34052E-08  1.44459E-08  1.35640E-08  1.30099E-08  1.49849E-08  1.24324E-08  5.82126E-09
   3.63241E-09  2.90917E-09  2.54324E-09  2.30884E-09  2.13587E-09  1.99620E-09  1.87644E-09  1.76954E-09  1.67136E-09  1.57942E-09
   1.49210E-09  1.40833E-09  1.32739E-09  1.24873E-09  1.17203E-09  1.09698E-09  1.02342E-09  9.51191E-10  8.80214E-10  8.10395E-10
   7.41702E-10  6.74097E-10  6.07570E-10  5.42104E-10  4.77704E-10  4.14382E-10  3.52149E-10  2.91016E-10  2.31013E-10  1.72172E-10
   1.14500E-10  5.80404E-11  2.82674E-12 -5.11141E-11 -1.03754E-10 -1.55044E-10 -2.04950E-10 -2.53452E-10 -3.00492E-10 -3.46100E-10
  -3.90287E-10 -4.33103E-10 -4.74551E-10 -5.14677E-10 -5.53488E-10 -5.91033E-10 -6.27320E-10 -6.62384E-10 -6.96243E-10 -7.28927E-10
  -7.60463E-10 -7.90874E-10 -8.20182E-10 -8.48416E-10 -8.75598E-10 -9.01754E-10 -9.26911E-10 -9.51083E-10 -9.74308E-10 -9.96599E-10
  -1.01798E-09 -1.03849E-09 -1.05814E-09 -1.07696E-09 -1.09496E-09 -1.11218E-09 -1.12864E-09 -1.14436E-09 -1.15938E-09 -1.17369E-09
  -1.18735E-09 -1.20035E-09 -1.21276E-09 -1.22454E-09 -1.23577E-09 -1.24645E-09 -1.25661E-09 -1.26625E-09 -1.27543E-09 -1.28415E-09
  -1.29244E-09 -1.30033E-09 -1.30784E-09 -1.31499E-09 -1.32180E-09 -1.32829E-09 -1.33452E-09 -1.34045E-09 -1.34616E-09 -1.35165E-09
  -1.35695E-09 -1.36206E-09 -1.36704E-09 -1.37189E-09 -1.37665E-09 -1.38132E-09 -1.38594E-09 -1.39054E-09 -1.39512E-09 -1.39972E-09
  -1.40437E-09 -1.40907E-09 -1.41387E-09 -1.41878E-09 -1.42382E-09 -1.42902E-09 -1.43441E-09 -1.43998E-09 -1.44579E-09 -1.45186E-09
  -1.45819E-09 -1.46482E-09 -1.47173E-09 -1.47891E-09 -1.48637E-09 -1.49410E-09 -1.50209E-09 -1.51034E-09 -1.51884E-09 -1.52759E-09
  -1.53659E-09 -1.54583E-09 -1.55530E-09 -1.56500E-09 -1.57493E-09 -1.58507E-09 -1.59544E-09 -1.60602E-09 -1.61680E-09 -1.62778E-09
  -1.63897E-09 -1.65034E-09 -1.66190E-09 -1.67365E-09 -1.68557E-09 -1.69767E-09 -1.70993E-09 -1.72236E-09 -1.73495E-09 -1.74769E-09
  -1.76059E-09 -1.77362E-09 -1.78680E-09 -1.80011E-09 -1.81356E-09 -1.82712E-09 -1.84082E-09 -1.85462E-09 -1.86854E-09 -1.88256E-09
  -1.89669E-09 -1.91092E-09 -1.92523E-09 -1.93964E-09 -1.95413E-09 -1.96869E-09 -1.98333E-09 -1.99804E-09 -2.01282E-09 -2.02765E-09
  -2.04253E-09 -2.05747E-09 -2.07245E-09 -2.08747E-09 -2.10253E-09 -2.11762E-09 -2.13273E-09 -2.14787E-09 -2.16301E-09 -2.17818E-09
  -2.19335E-09 -2.20852E-09 -2.22369E-09 -2.23885E-09 -2.25400E-09 -2.26913E-09 -2.28425E-09 -2.29933E-09 -2.31438E-09 -2.32940E-09
  -2.34438E-09 -2.35931E-09 -2.37419E-09
 NY background values follow
    -1.373E-09   -1.319E-09   -1.264E-09   -1.210E-09   -1.155E-09   -1.101E-09   -1.046E-09   -9.918E-10   -9.372E-10   -8.826E-10
    -8.280E-10   -7.734E-10   -7.188E-10   -6.643E-10   -6.097E-10   -5.552E-10   -5.006E-10   -4.462E-10   -3.917E-10   -3.373E-10
    -2.830E-10   -2.287E-10   -1.745E-10   -1.204E-10   -6.631E-11   -1.232E-11    4.158E-11    9.538E-11    1.491E-10    2.027E-10
     2.562E-10    3.096E-10    3.628E-10    4.159E-10    4.689E-10    5.218E-10    5.745E-10    6.270E-10    6.794E-10    7.317E-10
     7.837E-10    8.356E-10    8.873E-10    9.388E-10    9.901E-10    1.041E-09    1.092E-09    1.143E-09    1.193E-09    1.244E-09
     1.294E-09    1.344E-09    1.393E-09    1.442E-09    1.492E-09    1.540E-09    1.589E-09    1.637E-09    1.685E-09    1.733E-09
     1.780E-09    1.828E-09    1.874E-09    1.921E-09    1.967E-09    2.013E-09    2.059E-09    2.104E-09    2.149E-09    2.193E-09
     2.238E-09    2.282E-09    2.325E-09    2.368E-09    2.411E-09    2.454E-09    2.496E-09    2.537E-09    2.578E-09    2.619E-09
     2.659E-09    2.699E-09    2.738E-09    2.776E-09    2.814E-09    2.852E-09    2.889E-09    2.925E-09    2.960E-09    2.995E-09
     3.029E-09    3.063E-09    3.096E-09    3.128E-09    3.159E-09    3.189E-09    3.219E-09    3.248E-09    3.276E-09    3.303E-09
     3.329E-09    3.355E-09    3.379E-09    3.403E-09    3.425E-09    3.447E-09    3.468E-09    3.487E-09    3.506E-09    3.523E-09
     3.540E-09    3.555E-09    3.569E-09    3.583E-09    3.595E-09    3.605E-09    3.615E-09    3.624E-09    3.631E-09    3.637E-09
     3.642E-09    3.645E-09    3.647E-09    3.648E-09    3.648E-09    3.646E-09    3.643E-09    3.638E-09    3.632E-09    3.624E-09
     3.616E-09    3.605E-09    3.593E-09    3.580E-09    3.565E-09    3.549E-09    3.531E-09    3.511E-09    3.490E-09    3.467E-09
     3.442E-09    3.416E-09    3.388E-09    3.359E-09    3.328E-09    3.295E-09    3.260E-09    3.224E-09    3.186E-09    3.146E-09
     3.105E-09    3.062E-09    3.017E-09    2.972E-09    2.925E-09    2.876E-09    2.826E-09    2.775E-09    2.723E-09    2.670E-09
     2.615E-09    2.559E-09    2.503E-09    2.445E-09    2.386E-09    2.327E-09    2.266E-09    2.205E-09    2.143E-09    2.080E-09
     2.016E-09    1.952E-09    1.887E-09    1.822E-09    1.756E-09    1.690E-09    1.623E-09    1.556E-09    1.488E-09    1.420E-09
     1.352E-09    1.284E-09    1.215E-09    1.146E-09    1.078E-09    1.009E-09    9.400E-10    8.713E-10    8.026E-10    7.340E-10
     6.656E-10    5.975E-10    5.296E-10    4.619E-10    3.947E-10    3.278E-10    2.614E-10    1.954E-10    1.300E-10    6.510E-11
     8.355E-13   -6.278E-11   -1.257E-10   -1.879E-10   -2.493E-10   -3.099E-10   -3.696E-10   -4.284E-10   -4.862E-10   -5.430E-10
    -5.988E-10   -6.535E-10   -7.071E-10   -7.595E-10   -8.107E-10   -8.606E-10   -9.092E-10   -9.565E-10   -1.002E-09   -1.047E-09
    -1.090E-09   -1.132E-09   -1.172E-09   -1.211E-09   -1.249E-09   -1.286E-09   -1.322E-09   -1.356E-09   -1.389E-09   -1.421E-09
    -1.452E-09   -1.481E-09   -1.510E-09   -1.538E-09   -1.564E-09   -1.590E-09   -1.614E-09   -1.638E-09   -1.661E-09   -1.682E-09
    -1.703E-09   -1.723E-09   -1.742E-09   -1.761E-09   -1.778E-09   -1.795E-09   -1.811E-09   -1.826E-09   -1.841E-09   -1.855E-09
    -1.868E-09   -1.880E-09   -1.892E-09   -1.904E-09   -1.915E-09   -1.925E-09   -1.935E-09   -1.944E-09   -1.953E-09   -1.961E-09
    -1.969E-09   -1.977E-09   -1.984E-09   -1.991E-09   -1.997E-09   -2.003E-09   -2.009E-09   -2.015E-09   -2.020E-09   -2.025E-09
    -2.030E-09   -2.035E-09   -2.040E-09   -2.044E-09   -2.048E-09   -2.053E-09   -2.057E-09   -2.061E-09   -2.066E-09   -2.070E-09
    -2.074E-09   -2.079E-09   -2.083E-09   -2.088E-09   -2.093E-09   -2.097E-09   -2.103E-09   -2.108E-09   -2.113E-09   -2.119E-09
    -2.125E-09   -2.131E-09   -2.138E-09   -2.145E-09   -2.152E-09   -2.160E-09   -2.167E-09   -2.175E-09   -2.183E-09   -2.192E-09
    -2.201E-09   -2.210E-09   -2.219E-09   -2.228E-09   -2.238E-09   -2.248E-09   -2.258E-09   -2.268E-09   -2.279E-09   -2.289E-09
    -2.300E-09   -2.311E-09   -2.322E-09   -2.334E-09   -2.346E-09   -2.357E-09   -2.369E-09   -2.381E-09   -2.394E-09   -2.406E-09
    -2.419E-09   -2.432E-09   -2.444E-09   -2.457E-09   -2.471E-09   -2.484E-09   -2.497E-09   -2.511E-09   -2.524E-09   -2.538E-09
    -2.552E-09   -2.566E-09   -2.580E-09   -2.594E-09   -2.608E-09   -2.622E-09   -2.637E-09   -2.651E-09   -2.666E-09   -2.680E-09
    -2.695E-09   -2.709E-09   -2.724E-09   -2.739E-09   -2.754E-09   -2.768E-09   -2.783E-09   -2.798E-09   -2.813E-09   -2.828E-09
    -2.842E-09   -2.857E-09   -2.872E-09   -2.887E-09   -2.902E-09   -2.917E-09   -2.931E-09   -2.946E-09   -2.961E-09   -2.976E-09
    -2.990E-09   -3.005E-09   -3.019E-09
 Ala      Conc. = 5.39E-11
  -1.34033E-09 -1.28618E-09 -1.21434E-09 -1.17599E-09 -1.10747E-09 -1.06062E-09 -1.02073E-09 -9.35131E-10 -9.10270E-10 -8.67353E-10
  -7.82416E-10 -7.54584E-10 -7.04156E-10 -6.44610E-10 -5.95545E-10 -5.43925E-10 -4.91152E-10 -4.37833E-10 -3.84221E-10 -3.30444E-10
  -2.76581E-10 -2.22679E-10 -1.68768E-10 -1.14875E-10 -6.10089E-11 -7.19950E-12  4.65523E-11  1.00226E-10  1.53819E-10  2.07325E-10
   2.60728E-10  3.14026E-10  3.67217E-10  4.20279E-10  4.73220E-10  5.26010E-10  5.78676E-10  6.31195E-10  6.83546E-10  7.35753E-10
   7.87785E-10  8.39651E-10  8.91328E-10  9.42836E-10  9.94140E-10  1.04526E-09  1.09616E-09  1.14686E-09  1.19735E-09  1.24762E-09
   1.29766E-09  1.34746E-09  1.39704E-09  1.44636E-09  1.49543E-09  1.54426E-09  1.59282E-09  1.64109E-09  1.68913E-09  1.73687E-09
   1.78431E-09  1.83149E-09  1.87835E-09  1.92493E-09  1.97117E-09  2.01712E-09  2.06275E-09  2.10806E-09  2.15303E-09  2.19766E-09
   2.24197E-09  2.28592E-09  2.32951E-09  2.37276E-09  2.41563E-09  2.45811E-09  2.50019E-09  2.54184E-09  2.58305E-09  2.62379E-09
   2.66407E-09  2.70384E-09  2.74311E-09  2.78186E-09  2.82006E-09  2.85772E-09  2.89482E-09  2.93134E-09  2.96730E-09  3.00269E-09
   3.03752E-09  3.07183E-09  3.10567E-09  3.13913E-09  3.17241E-09  3.20586E-09  3.24024E-09  3.27748E-09  3.32354E-09  3.40469E-09
   3.50909E-09  3.35001E-09  3.61777E-09  3.58185E-09  3.57607E-09  3.65644E-09  3.64008E-09  3.64953E-09  3.73633E-09  3.62941E-09
   3.77092E-09  3.73669E-09  3.56273E-09  3.77405E-09  3.67095E-09  3.64653E-09  3.64257E-09  3.64413E-09  3.64727E-09  3.65058E-09
   3.65344E-09  3.65553E-09  3.65665E-09  3.65668E-09  3.65554E-09  3.65317E-09  3.64951E-09  3.64453E-09  3.63820E-09  3.63048E-09
   3.62134E-09  3.61077E-09  3.59873E-09  3.58520E-09  3.57016E-09  3.55360E-09  3.53547E-09  3.51577E-09  3.49448E-09  3.47158E-09
   3.44704E-09  3.42084E-09  3.39297E-09  3.36341E-09  3.33213E-09  3.29912E-09  3.26438E-09  3.22793E-09  3.18984E-09  3.15014E-09
   3.10887E-09  3.06608E-09  3.02182E-09  2.97613E-09  2.92906E-09  2.88065E-09  2.83096E-09  2.78004E-09  2.72794E-09  2.67473E-09
   2.62049E-09  2.56534E-09  2.50946E-09  2.45323E-09  2.39764E-09  2.34638E-09  2.32157E-09  2.33641E-09  2.14989E-09  2.21547E-09
   2.04694E-09  2.06427E-09  1.93305E-09  1.92954E-09  1.78613E-09  1.82468E-09  1.62107E-09  1.70110E-09  1.53014E-09  1.43843E-09
   1.36362E-09  1.29247E-09  1.22245E-09  1.15289E-09  1.08354E-09  1.01431E-09  9.45190E-10  8.76193E-10  8.07318E-10  7.38610E-10
   6.70106E-10  6.01830E-10  5.33831E-10  4.66145E-10  3.98822E-10  3.31892E-10  2.65398E-10  1.99395E-10  1.33918E-10  6.90037E-11
   4.70334E-12 -5.89435E-11 -1.21891E-10 -1.84099E-10 -2.45525E-10 -3.06118E-10 -3.65842E-10 -4.24653E-10 -4.82510E-10 -5.39353E-10
  -5.95165E-10 -6.49882E-10 -7.03466E-10 -7.55877E-10 -8.07075E-10 -8.57004E-10 -9.05625E-10 -9.52906E-10 -9.98789E-10 -1.04330E-09
  -1.08644E-09 -1.12825E-09 -1.16874E-09 -1.20795E-09 -1.24589E-09 -1.28259E-09 -1.31807E-09 -1.35235E-09 -1.38546E-09 -1.41742E-09
  -1.44826E-09 -1.47799E-09 -1.50664E-09 -1.53424E-09 -1.56081E-09 -1.58636E-09 -1.61094E-09 -1.63454E-09 -1.65722E-09 -1.67897E-09
  -1.69983E-09 -1.71983E-09 -1.73898E-09 -1.75730E-09 -1.77483E-09 -1.79158E-09 -1.80758E-09 -1.82285E-09 -1.83742E-09 -1.85130E-09
  -1.86454E-09 -1.87712E-09 -1.88912E-09 -1.90050E-09 -1.91132E-09 -1.92161E-09 -1.93138E-09 -1.94065E-09 -1.94945E-09 -1.95780E-09
  -1.96572E-09 -1.97325E-09 -1.98040E-09 -1.98720E-09 -1.99365E-09 -1.99981E-09 -2.00568E-09 -2.01128E-09 -2.01665E-09 -2.02181E-09
  -2.02678E-09 -2.03157E-09 -2.03623E-09 -2.04075E-09 -2.04519E-09 -2.04954E-09 -2.05385E-09 -2.05813E-09 -2.06240E-09 -2.06669E-09
  -2.07103E-09 -2.07543E-09 -2.07993E-09 -2.08453E-09 -2.08927E-09 -2.09417E-09 -2.09926E-09 -2.10454E-09 -2.11006E-09 -2.11583E-09
  -2.12187E-09 -2.12820E-09 -2.13482E-09 -2.14171E-09 -2.14888E-09 -2.15631E-09 -2.16401E-09 -2.17197E-09 -2.18019E-09 -2.18865E-09
  -2.19736E-09 -2.20631E-09 -2.21550E-09 -2.22491E-09 -2.23455E-09 -2.24441E-09 -2.25449E-09 -2.26479E-09 -2.27528E-09 -2.28598E-09
  -2.29688E-09 -2.30796E-09 -2.31924E-09 -2.33070E-09 -2.34234E-09 -2.35414E-09 -2.36612E-09 -2.37826E-09 -2.39056E-09 -2.40302E-09
  -2.41562E-09 -2.42837E-09 -2.44126E-09 -2.45428E-09 -2.46743E-09 -2.48071E-09 -2.49411E-09 -2.50762E-09 -2.52125E-09 -2.53498E-09
  -2.54881E-09 -2.56274E-09 -2.57676E-09 -2.59087E-09 -2.60506E-09 -2.61932E-09 -2.63366E-09 -2.64807E-09 -2.66254E-09 -2.67707E-09
  -2.69165E-09 -2.70628E-09 -2.72096E-09 -2.73567E-09 -2.75042E-09 -2.76520E-09 -2.78000E-09 -2.79482E-09 -2.80965E-09 -2.82450E-09
  -2.83936E-09 -2.85421E-09 -2.86906E-09 -2.88390E-09 -2.89873E-09 -2.91353E-09 -2.92832E-09 -2.94308E-09 -2.95780E-09 -2.97249E-09
  -2.98713E-09 -3.00173E-09 -3.01628E-09
 Asp      Conc. = 1.28E-09
   4.78345E-10 -4.64612E-10 -2.63568E-10 -1.92449E-10 -6.41857E-10 -3.57546E-10 -4.95957E-10 -6.69747E-10 -7.12723E-10 -6.99691E-10
  -6.80618E-10 -6.34422E-10 -6.01111E-10 -5.50386E-10 -4.99396E-10 -4.47938E-10 -3.95550E-10 -3.42302E-10 -2.88294E-10 -2.33608E-10
  -1.78295E-10 -1.22376E-10 -6.58360E-11 -8.63596E-12  4.93087E-11  1.08104E-10  1.67937E-10  2.29054E-10  2.91830E-10  3.56825E-10
   4.24889E-10  4.97447E-10  5.77032E-10  6.68722E-10  7.84717E-10  9.61579E-10  1.20444E-09  1.01789E-09  1.53406E-09  9.89028E-10
   1.63249E-09  1.33708E-09  2.24539E-09  1.76626E-09  3.47219E-09  1.95171E-09  3.13202E-09  2.37067E-09  3.78530E-09  2.10762E-09
   3.75194E-09  2.52068E-09  3.66524E-09  2.77357E-09  3.50558E-09  3.07806E-09  2.98164E-09  2.00070E-09  2.96152E-09  2.79948E-09
   2.19506E-09  2.55382E-09  2.40743E-09  2.28319E-09  2.27903E-09  2.52880E-09  2.42969E-09  2.39939E-09  2.39903E-09  2.41290E-09
   2.43466E-09  2.46128E-09  2.49106E-09  2.52303E-09  2.55650E-09  2.59103E-09  2.62628E-09  2.66202E-09  2.69804E-09  2.73421E-09
   2.77040E-09  2.80652E-09  2.84247E-09  2.87819E-09  2.91361E-09  2.94869E-09  2.98337E-09  3.01760E-09  3.05135E-09  3.08457E-09
   3.11725E-09  3.14933E-09  3.18080E-09  3.21161E-09  3.24175E-09  3.27119E-09  3.29990E-09  3.32785E-09  3.35502E-09  3.38139E-09
   3.40693E-09  3.43162E-09  3.45543E-09  3.47835E-09  3.50036E-09  3.52142E-09  3.54153E-09  3.56065E-09  3.57877E-09  3.59587E-09
   3.61192E-09  3.62691E-09  3.64082E-09  3.65362E-09  3.66529E-09  3.67582E-09  3.68518E-09  3.69336E-09  3.70033E-09  3.70607E-09
   3.71057E-09  3.71380E-09  3.71576E-09  3.71640E-09  3.71573E-09  3.71371E-09  3.71033E-09  3.70557E-09  3.69941E-09  3.69183E-09
   3.68281E-09  3.67234E-09  3.66039E-09  3.64695E-09  3.63200E-09  3.61552E-09  3.59749E-09  3.57790E-09  3.55672E-09  3.53395E-09
   3.50956E-09  3.48353E-09  3.45586E-09  3.42655E-09  3.39555E-09  3.36286E-09  3.32850E-09  3.29252E-09  3.25496E-09  3.21590E-09
   3.17540E-09  3.13355E-09  3.09041E-09  3.04610E-09  3.00073E-09  2.95447E-09  2.90750E-09  2.86011E-09  2.81273E-09  2.76598E-09
   2.72096E-09  2.67966E-09  2.64619E-09  2.63032E-09  2.66080E-09  2.85466E-09  3.95295E-09  4.63191E-09  2.87826E-09  4.73807E-09
   3.07621E-09  4.22946E-09  3.23983E-09  3.90817E-09  2.96627E-09  4.15305E-09  2.21378E-09  4.52657E-09  2.32326E-09  1.80504E-09
   1.59842E-09  1.46906E-09  1.36749E-09  1.27854E-09  1.19621E-09  1.11777E-09  1.04181E-09  9.67558E-10  8.94538E-10  8.22485E-10
   7.51233E-10  6.80663E-10  6.10725E-10  5.41380E-10  4.72625E-10  4.04446E-10  3.36855E-10  2.69880E-10  2.03539E-10  1.37850E-10
   7.28512E-11  8.57297E-12 -5.49482E-11 -1.17680E-10 -1.79586E-10 -2.40621E-10 -3.00752E-10 -3.59942E-10 -4.18147E-10 -4.75317E-10
  -5.31433E-10 -5.86436E-10 -6.40286E-10 -6.92948E-10 -7.44383E-10 -7.94534E-10 -8.43366E-10 -8.90847E-10 -9.36920E-10 -9.81606E-10
  -1.02492E-09 -1.06690E-09 -1.10755E-09 -1.14690E-09 -1.18498E-09 -1.22182E-09 -1.25743E-09 -1.29184E-09 -1.32507E-09 -1.35714E-09
