 LCModel (Version 6.3-1R) Copyright: S.W. Provencher.          Ref.: Magn. Reson. Med. 30:672-679 (1993).                
 onepulse 30x18_ftSpec_smooth_lcm
 26 lines in following concentration table = NCONC+1
    Conc.  %SD   /Cr    Metabolite                                         
    0.000 999%   0.000 Ala                                                 
 1.04E-09  79%   0.000 Asp                                                 
    0.000 999%   0.000 Cr                                                  
 6.31E-10  97%   0.000 GABA                                                
    0.000 999%   0.000 Glc                                                 
 1.04E-09  71%   0.000 Gln                                                 
    0.000 999%   0.000 Glu                                                 
 2.59E-10 662%   0.000 Glyc                                                
    0.000 999%   0.000 GPC                                                 
 6.49E-10 100%   0.000 GSH                                                 
 1.11E-09 138%   0.000 Ins                                                 
    0.000 999%   0.000 Lac                                                 
 4.93E-10  69%   0.000 NAAG                                                
    0.000 999%   0.000 NAA                                                 
    0.000 999%   0.000 PCh                                                 
    0.000 999%   0.000 PCr                                                 
 1.04E-09  91%   0.000 PE                                                  
 9.36E-11 293%   0.000 Scyllo                                              
 1.07E-09  73%   0.000 Ser                                                 
 8.58E-10 107%   0.000 Tau                                                 
    0.000 999%   0.000 GPC+PCh                                             
 4.93E-10  64%   0.000 NAA+NAAG                                            
 1.37E-09  32%   0.000 Ins+Glyc                                            
    0.000 999%   0.000 Cr+PCr                                              
 1.04E-09  71%   0.000 Glu+Gln                                             
   6 lines in following misc. output table
  FWHM = 0.123 ppm    S/N =   3                                            
  Data shift = 0.436 ppm                                                   
  Ph: -10 deg     -32.0 deg/ppm                                            
  alphaB,S = 7.5E-01,   6.4E+00                                            
    8 spline knots.   Ns = 5(1)                                            
  (12) 8 infls.   (11) 7 extrs.                                            
  363 points on ppm-axis = NY
      4.250000     4.238821     4.227641     4.216462     4.205282     4.194103     4.182923     4.171744     4.160564     4.149385
      4.138206     4.127026     4.115847     4.104667     4.093488     4.082308     4.071129     4.059949     4.048770     4.037591
      4.026411     4.015232     4.004052     3.992873     3.981693     3.970514     3.959334     3.948155     3.936975     3.925796
      3.914617     3.903437     3.892258     3.881078     3.869899     3.858719     3.847540     3.836360     3.825181     3.814002
      3.802822     3.791643     3.780463     3.769284     3.758104     3.746925     3.735745     3.724566     3.713387     3.702207
      3.691028     3.679848     3.668669     3.657489     3.646310     3.635130     3.623951     3.612772     3.601592     3.590413
      3.579233     3.568054     3.556874     3.545695     3.534515     3.523336     3.512156     3.500977     3.489798     3.478618
      3.467439     3.456259     3.445080     3.433900     3.422721     3.411541     3.400362     3.389183     3.378003     3.366824
      3.355644     3.344465     3.333285     3.322106     3.310926     3.299747     3.288568     3.277388     3.266209     3.255029
      3.243850     3.232670     3.221491     3.210311     3.199132     3.187953     3.176773     3.165594     3.154414     3.143235
      3.132055     3.120876     3.109696     3.098517     3.087337     3.076158     3.064979     3.053799     3.042620     3.031440
      3.020261     3.009081     2.997902     2.986722     2.975543     2.964364     2.953184     2.942005     2.930825     2.919646
      2.908466     2.897287     2.886107     2.874928     2.863749     2.852569     2.841390     2.830210     2.819031     2.807851
      2.796672     2.785492     2.774313     2.763134     2.751954     2.740775     2.729595     2.718416     2.707236     2.696057
      2.684877     2.673698     2.662519     2.651339     2.640160     2.628980     2.617801     2.606621     2.595442     2.584262
      2.573083     2.561903     2.550724     2.539545     2.528365     2.517186     2.506006     2.494827     2.483647     2.472468
      2.461288     2.450109     2.438930     2.427750     2.416571     2.405391     2.394212     2.383032     2.371853     2.360673
      2.349494     2.338315     2.327135     2.315956     2.304776     2.293597     2.282417     2.271238     2.260058     2.248879
      2.237700     2.226520     2.215341     2.204161     2.192982     2.181802     2.170623     2.159443     2.148264     2.137084
      2.125905     2.114726     2.103546     2.092367     2.081187     2.070008     2.058828     2.047649     2.036469     2.025290
      2.014111     2.002931     1.991752     1.980572     1.969393     1.958213     1.947034     1.935854     1.924675     1.913496
      1.902316     1.891137     1.879957     1.868778     1.857598     1.846419     1.835239     1.824060     1.812881     1.801701
      1.790522     1.779342     1.768163     1.756983     1.745804     1.734624     1.723445     1.712265     1.701086     1.689907
      1.678727     1.667548     1.656368     1.645189     1.634009     1.622830     1.611650     1.600471     1.589292     1.578112
      1.566933     1.555753     1.544574     1.533394     1.522215     1.511035     1.499856     1.488677     1.477497     1.466318
      1.455138     1.443959     1.432779     1.421600     1.410420     1.399241     1.388062     1.376882     1.365703     1.354523
      1.343344     1.332164     1.320985     1.309805     1.298626     1.287446     1.276267     1.265088     1.253908     1.242729
      1.231549     1.220370     1.209190     1.198011     1.186831     1.175652     1.164473     1.153293     1.142114     1.130934
      1.119755     1.108575     1.097396     1.086216     1.075037     1.063858     1.052678     1.041499     1.030319     1.019140
      1.007960     0.996781     0.985601     0.974422     0.963243     0.952063     0.940884     0.929704     0.918525     0.907345
      0.896166     0.884986     0.873807     0.862628     0.851448     0.840269     0.829089     0.817910     0.806730     0.795551
      0.784371     0.773192     0.762012     0.750833     0.739654     0.728474     0.717295     0.706115     0.694936     0.683756
      0.672577     0.661397     0.650218     0.639039     0.627859     0.616680     0.605500     0.594321     0.583141     0.571962
      0.560782     0.549603     0.538424     0.527244     0.516065     0.504885     0.493706     0.482526     0.471347     0.460167
      0.448988     0.437809     0.426629     0.415450     0.404270     0.393091     0.381911     0.370732     0.359552     0.348373
      0.337193     0.326014     0.314835     0.303655     0.292476     0.281296     0.270117     0.258937     0.247758     0.236578
      0.225399     0.214220     0.203040
 NY phased data points follow
   9.36762E-09  6.38933E-09  9.10194E-09  6.18920E-09  8.47468E-09  6.23523E-09  9.38968E-09  6.48884E-09  9.12998E-09  6.63751E-09
   8.83049E-09  6.15943E-09  9.03714E-09  6.30617E-09  8.03512E-09  6.17792E-09  8.09310E-09  5.94598E-09  8.45106E-09  5.94070E-09
   8.36055E-09  6.02705E-09  8.57492E-09  6.02762E-09  9.00501E-09  6.83316E-09  9.43653E-09  6.95078E-09  8.61602E-09  6.60273E-09
   8.45344E-09  5.37892E-09  7.82315E-09  5.23206E-09  6.91759E-09  4.93498E-09  6.65705E-09  4.40739E-09  6.31432E-09  4.28832E-09
   5.92006E-09  4.38241E-09  5.70265E-09  3.79849E-09  5.50157E-09  3.53622E-09  5.82967E-09  3.49933E-09  5.72255E-09  4.01438E-09
   5.34095E-09  3.96928E-09  5.41430E-09  4.37840E-09  6.41319E-09  5.03933E-09  7.19679E-09  6.25721E-09  7.89186E-09  7.01933E-09
   7.55931E-09  5.71542E-09  6.83722E-09  5.48521E-09  6.21986E-09  4.80414E-09  5.54214E-09  4.44266E-09  5.73360E-09  4.12966E-09
   5.70804E-09  5.75065E-09  7.99539E-09  7.63844E-09  9.66292E-09  8.87868E-09  1.02686E-08  9.21092E-09  9.82171E-09  8.58655E-09
   9.42789E-09  7.94543E-09  8.93574E-09  8.06853E-09  8.61657E-09  7.46189E-09  8.06147E-09  6.52246E-09  7.48871E-09  5.83543E-09
   7.02043E-09  5.96337E-09  6.34720E-09  5.73568E-09  6.09349E-09  5.40018E-09  6.19263E-09  5.05738E-09  6.01228E-09  5.11957E-09
   5.56218E-09  4.72810E-09  5.16702E-09  4.16468E-09  4.41353E-09  3.77340E-09  4.21129E-09  3.91949E-09  4.33673E-09  3.82929E-09
   4.10171E-09  4.00289E-09  4.73250E-09  3.87926E-09  4.55105E-09  3.57220E-09  4.22374E-09  3.57032E-09  3.86335E-09  2.89248E-09
   3.40337E-09  3.02451E-09  3.88321E-09  2.89383E-09  3.33425E-09  3.26825E-09  4.01879E-09  2.75556E-09  3.50613E-09  3.00785E-09
   3.54341E-09  2.81545E-09  3.93659E-09  3.66045E-09  4.44030E-09  4.20591E-09  5.18114E-09  4.60550E-09  5.26676E-09  5.20980E-09
   5.85408E-09  5.17542E-09  5.78940E-09  5.63318E-09  6.50969E-09  5.69054E-09  5.93704E-09  5.90900E-09  6.30825E-09  5.77712E-09
   6.61015E-09  5.68351E-09  6.66703E-09  6.04631E-09  6.56597E-09  6.06752E-09  6.66165E-09  6.27188E-09  6.82822E-09  6.32607E-09
   7.11107E-09  7.32053E-09  8.78763E-09  9.56413E-09  1.06951E-08  1.22139E-08  1.33531E-08  1.40055E-08  1.49258E-08  1.46761E-08
   1.52248E-08  1.45123E-08  1.50799E-08  1.47465E-08  1.48156E-08  1.41398E-08  1.45653E-08  1.39231E-08  1.37737E-08  1.34761E-08
   1.36048E-08  1.22799E-08  1.19691E-08  1.15917E-08  1.06975E-08  9.47505E-09  9.32447E-09  7.47346E-09  6.32221E-09  5.09338E-09
   3.31944E-09  1.32070E-09  5.06061E-10 -1.16737E-09 -3.10921E-09 -4.60649E-09 -5.91401E-09 -7.62540E-09 -7.87291E-09 -8.62894E-09
  -9.03056E-09 -8.95433E-09 -8.98053E-09 -8.44624E-09 -8.07938E-09 -7.01787E-09 -6.16602E-09 -5.59417E-09 -4.79202E-09 -4.14722E-09
  -2.84638E-09 -3.04350E-09 -2.47039E-09 -2.46046E-09 -2.67440E-09 -2.14352E-09 -1.84791E-09 -1.40931E-09 -1.58023E-09 -9.33621E-10
  -1.39355E-09 -1.64609E-09 -1.59006E-09 -1.18852E-09 -1.66103E-09 -1.12484E-09 -1.33962E-09 -1.04519E-09 -1.61031E-09 -1.07586E-09
  -1.34658E-09 -6.42389E-10 -7.03072E-10 -7.05527E-10 -1.15134E-09 -1.07868E-09 -1.45202E-09 -1.17166E-09 -1.07222E-09 -1.21808E-09
  -1.15633E-09 -9.52955E-10 -1.22215E-09 -5.89017E-10 -1.42808E-09 -2.81565E-10 -6.98542E-10 -1.26952E-10 -1.04141E-09 -6.30130E-10
  -8.29415E-10 -4.02378E-10 -9.49018E-10 -4.71100E-10 -1.09953E-09 -5.40982E-10 -1.28779E-09 -7.35189E-10 -1.40519E-09 -1.23005E-09
  -1.76701E-09 -1.07006E-09 -1.52783E-09 -8.44541E-10 -1.57133E-09 -1.09335E-09 -1.49333E-09 -2.90639E-10 -1.28890E-09 -8.10404E-10
  -9.88971E-10  1.79772E-11 -9.71126E-10 -6.87769E-11 -4.37125E-10  5.29990E-11 -9.17048E-10  1.60568E-10 -1.30728E-09 -8.68944E-13
  -9.45303E-10 -4.94115E-10 -1.03506E-09  9.50427E-11 -1.26487E-09 -4.47129E-10 -1.67685E-09 -6.96132E-10 -1.00376E-09 -7.68329E-10
  -1.29109E-09 -9.48366E-10 -1.12150E-09 -5.30851E-10 -1.25690E-09 -7.85422E-10 -1.63837E-09 -7.32240E-10 -1.84110E-09 -9.00899E-10
  -1.81095E-09 -1.17064E-09 -1.55327E-09 -9.42311E-10 -1.34187E-09 -7.66642E-10 -1.65021E-09 -7.97511E-10 -1.95849E-09 -9.48807E-10
  -1.82269E-09 -6.94651E-10 -1.61546E-09 -1.14073E-09 -2.07421E-09 -7.86489E-10 -1.86844E-09 -1.32839E-09 -2.23520E-09 -1.31397E-09
  -1.82752E-09 -1.28756E-09 -2.18075E-09 -1.27426E-09 -2.39194E-09 -1.05881E-09 -2.43931E-09 -1.11603E-09 -2.29993E-09 -1.62420E-09
  -2.46043E-09 -1.30805E-09 -2.57266E-09 -1.63086E-09 -2.20293E-09 -2.01183E-09 -2.47081E-09 -1.83999E-09 -2.54896E-09 -1.85840E-09
  -2.28302E-09 -1.84271E-09 -2.36571E-09 -1.69032E-09 -2.03231E-09 -1.78352E-09 -2.73641E-09 -1.85820E-09 -2.88552E-09 -1.55250E-09
  -2.76395E-09 -1.58996E-09 -2.60783E-09 -2.25071E-09 -3.07024E-09 -2.33304E-09 -3.15234E-09 -2.28647E-09 -3.03525E-09 -2.29799E-09
  -2.77427E-09 -2.15633E-09 -2.69605E-09
 NY points of the fit to the data follow
   9.59828E-09  8.64651E-09  7.59812E-09  7.11160E-09  7.55097E-09  7.48599E-09  6.94062E-09  7.18377E-09  8.84620E-09  8.16449E-09
   6.97879E-09  7.04126E-09  6.89653E-09  7.19455E-09  7.79962E-09  7.32266E-09  7.37886E-09  8.01710E-09  8.22356E-09  6.72634E-09
   6.31869E-09  7.10073E-09  7.52466E-09  7.71748E-09  7.94246E-09  8.03909E-09  8.12020E-09  7.78285E-09  7.61100E-09  7.45328E-09
   7.41953E-09  7.15540E-09  6.78828E-09  6.29408E-09  6.05436E-09  5.81090E-09  5.54294E-09  5.31855E-09  5.26721E-09  5.15027E-09
   4.89254E-09  4.97138E-09  5.33483E-09  5.09138E-09  5.15454E-09  5.07567E-09  4.89108E-09  4.31560E-09  4.51412E-09  4.54093E-09
   4.82044E-09  5.07975E-09  5.22156E-09  5.52517E-09  6.07449E-09  5.90684E-09  5.87172E-09  6.51073E-09  6.82470E-09  6.39173E-09
   6.56806E-09  6.59133E-09  6.49763E-09  6.55189E-09  6.59611E-09  6.38336E-09  6.32133E-09  6.27387E-09  5.94155E-09  6.00501E-09
   6.50967E-09  6.82347E-09  6.98210E-09  6.97554E-09  7.70048E-09  8.60443E-09  9.35054E-09  9.44329E-09  9.46825E-09  9.46954E-09
   9.37661E-09  9.07086E-09  8.72005E-09  8.54416E-09  8.45509E-09  8.26330E-09  7.68762E-09  6.30432E-09  5.83781E-09  5.71697E-09
   5.51958E-09  5.34265E-09  5.39954E-09  5.37159E-09  5.07021E-09  5.08149E-09  5.09012E-09  4.88215E-09  4.84326E-09  4.79877E-09
   4.72542E-09  4.70535E-09  4.69378E-09  4.68184E-09  4.68042E-09  4.68652E-09  4.69692E-09  4.71102E-09  4.72661E-09  4.74357E-09
   4.76149E-09  4.77978E-09  4.79819E-09  4.81648E-09  4.83436E-09  4.85183E-09  4.86869E-09  4.88473E-09  4.89986E-09  4.91396E-09
   4.92692E-09  4.93868E-09  4.94918E-09  4.95831E-09  4.96601E-09  4.97224E-09  4.97692E-09  4.97997E-09  4.98137E-09  4.98107E-09
   4.97899E-09  4.97511E-09  4.96937E-09  4.96175E-09  4.95219E-09  4.94066E-09  4.92712E-09  4.91153E-09  4.89387E-09  4.87411E-09
   4.85223E-09  4.82819E-09  4.80199E-09  4.77363E-09  4.74308E-09  4.71034E-09  4.67548E-09  4.63860E-09  4.59986E-09  4.55942E-09
   4.51747E-09  4.47426E-09  4.43007E-09  4.38528E-09  4.34036E-09  4.29596E-09  4.25294E-09  4.21258E-09  4.17675E-09  4.14838E-09
   4.13232E-09  4.13716E-09  4.17960E-09  4.29645E-09  4.58492E-09  5.38673E-09  8.57079E-09  1.59026E-08  1.58428E-08  1.52339E-08
   1.52007E-08  1.52744E-08  1.50339E-08  1.50462E-08  1.47986E-08  1.49934E-08  1.57502E-08  1.47792E-08  6.28521E-09  4.14716E-09
   3.37687E-09  2.96925E-09  2.70086E-09  2.49890E-09  2.33336E-09  2.18976E-09  2.06038E-09  1.94073E-09  1.82804E-09  1.72054E-09
   1.61706E-09  1.51679E-09  1.41917E-09  1.32380E-09  1.23040E-09  1.13876E-09  1.04875E-09  9.60265E-10  8.73248E-10  7.87648E-10
   7.03451E-10  6.20648E-10  5.39247E-10  4.59261E-10  3.80715E-10  3.03639E-10  2.28066E-10  1.54035E-10  8.15875E-11  1.07772E-11
  -5.83643E-11 -1.25775E-10 -1.91405E-10 -2.55206E-10 -3.17125E-10 -3.77098E-10 -4.35071E-10 -4.90998E-10 -5.44813E-10 -5.96544E-10
  -6.46218E-10 -6.93899E-10 -7.39605E-10 -7.83394E-10 -8.25288E-10 -8.65350E-10 -9.03605E-10 -9.40094E-10 -9.74859E-10 -1.00794E-09
  -1.03937E-09 -1.06920E-09 -1.09746E-09 -1.12418E-09 -1.14942E-09 -1.17321E-09 -1.19558E-09 -1.21657E-09 -1.23623E-09 -1.25459E-09
  -1.27168E-09 -1.28756E-09 -1.30225E-09 -1.31579E-09 -1.32822E-09 -1.33957E-09 -1.34990E-09 -1.35922E-09 -1.36760E-09 -1.37504E-09
  -1.38161E-09 -1.38732E-09 -1.39225E-09 -1.39638E-09 -1.39977E-09 -1.40249E-09 -1.40455E-09 -1.40598E-09 -1.40683E-09 -1.40712E-09
  -1.40691E-09 -1.40624E-09 -1.40513E-09 -1.40363E-09 -1.40177E-09 -1.39958E-09 -1.39713E-09 -1.39440E-09 -1.39148E-09 -1.38839E-09
  -1.38516E-09 -1.38183E-09 -1.37845E-09 -1.37503E-09 -1.37165E-09 -1.36830E-09 -1.36505E-09 -1.36193E-09 -1.35896E-09 -1.35620E-09
  -1.35368E-09 -1.35144E-09 -1.34951E-09 -1.34793E-09 -1.34674E-09 -1.34597E-09 -1.34568E-09 -1.34586E-09 -1.34659E-09 -1.34790E-09
  -1.34981E-09 -1.35235E-09 -1.35552E-09 -1.35929E-09 -1.36365E-09 -1.36861E-09 -1.37414E-09 -1.38023E-09 -1.38688E-09 -1.39407E-09
  -1.40179E-09 -1.41003E-09 -1.41878E-09 -1.42803E-09 -1.43777E-09 -1.44798E-09 -1.45867E-09 -1.46981E-09 -1.48139E-09 -1.49340E-09
  -1.50584E-09 -1.51869E-09 -1.53195E-09 -1.54559E-09 -1.55961E-09 -1.57400E-09 -1.58876E-09 -1.60385E-09 -1.61928E-09 -1.63504E-09
  -1.65111E-09 -1.66748E-09 -1.68415E-09 -1.70110E-09 -1.71831E-09 -1.73579E-09 -1.75352E-09 -1.77148E-09 -1.78967E-09 -1.80808E-09
  -1.82670E-09 -1.84550E-09 -1.86449E-09 -1.88365E-09 -1.90298E-09 -1.92245E-09 -1.94207E-09 -1.96181E-09 -1.98168E-09 -2.00165E-09
  -2.02172E-09 -2.04186E-09 -2.06209E-09 -2.08238E-09 -2.10272E-09 -2.12311E-09 -2.14352E-09 -2.16396E-09 -2.18440E-09 -2.20484E-09
  -2.22527E-09 -2.24568E-09 -2.26605E-09 -2.28637E-09 -2.30664E-09 -2.32684E-09 -2.34697E-09 -2.36700E-09 -2.38694E-09 -2.40676E-09
  -2.42646E-09 -2.44603E-09 -2.46546E-09
 NY background values follow
    -1.883E-09   -1.827E-09   -1.771E-09   -1.715E-09   -1.659E-09   -1.603E-09   -1.547E-09   -1.492E-09   -1.436E-09   -1.381E-09
    -1.326E-09   -1.271E-09   -1.216E-09   -1.161E-09   -1.106E-09   -1.051E-09   -9.964E-10   -9.418E-10   -8.873E-10   -8.328E-10
    -7.784E-10   -7.240E-10   -6.697E-10   -6.155E-10   -5.613E-10   -5.072E-10   -4.531E-10   -3.991E-10   -3.451E-10   -2.912E-10
    -2.373E-10   -1.834E-10   -1.296E-10   -7.575E-11   -2.196E-11    3.180E-11    8.555E-11    1.393E-10    1.930E-10    2.467E-10
     3.004E-10    3.541E-10    4.078E-10    4.615E-10    5.153E-10    5.690E-10    6.227E-10    6.765E-10    7.302E-10    7.840E-10
     8.379E-10    8.917E-10    9.456E-10    9.995E-10    1.053E-09    1.107E-09    1.161E-09    1.216E-09    1.270E-09    1.324E-09
     1.378E-09    1.432E-09    1.487E-09    1.541E-09    1.596E-09    1.650E-09    1.705E-09    1.760E-09    1.814E-09    1.869E-09
     1.924E-09    1.979E-09    2.034E-09    2.090E-09    2.145E-09    2.200E-09    2.256E-09    2.311E-09    2.366E-09    2.421E-09
     2.476E-09    2.531E-09    2.586E-09    2.640E-09    2.694E-09    2.748E-09    2.801E-09    2.854E-09    2.907E-09    2.959E-09
     3.010E-09    3.061E-09    3.112E-09    3.161E-09    3.210E-09    3.259E-09    3.306E-09    3.353E-09    3.399E-09    3.445E-09
     3.489E-09    3.532E-09    3.575E-09    3.616E-09    3.657E-09    3.696E-09    3.734E-09    3.771E-09    3.807E-09    3.842E-09
     3.876E-09    3.908E-09    3.939E-09    3.968E-09    3.996E-09    4.023E-09    4.048E-09    4.072E-09    4.094E-09    4.114E-09
     4.133E-09    4.151E-09    4.166E-09    4.180E-09    4.192E-09    4.202E-09    4.211E-09    4.217E-09    4.222E-09    4.225E-09
     4.225E-09    4.224E-09    4.221E-09    4.215E-09    4.207E-09    4.198E-09    4.186E-09    4.171E-09    4.155E-09    4.136E-09
     4.115E-09    4.091E-09    4.065E-09    4.036E-09    4.005E-09    3.972E-09    3.936E-09    3.897E-09    3.856E-09    3.813E-09
     3.767E-09    3.719E-09    3.669E-09    3.617E-09    3.562E-09    3.506E-09    3.448E-09    3.388E-09    3.326E-09    3.262E-09
     3.197E-09    3.130E-09    3.062E-09    2.992E-09    2.921E-09    2.848E-09    2.774E-09    2.699E-09    2.623E-09    2.546E-09
     2.467E-09    2.388E-09    2.308E-09    2.227E-09    2.145E-09    2.062E-09    1.979E-09    1.895E-09    1.811E-09    1.726E-09
     1.641E-09    1.556E-09    1.470E-09    1.384E-09    1.298E-09    1.212E-09    1.126E-09    1.040E-09    9.541E-10    8.684E-10
     7.829E-10    6.978E-10    6.130E-10    5.287E-10    4.449E-10    3.617E-10    2.791E-10    1.972E-10    1.161E-10    3.580E-11
    -4.361E-11   -1.221E-10   -1.995E-10   -2.758E-10   -3.510E-10   -4.250E-10   -4.977E-10   -5.691E-10   -6.391E-10   -7.076E-10
    -7.746E-10   -8.399E-10   -9.036E-10   -9.656E-10   -1.026E-09   -1.084E-09   -1.141E-09   -1.195E-09   -1.248E-09   -1.298E-09
    -1.346E-09   -1.393E-09   -1.437E-09   -1.480E-09   -1.521E-09   -1.560E-09   -1.597E-09   -1.633E-09   -1.667E-09   -1.699E-09
    -1.729E-09   -1.758E-09   -1.786E-09   -1.812E-09   -1.836E-09   -1.859E-09   -1.881E-09   -1.901E-09   -1.920E-09   -1.938E-09
    -1.954E-09   -1.970E-09   -1.984E-09   -1.997E-09   -2.008E-09   -2.019E-09   -2.029E-09   -2.038E-09   -2.046E-09   -2.052E-09
    -2.058E-09   -2.064E-09   -2.068E-09   -2.072E-09   -2.075E-09   -2.077E-09   -2.078E-09   -2.079E-09   -2.080E-09   -2.080E-09
    -2.079E-09   -2.078E-09   -2.076E-09   -2.074E-09   -2.072E-09   -2.070E-09   -2.067E-09   -2.064E-09   -2.060E-09   -2.057E-09
    -2.053E-09   -2.049E-09   -2.046E-09   -2.042E-09   -2.038E-09   -2.034E-09   -2.031E-09   -2.027E-09   -2.024E-09   -2.021E-09
    -2.018E-09   -2.015E-09   -2.013E-09   -2.011E-09   -2.010E-09   -2.008E-09   -2.008E-09   -2.008E-09   -2.008E-09   -2.009E-09
    -2.011E-09   -2.013E-09   -2.016E-09   -2.019E-09   -2.023E-09   -2.028E-09   -2.033E-09   -2.039E-09   -2.045E-09   -2.052E-09
    -2.059E-09   -2.067E-09   -2.076E-09   -2.085E-09   -2.094E-09   -2.104E-09   -2.114E-09   -2.125E-09   -2.136E-09   -2.148E-09
    -2.160E-09   -2.173E-09   -2.186E-09   -2.199E-09   -2.213E-09   -2.227E-09   -2.241E-09   -2.256E-09   -2.271E-09   -2.286E-09
    -2.302E-09   -2.318E-09   -2.335E-09   -2.351E-09   -2.368E-09   -2.385E-09   -2.403E-09   -2.420E-09   -2.438E-09   -2.456E-09
    -2.475E-09   -2.493E-09   -2.512E-09   -2.531E-09   -2.550E-09   -2.569E-09   -2.588E-09   -2.607E-09   -2.627E-09   -2.647E-09
    -2.666E-09   -2.686E-09   -2.706E-09   -2.726E-09   -2.746E-09   -2.766E-09   -2.786E-09   -2.806E-09   -2.826E-09   -2.847E-09
    -2.867E-09   -2.887E-09   -2.907E-09   -2.927E-09   -2.947E-09   -2.967E-09   -2.986E-09   -3.006E-09   -3.026E-09   -3.045E-09
    -3.064E-09   -3.084E-09   -3.103E-09
 Asp      Conc. = 1.04E-09
  -7.51688E-10 -9.41045E-10 -9.18370E-10 -1.05059E-09 -1.05646E-09 -1.07431E-09 -1.17894E-09 -1.26191E-09 -1.26663E-09 -1.24356E-09
  -1.20812E-09 -1.16633E-09 -1.12096E-09 -1.06970E-09 -1.01788E-09 -9.65531E-10 -9.12475E-10 -8.58800E-10 -8.04581E-10 -7.49872E-10
  -6.94708E-10 -6.39101E-10 -5.83030E-10 -5.26463E-10 -4.69331E-10 -4.11558E-10 -3.53000E-10 -2.93486E-10 -2.32749E-10 -1.70411E-10
  -1.05917E-10 -3.83741E-11  3.37260E-11  1.13176E-10  2.06110E-10  3.29017E-10  5.10807E-10  5.86894E-10  7.22342E-10  7.41740E-10
   7.87803E-10  8.84049E-10  1.12710E-09  1.38164E-09  1.79465E-09  2.08870E-09  2.01473E-09  1.90403E-09  2.25771E-09  2.24654E-09
   2.30913E-09  2.50483E-09  2.60090E-09  2.50460E-09  2.47925E-09  2.26807E-09  1.94960E-09  2.02721E-09  2.20225E-09  1.95185E-09
   1.89728E-09  1.93428E-09  1.84518E-09  1.85347E-09  1.95544E-09  2.02619E-09  1.98658E-09  1.98923E-09  2.01125E-09  2.04318E-09
   2.08102E-09  2.12273E-09  2.16715E-09  2.21360E-09  2.26155E-09  2.31066E-09  2.36067E-09  2.41134E-09  2.46254E-09  2.51410E-09
   2.56593E-09  2.61792E-09  2.66998E-09  2.72204E-09  2.77402E-09  2.82586E-09  2.87751E-09  2.92889E-09  2.97996E-09  3.03067E-09
   3.08097E-09  3.13080E-09  3.18013E-09  3.22891E-09  3.27709E-09  3.32464E-09  3.37151E-09  3.41765E-09  3.46303E-09  3.50761E-09
   3.55134E-09  3.59418E-09  3.63611E-09  3.67706E-09  3.71702E-09  3.75594E-09  3.79377E-09  3.83048E-09  3.86604E-09  3.90041E-09
   3.93353E-09  3.96539E-09  3.99595E-09  4.02515E-09  4.05297E-09  4.07937E-09  4.10430E-09  4.12774E-09  4.14965E-09  4.16997E-09
   4.18870E-09  4.20577E-09  4.22117E-09  4.23484E-09  4.24675E-09  4.25687E-09  4.26516E-09  4.27157E-09  4.27608E-09  4.27865E-09
   4.27924E-09  4.27782E-09  4.27435E-09  4.26878E-09  4.26109E-09  4.25125E-09  4.23920E-09  4.22492E-09  4.20837E-09  4.18953E-09
   4.16835E-09  4.14479E-09  4.11882E-09  4.09043E-09  4.05956E-09  4.02618E-09  3.99030E-09  3.95198E-09  3.91130E-09  3.86832E-09
   3.82314E-09  3.77584E-09  3.72650E-09  3.67524E-09  3.62217E-09  3.56742E-09  3.51117E-09  3.45362E-09  3.39508E-09  3.33596E-09
   3.27695E-09  3.21919E-09  3.16488E-09  3.11882E-09  3.09368E-09  3.13436E-09  3.48960E-09  4.31730E-09  4.23575E-09  4.09438E-09
   4.02325E-09  3.96209E-09  3.86310E-09  3.79300E-09  3.69171E-09  3.64600E-09  3.66949E-09  3.44257E-09  2.32407E-09  1.99221E-09
   1.82308E-09  1.69775E-09  1.58930E-09  1.48890E-09  1.39291E-09  1.29961E-09  1.20808E-09  1.11783E-09  1.02856E-09  9.40106E-10
   8.52384E-10  7.65340E-10  6.78964E-10  5.93262E-10  5.08257E-10  4.23971E-10  3.40445E-10  2.57730E-10  1.75868E-10  9.49049E-11
   1.49024E-11 -6.40901E-11 -1.42015E-10 -2.18814E-10 -2.94427E-10 -3.68795E-10 -4.41859E-10 -5.13558E-10 -5.83833E-10 -6.52611E-10
  -7.19849E-10 -7.85472E-10 -8.49418E-10 -9.11630E-10 -9.72046E-10 -1.03060E-09 -1.08722E-09 -1.14186E-09 -1.19445E-09 -1.24501E-09
  -1.29357E-09 -1.34018E-09 -1.38487E-09 -1.42767E-09 -1.46862E-09 -1.50778E-09 -1.54516E-09 -1.58080E-09 -1.61475E-09 -1.64704E-09
  -1.67772E-09 -1.70681E-09 -1.73435E-09 -1.76038E-09 -1.78495E-09 -1.80808E-09 -1.82982E-09 -1.85019E-09 -1.86924E-09 -1.88701E-09
  -1.90353E-09 -1.91885E-09 -1.93299E-09 -1.94599E-09 -1.95789E-09 -1.96874E-09 -1.97856E-09 -1.98739E-09 -1.99528E-09 -2.00225E-09
  -2.00836E-09 -2.01361E-09 -2.01809E-09 -2.02178E-09 -2.02474E-09 -2.02703E-09 -2.02867E-09 -2.02968E-09 -2.03012E-09 -2.03002E-09
  -2.02941E-09 -2.02835E-09 -2.02685E-09 -2.02497E-09 -2.02273E-09 -2.02017E-09 -2.01734E-09 -2.01425E-09 -2.01097E-09 -2.00752E-09
  -2.00394E-09 -2.00026E-09 -1.99653E-09 -1.99277E-09 -1.98905E-09 -1.98536E-09 -1.98178E-09 -1.97832E-09 -1.97503E-09 -1.97194E-09
  -1.96910E-09 -1.96653E-09 -1.96429E-09 -1.96238E-09 -1.96088E-09 -1.95980E-09 -1.95919E-09 -1.95906E-09 -1.95948E-09 -1.96049E-09
  -1.96209E-09 -1.96433E-09 -1.96719E-09 -1.97065E-09 -1.97472E-09 -1.97938E-09 -1.98460E-09 -1.99040E-09 -1.99675E-09 -2.00364E-09
  -2.01107E-09 -2.01901E-09 -2.02747E-09 -2.03643E-09 -2.04587E-09 -2.05580E-09 -2.06619E-09 -2.07704E-09 -2.08833E-09 -2.10005E-09
  -2.11220E-09 -2.12476E-09 -2.13773E-09 -2.15108E-09 -2.16481E-09 -2.17892E-09 -2.19338E-09 -2.20818E-09 -2.22332E-09 -2.23879E-09
  -2.25458E-09 -2.27066E-09 -2.28703E-09 -2.30369E-09 -2.32062E-09 -2.33780E-09 -2.35524E-09 -2.37291E-09 -2.39082E-09 -2.40893E-09
  -2.42725E-09 -2.44577E-09 -2.46446E-09 -2.48333E-09 -2.50236E-09 -2.52154E-09 -2.54087E-09 -2.56031E-09 -2.57988E-09 -2.59955E-09
  -2.61932E-09 -2.63917E-09 -2.65910E-09 -2.67909E-09 -2.69912E-09 -2.71920E-09 -2.73931E-09 -2.75945E-09 -2.77958E-09 -2.79972E-09
  -2.81984E-09 -2.83994E-09 -2.86000E-09 -2.88001E-09 -2.89997E-09 -2.91985E-09 -2.93967E-09 -2.95938E-09 -2.97900E-09 -2.99851E-09
  -3.01788E-09 -3.03713E-09 -3.05624E-09
 GABA     Conc. = 6.31E-10
  -1.81666E-09 -1.75957E-09 -1.70254E-09 -1.64556E-09 -1.58862E-09 -1.53171E-09 -1.47481E-09 -1.41790E-09 -1.36098E-09 -1.30397E-09
  -1.24694E-09 -1.18976E-09 -1.13241E-09 -1.07497E-09 -1.01713E-09 -9.59053E-10 -9.00757E-10 -8.41705E-10 -7.82023E-10 -7.21685E-10
  -6.60065E-10 -5.96908E-10 -5.31670E-10 -4.63451E-10 -3.90680E-10 -3.11186E-10 -2.19681E-10 -1.04477E-10  6.71639E-11  3.77316E-10
   3.86647E-10  4.94975E-10  1.02126E-09  1.11590E-09  1.07292E-09  1.35550E-09  1.48106E-09  1.52395E-09  1.58433E-09  1.59276E-09
   1.34185E-09  1.44571E-09  1.57745E-09  1.13306E-09  1.03772E-09  1.18805E-09  1.01794E-09  9.51422E-10  9.50367E-10  9.75106E-10
   1.01315E-09  1.05834E-09  1.10887E-09  1.16398E-09  1.22312E-09  1.28638E-09  1.35483E-09  1.43026E-09  1.51611E-09  1.62104E-09
   1.76511E-09  2.01143E-09  2.24444E-09  2.24374E-09  2.53774E-09  2.86881E-09  2.82381E-09  2.87836E-09  3.03497E-09  3.08642E-09
   3.12297E-09  3.15496E-09  3.03757E-09  2.85922E-09  3.01527E-09  2.88599E-09  2.58022E-09  2.65612E-09  2.69284E-09  2.70560E-09
   2.80346E-09  2.76801E-09  2.90176E-09  3.19782E-09  3.19529E-09  3.27720E-09  3.53991E-09  3.60925E-09  3.67315E-09  3.83503E-09
   3.87052E-09  3.81955E-09  3.98737E-09  4.03419E-09  3.81349E-09  3.90110E-09  3.97035E-09  3.80868E-09  3.79496E-09  3.81619E-09
   3.78918E-09  3.78441E-09  3.79366E-09  3.81071E-09  3.83245E-09  3.85685E-09  3.88290E-09  3.90987E-09  3.93724E-09  3.96475E-09
   3.99211E-09  4.01889E-09  4.04498E-09  4.07024E-09  4.09449E-09  4.11778E-09  4.14000E-09  4.16098E-09  4.18066E-09  4.19898E-09
   4.21585E-09  4.23124E-09  4.24510E-09  4.25737E-09  4.26798E-09  4.27690E-09  4.28410E-09  4.28948E-09  4.29304E-09  4.29472E-09
   4.29448E-09  4.29227E-09  4.28807E-09  4.28182E-09  4.27348E-09  4.26303E-09  4.25041E-09  4.23558E-09  4.21851E-09  4.19916E-09
   4.17749E-09  4.15347E-09  4.12706E-09  4.09823E-09  4.06693E-09  4.03313E-09  3.99682E-09  3.95807E-09  3.91695E-09  3.87353E-09
   3.82787E-09  3.78006E-09  3.73017E-09  3.67830E-09  3.62454E-09  3.56898E-09  3.51177E-09  3.45305E-09  3.39301E-09  3.33194E-09
   3.27025E-09  3.20861E-09  3.14828E-09  3.09194E-09  3.04639E-09  3.03471E-09  3.17831E-09  3.70932E-09  3.64419E-09  3.52216E-09
   3.44496E-09  3.37895E-09  3.28443E-09  3.21173E-09  3.11524E-09  3.05092E-09  3.03027E-09  2.92758E-09  2.16875E-09  1.91264E-09
   1.77253E-09  1.66177E-09  1.56189E-09  1.46706E-09  1.37493E-09  1.28445E-09  1.19505E-09  1.10645E-09  1.01850E-09  9.31118E-10
   8.44275E-10  7.57964E-10  6.72207E-10  5.87030E-10  5.02476E-10  4.18581E-10  3.35394E-10  2.52976E-10  1.71376E-10  9.06445E-11
   1.08473E-11 -6.79620E-11 -1.45723E-10 -2.22375E-10 -2.97856E-10 -3.72104E-10 -4.45059E-10 -5.16661E-10 -5.86847E-10 -6.55544E-10
  -7.22707E-10 -7.88262E-10 -8.52147E-10 -9.14302E-10 -9.74666E-10 -1.03317E-09 -1.08974E-09 -1.14435E-09 -1.19690E-09 -1.24743E-09
  -1.29595E-09 -1.34254E-09 -1.38719E-09 -1.42997E-09 -1.47090E-09 -1.51003E-09 -1.54739E-09 -1.58302E-09 -1.61695E-09 -1.64922E-09
