 LCModel (Version 6.3-1R) Copyright: S.W. Provencher.          Ref.: Magn. Reson. Med. 30:672-679 (1993).                
 onepulse 30x14_ftSpec_smooth_lcm
 26 lines in following concentration table = NCONC+1
    Conc.  %SD /Cr+PCr  Metabolite                                         
    0.000 999%   0.000 Ala                                                 
    0.000 999%   0.000 Asp                                                 
 2.10E-10 110%   1.000 Cr                                                  
 4.12E-11 999%   0.196 GABA                                                
    0.000 999%   0.000 Glc                                                 
 4.79E-11 984%   0.228 Gln                                                 
    0.000 999%   0.000 Glu                                                 
    0.000 999%   0.000 Glyc                                                
    0.000 999%   0.000 GPC                                                 
 8.47E-10  35%   4.029 GSH                                                 
 1.51E-09  13%   7.191 Ins                                                 
    0.000 999%   0.000 Lac                                                 
 5.65E-11 344%   0.269 NAAG                                                
 4.06E-10  64%   1.931 NAA                                                 
    0.000 999%   0.000 PCh                                                 
    0.000 999%   0.000 PCr                                                 
 1.95E-09  22%   9.263 PE                                                  
 8.60E-11 129%   0.409 Scyllo                                              
 1.69E-09  45%   8.055 Ser                                                 
    0.000 999%   0.000 Tau                                                 
    0.000 999%   0.000 GPC+PCh                                             
 4.63E-10  36%   2.200 NAA+NAAG                                            
 1.51E-09  13%   7.191 Ins+Glyc                                            
 2.10E-10 110%   1.000 Cr+PCr                                              
 4.79E-11 984%   0.228 Glu+Gln                                             
   6 lines in following misc. output table
  FWHM = 0.123 ppm    S/N =   3                                            
  Data shift = 0.436 ppm                                                   
  Ph:  68 deg      -4.9 deg/ppm                                            
  alphaB,S = 1.6E+00,   1.2E+01                                            
    9 spline knots.   Ns = 5(1)                                            
  (12) 6 infls.   (11) 3 extrs.                                            
  363 points on ppm-axis = NY
      4.250000     4.238821     4.227641     4.216462     4.205282     4.194103     4.182923     4.171744     4.160564     4.149385
      4.138206     4.127026     4.115847     4.104667     4.093488     4.082308     4.071129     4.059949     4.048770     4.037591
      4.026411     4.015232     4.004052     3.992873     3.981693     3.970514     3.959334     3.948155     3.936975     3.925796
      3.914617     3.903437     3.892258     3.881078     3.869899     3.858719     3.847540     3.836360     3.825181     3.814002
      3.802822     3.791643     3.780463     3.769284     3.758104     3.746925     3.735745     3.724566     3.713387     3.702207
      3.691028     3.679848     3.668669     3.657489     3.646310     3.635130     3.623951     3.612772     3.601592     3.590413
      3.579233     3.568054     3.556874     3.545695     3.534515     3.523336     3.512156     3.500977     3.489798     3.478618
      3.467439     3.456259     3.445080     3.433900     3.422721     3.411541     3.400362     3.389183     3.378003     3.366824
      3.355644     3.344465     3.333285     3.322106     3.310926     3.299747     3.288568     3.277388     3.266209     3.255029
      3.243850     3.232670     3.221491     3.210311     3.199132     3.187953     3.176773     3.165594     3.154414     3.143235
      3.132055     3.120876     3.109696     3.098517     3.087337     3.076158     3.064979     3.053799     3.042620     3.031440
      3.020261     3.009081     2.997902     2.986722     2.975543     2.964364     2.953184     2.942005     2.930825     2.919646
      2.908466     2.897287     2.886107     2.874928     2.863749     2.852569     2.841390     2.830210     2.819031     2.807851
      2.796672     2.785492     2.774313     2.763134     2.751954     2.740775     2.729595     2.718416     2.707236     2.696057
      2.684877     2.673698     2.662519     2.651339     2.640160     2.628980     2.617801     2.606621     2.595442     2.584262
      2.573083     2.561903     2.550724     2.539545     2.528365     2.517186     2.506006     2.494827     2.483647     2.472468
      2.461288     2.450109     2.438930     2.427750     2.416571     2.405391     2.394212     2.383032     2.371853     2.360673
      2.349494     2.338315     2.327135     2.315956     2.304776     2.293597     2.282417     2.271238     2.260058     2.248879
      2.237700     2.226520     2.215341     2.204161     2.192982     2.181802     2.170623     2.159443     2.148264     2.137084
      2.125905     2.114726     2.103546     2.092367     2.081187     2.070008     2.058828     2.047649     2.036469     2.025290
      2.014111     2.002931     1.991752     1.980572     1.969393     1.958213     1.947034     1.935854     1.924675     1.913496
      1.902316     1.891137     1.879957     1.868778     1.857598     1.846419     1.835239     1.824060     1.812881     1.801701
      1.790522     1.779342     1.768163     1.756983     1.745804     1.734624     1.723445     1.712265     1.701086     1.689907
      1.678727     1.667548     1.656368     1.645189     1.634009     1.622830     1.611650     1.600471     1.589292     1.578112
      1.566933     1.555753     1.544574     1.533394     1.522215     1.511035     1.499856     1.488677     1.477497     1.466318
      1.455138     1.443959     1.432779     1.421600     1.410420     1.399241     1.388062     1.376882     1.365703     1.354523
      1.343344     1.332164     1.320985     1.309805     1.298626     1.287446     1.276267     1.265088     1.253908     1.242729
      1.231549     1.220370     1.209190     1.198011     1.186831     1.175652     1.164473     1.153293     1.142114     1.130934
      1.119755     1.108575     1.097396     1.086216     1.075037     1.063858     1.052678     1.041499     1.030319     1.019140
      1.007960     0.996781     0.985601     0.974422     0.963243     0.952063     0.940884     0.929704     0.918525     0.907345
      0.896166     0.884986     0.873807     0.862628     0.851448     0.840269     0.829089     0.817910     0.806730     0.795551
      0.784371     0.773192     0.762012     0.750833     0.739654     0.728474     0.717295     0.706115     0.694936     0.683756
      0.672577     0.661397     0.650218     0.639039     0.627859     0.616680     0.605500     0.594321     0.583141     0.571962
      0.560782     0.549603     0.538424     0.527244     0.516065     0.504885     0.493706     0.482526     0.471347     0.460167
      0.448988     0.437809     0.426629     0.415450     0.404270     0.393091     0.381911     0.370732     0.359552     0.348373
      0.337193     0.326014     0.314835     0.303655     0.292476     0.281296     0.270117     0.258937     0.247758     0.236578
      0.225399     0.214220     0.203040
 NY phased data points follow
   5.19047E-09  6.17973E-09  5.28245E-09  5.82975E-09  5.79093E-09  6.55853E-09  6.29973E-09  7.00515E-09  6.67308E-09  6.71708E-09
   5.83108E-09  6.32577E-09  6.33279E-09  5.73680E-09  5.10228E-09  5.66905E-09  5.64932E-09  6.21755E-09  6.17726E-09  6.22954E-09
   5.59831E-09  5.83937E-09  5.83298E-09  5.81399E-09  6.89704E-09  7.17215E-09  7.22828E-09  7.25527E-09  6.45020E-09  5.52849E-09
   5.33396E-09  5.36989E-09  5.09238E-09  4.99983E-09  5.10801E-09  4.60378E-09  4.89347E-09  4.39480E-09  4.39984E-09  3.82545E-09
   4.37556E-09  3.87819E-09  3.91654E-09  3.82031E-09  3.91929E-09  3.77586E-09  4.09113E-09  3.42768E-09  3.77217E-09  3.15137E-09
   3.53606E-09  3.70302E-09  3.93042E-09  3.50091E-09  4.97623E-09  5.04359E-09  6.71018E-09  6.85068E-09  6.96324E-09  6.03295E-09
   6.05295E-09  5.02248E-09  4.89688E-09  4.39189E-09  4.47323E-09  3.56842E-09  3.81998E-09  3.30263E-09  3.70415E-09  2.59352E-09
   3.61389E-09  4.62747E-09  7.10728E-09  8.25149E-09  9.39694E-09  8.33839E-09  8.54636E-09  7.90214E-09  8.32389E-09  7.01331E-09
   7.25962E-09  6.33635E-09  7.45887E-09  6.88146E-09  7.13194E-09  6.40934E-09  6.53954E-09  5.72943E-09  6.13090E-09  5.14828E-09
   5.87979E-09  5.25025E-09  5.47591E-09  4.39610E-09  5.32755E-09  4.48790E-09  5.76521E-09  4.37158E-09  5.25906E-09  4.40604E-09
   5.11937E-09  4.14190E-09  4.14655E-09  3.31395E-09  3.38123E-09  3.47994E-09  3.83063E-09  3.29237E-09  3.70868E-09  3.27528E-09
   3.93612E-09  3.43202E-09  4.22661E-09  3.72420E-09  4.19386E-09  3.37802E-09  3.99259E-09  2.86144E-09  2.75307E-09  2.10725E-09
   2.51463E-09  2.52522E-09  3.06033E-09  2.26679E-09  2.71562E-09  2.43358E-09  2.99883E-09  2.26407E-09  3.14753E-09  2.41933E-09
   2.75872E-09  1.98489E-09  3.19010E-09  3.02920E-09  4.05517E-09  3.63026E-09  4.06048E-09  3.45089E-09  4.19778E-09  4.26285E-09
   5.44242E-09  4.58545E-09  5.12153E-09  4.80307E-09  5.45693E-09  4.36025E-09  5.15708E-09  4.44823E-09  4.90405E-09  4.14421E-09
   5.31076E-09  4.41312E-09  4.84594E-09  4.12040E-09  4.99089E-09  3.88944E-09  4.87930E-09  3.98371E-09  4.45646E-09  3.66327E-09
   3.70756E-09  2.25788E-09  3.48357E-09  4.80605E-09  7.92854E-09  9.81706E-09  1.13648E-08  1.10246E-08  1.12688E-08  1.09426E-08
   1.16120E-08  1.06652E-08  1.16216E-08  1.09160E-08  1.13779E-08  1.06747E-08  1.12605E-08  1.02967E-08  1.08927E-08  9.76398E-09
   9.88809E-09  9.08110E-09  8.53659E-09  7.58727E-09  7.22615E-09  5.66384E-09  5.51870E-09  3.25040E-09  3.22057E-09  1.68840E-09
   9.94078E-10 -7.64184E-10 -1.51453E-09 -2.77455E-09 -3.37566E-09 -4.23824E-09 -3.78973E-09 -5.16278E-09 -4.82594E-09 -5.56207E-09
  -4.65661E-09 -4.44754E-09 -3.51997E-09 -3.45648E-09 -2.82731E-09 -2.54155E-09 -1.33022E-09 -1.68600E-09 -1.19815E-09 -1.45373E-09
  -5.35079E-10 -1.51380E-09 -7.60152E-10 -1.53641E-09 -9.01039E-10 -7.38409E-10 -6.88812E-10 -7.94968E-10 -8.22709E-10 -4.38922E-10
  -3.36873E-10 -1.05017E-09 -4.11637E-10 -7.17392E-10 -5.40821E-10 -4.97320E-10 -5.01591E-10 -7.13489E-10 -7.00878E-10 -8.99158E-10
  -4.89635E-10 -7.30597E-10  1.48880E-10 -6.34221E-10 -1.47156E-11 -5.57091E-10 -5.98563E-10 -1.04196E-09 -5.53093E-10 -1.03047E-09
  -7.20148E-10 -1.01758E-09 -9.24548E-10 -5.16394E-10 -7.13065E-10 -6.06673E-10 -2.70714E-10 -2.71142E-10 -8.42839E-12 -1.68853E-10
  -3.90856E-11 -3.51159E-10 -3.80481E-10 -1.66940E-10 -5.17250E-10 -3.80964E-10 -4.78005E-10 -9.76096E-10 -8.96867E-10 -1.27407E-09
  -9.30417E-10 -1.12092E-09 -1.14063E-09 -1.05063E-09 -1.53367E-09 -8.73850E-10 -1.17641E-09 -1.21415E-09 -5.67192E-10 -8.94888E-10
  -5.83771E-10 -7.68635E-10 -1.39320E-11 -1.02778E-10 -3.66433E-10 -7.49607E-11 -3.30599E-10 -2.23987E-10 -3.45077E-10 -3.06677E-10
  -3.93285E-10 -4.89881E-10 -2.73392E-10 -6.22103E-10 -4.29711E-10 -1.28876E-10 -3.43960E-10 -2.95785E-10  7.22686E-11 -3.53120E-10
  -5.12616E-10 -4.36265E-10 -2.83847E-10 -1.79695E-10 -2.38873E-10  7.15856E-11 -6.61221E-10 -5.77974E-10 -5.89064E-10 -4.57122E-10
  -8.31408E-10 -3.34505E-10 -7.31100E-10 -5.30061E-10 -6.06270E-10 -7.00525E-10 -9.94481E-10 -5.80463E-10 -7.47735E-10 -3.36773E-10
  -8.20129E-10 -1.51027E-10 -8.57680E-10 -7.90159E-10 -7.53430E-10 -8.44155E-10 -1.02311E-09 -8.84824E-10 -1.25862E-09 -5.34272E-10
  -1.09058E-09 -7.77683E-10 -1.13911E-09 -7.35385E-10 -8.01981E-10 -6.94591E-10 -1.01887E-09 -5.92942E-10 -8.72906E-10 -9.81032E-10
  -1.30397E-09 -6.81037E-10 -8.01234E-10 -6.99016E-10 -1.03265E-09 -4.86984E-10 -9.16154E-10 -1.11345E-09 -9.14092E-10 -8.81114E-10
  -7.76905E-10 -1.06189E-09 -8.48118E-10 -6.24996E-10 -1.05917E-09 -6.84612E-10 -9.81999E-10 -9.95611E-10 -1.39113E-09 -3.69659E-10
  -1.09874E-09 -8.18261E-10 -8.45339E-10 -9.59302E-10 -1.00035E-09 -1.19399E-09 -1.07063E-09 -8.35697E-10 -1.30314E-09 -9.80900E-10
  -1.39410E-09 -6.90504E-10 -1.23994E-09
 NY points of the fit to the data follow
   6.40177E-09  5.47171E-09  5.33024E-09  5.40600E-09  6.05734E-09  6.49301E-09  6.09444E-09  6.66527E-09  7.75039E-09  6.62131E-09
   5.69373E-09  5.56567E-09  5.64593E-09  6.16841E-09  6.22301E-09  5.77987E-09  5.43788E-09  6.45700E-09  6.32805E-09  4.95512E-09
   5.07583E-09  5.92371E-09  6.69587E-09  6.74343E-09  6.78622E-09  7.08475E-09  6.89355E-09  6.51247E-09  6.02970E-09  5.96506E-09
   5.94716E-09  5.77078E-09  5.21474E-09  4.60265E-09  4.70537E-09  4.21530E-09  4.10405E-09  4.28817E-09  4.25863E-09  4.32953E-09
   4.45447E-09  4.36733E-09  3.97057E-09  3.90076E-09  3.74698E-09  3.45488E-09  3.70622E-09  3.56516E-09  3.76756E-09  4.14434E-09
   4.63401E-09  4.88475E-09  4.94199E-09  5.24627E-09  5.41378E-09  5.26588E-09  5.45119E-09  5.58340E-09  5.50788E-09  5.36165E-09
   5.25242E-09  5.00930E-09  4.98007E-09  5.01849E-09  4.80089E-09  4.78224E-09  5.00554E-09  5.01631E-09  5.04562E-09  5.37858E-09
   5.72780E-09  5.77652E-09  6.13306E-09  6.39919E-09  6.48875E-09  6.91640E-09  7.48310E-09  8.29256E-09  7.89430E-09  7.44452E-09
   7.08842E-09  6.83535E-09  6.75607E-09  6.33980E-09  6.10659E-09  6.08359E-09  5.81056E-09  5.12042E-09  3.92314E-09  3.85462E-09
   3.91851E-09  3.99477E-09  4.06331E-09  4.10742E-09  4.14079E-09  4.18380E-09  4.21027E-09  4.22791E-09  4.25084E-09  4.26472E-09
   4.27810E-09  4.29187E-09  4.30114E-09  4.30786E-09  4.31291E-09  4.31618E-09  4.31748E-09  4.31689E-09  4.31441E-09  4.31013E-09
   4.30417E-09  4.29655E-09  4.28738E-09  4.27668E-09  4.26454E-09  4.25101E-09  4.23613E-09  4.21995E-09  4.20249E-09  4.18386E-09
   4.16396E-09  4.14294E-09  4.12080E-09  4.09757E-09  4.07330E-09  4.04801E-09  4.02173E-09  3.99450E-09  3.96634E-09  3.93729E-09
   3.90736E-09  3.87660E-09  3.84502E-09  3.81266E-09  3.77954E-09  3.74569E-09  3.71112E-09  3.67588E-09  3.64000E-09  3.60350E-09
   3.56641E-09  3.52876E-09  3.49059E-09  3.45195E-09  3.41286E-09  3.37336E-09  3.33353E-09  3.29344E-09  3.25312E-09  3.21271E-09
   3.17231E-09  3.13204E-09  3.09210E-09  3.05277E-09  3.01432E-09  2.97723E-09  2.94219E-09  2.91016E-09  2.88260E-09  2.86195E-09
   2.85221E-09  2.86078E-09  2.90235E-09  3.01037E-09  3.27755E-09  4.05762E-09  7.33513E-09  1.16004E-08  1.24958E-08  1.17139E-08
   1.14891E-08  1.15621E-08  1.15087E-08  1.14437E-08  1.16016E-08  1.23419E-08  1.30259E-08  1.06719E-08  6.12770E-09  3.77818E-09
   2.99744E-09  2.61028E-09  2.36805E-09  2.19466E-09  2.05929E-09  1.94715E-09  1.85023E-09  1.76384E-09  1.68505E-09  1.61193E-09
   1.54316E-09  1.47784E-09  1.41528E-09  1.35500E-09  1.29663E-09  1.23987E-09  1.18451E-09  1.13039E-09  1.07735E-09  1.02531E-09
   9.74159E-10  9.23832E-10  8.74275E-10  8.25446E-10  7.77299E-10  7.29807E-10  6.82941E-10  6.36698E-10  5.91042E-10  5.45965E-10
   5.01459E-10  4.57522E-10  4.14142E-10  3.71320E-10  3.29039E-10  2.87310E-10  2.46137E-10  2.05512E-10  1.65430E-10  1.25905E-10
   8.69369E-11  4.85278E-11  1.06771E-11 -2.66149E-11 -6.33456E-11 -9.94913E-11 -1.35074E-10 -1.70080E-10 -2.04495E-10 -2.38326E-10
  -2.71567E-10 -3.04212E-10 -3.36255E-10 -3.67699E-10 -3.98533E-10 -4.28752E-10 -4.58359E-10 -4.87346E-10 -5.15710E-10 -5.43441E-10
  -5.70546E-10 -5.97015E-10 -6.22844E-10 -6.48038E-10 -6.72601E-10 -6.96540E-10 -7.19862E-10 -7.42571E-10 -7.64674E-10 -7.86175E-10
  -8.07081E-10 -8.27398E-10 -8.47132E-10 -8.66287E-10 -8.84869E-10 -9.02884E-10 -9.20338E-10 -9.37234E-10 -9.53580E-10 -9.69379E-10
  -9.84637E-10 -9.99362E-10 -1.01356E-09 -1.02722E-09 -1.04037E-09 -1.05300E-09 -1.06512E-09 -1.07674E-09 -1.08785E-09 -1.09847E-09
  -1.10859E-09 -1.11823E-09 -1.12739E-09 -1.13606E-09 -1.14426E-09 -1.15199E-09 -1.15925E-09 -1.16605E-09 -1.17239E-09 -1.17827E-09
  -1.18371E-09 -1.18869E-09 -1.19323E-09 -1.19733E-09 -1.20098E-09 -1.20420E-09 -1.20699E-09 -1.20935E-09 -1.21128E-09 -1.21279E-09
  -1.21387E-09 -1.21453E-09 -1.21478E-09 -1.21460E-09 -1.21402E-09 -1.21302E-09 -1.21161E-09 -1.20979E-09 -1.20756E-09 -1.20493E-09
  -1.20188E-09 -1.19844E-09 -1.19459E-09 -1.19033E-09 -1.18566E-09 -1.18057E-09 -1.17507E-09 -1.16914E-09 -1.16278E-09 -1.15600E-09
  -1.14877E-09 -1.14111E-09 -1.13300E-09 -1.12444E-09 -1.11543E-09 -1.10597E-09 -1.09604E-09 -1.08566E-09 -1.07480E-09 -1.06348E-09
  -1.05169E-09 -1.03942E-09 -1.02668E-09 -1.01345E-09 -9.99741E-10 -9.85543E-10 -9.70857E-10 -9.55678E-10 -9.40007E-10 -9.23838E-10
  -9.07173E-10 -8.90008E-10 -8.72339E-10 -8.54166E-10 -8.35489E-10 -8.16304E-10 -7.96608E-10 -7.76403E-10 -7.55687E-10 -7.34457E-10
  -7.12715E-10 -6.90456E-10 -6.67682E-10 -6.44392E-10 -6.20586E-10 -5.96261E-10 -5.71417E-10 -5.46057E-10 -5.20177E-10 -4.93779E-10
  -4.66862E-10 -4.39427E-10 -4.11474E-10 -3.83003E-10 -3.54014E-10 -3.24509E-10 -2.94488E-10 -2.63952E-10 -2.32902E-10 -2.01339E-10
  -1.69262E-10 -1.36676E-10 -1.03580E-10
 NY background values follow
     3.874E-09    3.928E-09    3.981E-09    4.033E-09    4.084E-09    4.134E-09    4.183E-09    4.231E-09    4.278E-09    4.324E-09
     4.369E-09    4.413E-09    4.456E-09    4.498E-09    4.540E-09    4.580E-09    4.619E-09    4.658E-09    4.695E-09    4.732E-09
     4.767E-09    4.802E-09    4.835E-09    4.868E-09    4.900E-09    4.931E-09    4.960E-09    4.989E-09    5.017E-09    5.044E-09
     5.070E-09    5.096E-09    5.120E-09    5.143E-09    5.165E-09    5.187E-09    5.207E-09    5.227E-09    5.245E-09    5.263E-09
     5.280E-09    5.296E-09    5.311E-09    5.325E-09    5.338E-09    5.350E-09    5.362E-09    5.372E-09    5.382E-09    5.390E-09
     5.398E-09    5.405E-09    5.411E-09    5.416E-09    5.420E-09    5.424E-09    5.426E-09    5.428E-09    5.429E-09    5.429E-09
     5.428E-09    5.426E-09    5.424E-09    5.420E-09    5.416E-09    5.411E-09    5.405E-09    5.399E-09    5.391E-09    5.383E-09
     5.374E-09    5.364E-09    5.353E-09    5.341E-09    5.329E-09    5.316E-09    5.302E-09    5.287E-09    5.272E-09    5.256E-09
     5.239E-09    5.221E-09    5.202E-09    5.183E-09    5.163E-09    5.142E-09    5.121E-09    5.099E-09    5.076E-09    5.052E-09
     5.027E-09    5.002E-09    4.976E-09    4.950E-09    4.923E-09    4.895E-09    4.866E-09    4.837E-09    4.807E-09    4.776E-09
     4.745E-09    4.712E-09    4.680E-09    4.646E-09    4.612E-09    4.578E-09    4.543E-09    4.507E-09    4.470E-09    4.433E-09
     4.395E-09    4.357E-09    4.318E-09    4.278E-09    4.238E-09    4.197E-09    4.156E-09    4.114E-09    4.072E-09    4.029E-09
     3.985E-09    3.941E-09    3.897E-09    3.851E-09    3.806E-09    3.759E-09    3.713E-09    3.666E-09    3.618E-09    3.570E-09
     3.521E-09    3.472E-09    3.423E-09    3.373E-09    3.323E-09    3.272E-09    3.221E-09    3.170E-09    3.118E-09    3.066E-09
     3.014E-09    2.961E-09    2.908E-09    2.855E-09    2.802E-09    2.748E-09    2.694E-09    2.640E-09    2.585E-09    2.530E-09
     2.475E-09    2.420E-09    2.365E-09    2.310E-09    2.254E-09    2.198E-09    2.142E-09    2.086E-09    2.030E-09    1.974E-09
     1.918E-09    1.862E-09    1.805E-09    1.749E-09    1.693E-09    1.636E-09    1.580E-09    1.523E-09    1.467E-09    1.411E-09
     1.354E-09    1.298E-09    1.242E-09    1.186E-09    1.130E-09    1.074E-09    1.019E-09    9.630E-10    9.076E-10    8.523E-10
     7.973E-10    7.424E-10    6.877E-10    6.332E-10    5.790E-10    5.249E-10    4.712E-10    4.176E-10    3.644E-10    3.114E-10
     2.587E-10    2.064E-10    1.543E-10    1.026E-10    5.117E-11    1.096E-13   -5.059E-11   -1.009E-10   -1.509E-10   -2.004E-10
    -2.496E-10   -2.983E-10   -3.467E-10   -3.946E-10   -4.420E-10   -4.891E-10   -5.356E-10   -5.817E-10   -6.273E-10   -6.724E-10
    -7.171E-10   -7.612E-10   -8.048E-10   -8.479E-10   -8.904E-10   -9.325E-10   -9.739E-10   -1.015E-09   -1.055E-09   -1.095E-09
    -1.134E-09   -1.173E-09   -1.211E-09   -1.248E-09   -1.285E-09   -1.321E-09   -1.357E-09   -1.392E-09   -1.426E-09   -1.460E-09
    -1.493E-09   -1.525E-09   -1.557E-09   -1.588E-09   -1.618E-09   -1.648E-09   -1.677E-09   -1.705E-09   -1.733E-09   -1.760E-09
    -1.786E-09   -1.812E-09   -1.836E-09   -1.861E-09   -1.884E-09   -1.907E-09   -1.929E-09   -1.950E-09   -1.971E-09   -1.991E-09
    -2.010E-09   -2.029E-09   -2.047E-09   -2.065E-09   -2.081E-09   -2.097E-09   -2.113E-09   -2.128E-09   -2.142E-09   -2.156E-09
    -2.169E-09   -2.181E-09   -2.193E-09   -2.204E-09   -2.215E-09   -2.225E-09   -2.235E-09   -2.244E-09   -2.252E-09   -2.260E-09
    -2.267E-09   -2.274E-09   -2.280E-09   -2.286E-09   -2.291E-09   -2.295E-09   -2.299E-09   -2.303E-09   -2.306E-09   -2.308E-09
    -2.310E-09   -2.312E-09   -2.312E-09   -2.313E-09   -2.313E-09   -2.312E-09   -2.311E-09   -2.310E-09   -2.308E-09   -2.305E-09
    -2.302E-09   -2.299E-09   -2.295E-09   -2.290E-09   -2.286E-09   -2.280E-09   -2.274E-09   -2.268E-09   -2.261E-09   -2.254E-09
    -2.247E-09   -2.239E-09   -2.230E-09   -2.221E-09   -2.212E-09   -2.202E-09   -2.191E-09   -2.180E-09   -2.169E-09   -2.157E-09
    -2.145E-09   -2.132E-09   -2.119E-09   -2.105E-09   -2.091E-09   -2.076E-09   -2.061E-09   -2.045E-09   -2.029E-09   -2.012E-09
    -1.995E-09   -1.977E-09   -1.959E-09   -1.940E-09   -1.920E-09   -1.901E-09   -1.880E-09   -1.859E-09   -1.838E-09   -1.816E-09
    -1.793E-09   -1.770E-09   -1.746E-09   -1.722E-09   -1.698E-09   -1.672E-09   -1.647E-09   -1.620E-09   -1.593E-09   -1.566E-09
    -1.538E-09   -1.510E-09   -1.480E-09   -1.451E-09   -1.421E-09   -1.390E-09   -1.359E-09   -1.327E-09   -1.295E-09   -1.262E-09
    -1.229E-09   -1.195E-09   -1.160E-09   -1.125E-09   -1.090E-09   -1.053E-09   -1.017E-09   -9.797E-10   -9.420E-10   -9.037E-10
    -8.650E-10   -8.257E-10   -7.858E-10
 Cr       Conc. = 2.10E-10
   4.05669E-09  3.99880E-09  3.76735E-09  3.64158E-09  3.79653E-09  3.92169E-09  4.02364E-09  4.11155E-09  4.19037E-09  4.26289E-09
   4.33078E-09  4.39514E-09  4.45673E-09  4.51611E-09  4.57370E-09  4.62986E-09  4.68490E-09  4.73910E-09  4.79278E-09  4.84623E-09
   4.89983E-09  4.95400E-09  5.00932E-09  5.06655E-09  5.12676E-09  5.19153E-09  5.26336E-09  5.34662E-09  5.44958E-09  5.59057E-09
   5.82042E-09  6.27847E-09  6.17081E-09  5.89670E-09  5.80910E-09  5.78145E-09  5.72908E-09  5.67626E-09  5.63806E-09  5.61839E-09
   5.60292E-09  5.37983E-09  4.83448E-09  4.75952E-09  4.86100E-09  4.94312E-09  5.00649E-09  5.05696E-09  5.09839E-09  5.13313E-09
   5.16271E-09  5.18817E-09  5.21024E-09  5.22942E-09  5.24609E-09  5.26055E-09  5.27303E-09  5.28372E-09  5.29272E-09  5.30022E-09
   5.30624E-09  5.31089E-09  5.31425E-09  5.31636E-09  5.31726E-09  5.31702E-09  5.31565E-09  5.31321E-09  5.30970E-09  5.30516E-09
   5.29962E-09  5.29308E-09  5.28559E-09  5.27713E-09  5.26774E-09  5.25744E-09  5.24621E-09  5.23411E-09  5.22111E-09  5.20726E-09
   5.19253E-09  5.17696E-09  5.16053E-09  5.14330E-09  5.12524E-09  5.10635E-09  5.08668E-09  5.06620E-09  5.04493E-09  5.02288E-09
   5.00005E-09  4.97648E-09  4.95214E-09  4.92705E-09  4.90121E-09  4.87464E-09  4.84734E-09  4.81931E-09  4.79056E-09  4.76113E-09
   4.73097E-09  4.70012E-09  4.66859E-09  4.63637E-09  4.60347E-09  4.56991E-09  4.53567E-09  4.50080E-09  4.46528E-09  4.42910E-09
   4.39230E-09  4.35485E-09  4.31680E-09  4.27811E-09  4.23883E-09  4.19894E-09  4.15846E-09  4.11739E-09  4.07574E-09  4.03355E-09
   3.99073E-09  3.94737E-09  3.90346E-09  3.85901E-09  3.81402E-09  3.76853E-09  3.72251E-09  3.67601E-09  3.62903E-09  3.58157E-09
   3.53365E-09  3.48529E-09  3.43649E-09  3.38727E-09  3.33764E-09  3.28761E-09  3.23719E-09  3.18640E-09  3.13525E-09  3.08375E-09
   3.03192E-09  2.97976E-09  2.92730E-09  2.87455E-09  2.82150E-09  2.76817E-09  2.71460E-09  2.66078E-09  2.60672E-09  2.55246E-09
   2.49801E-09  2.44335E-09  2.38853E-09  2.33359E-09  2.27849E-09  2.22328E-09  2.16801E-09  2.11271E-09  2.05740E-09  2.00220E-09
   1.94718E-09  1.89258E-09  1.83877E-09  1.78660E-09  1.73827E-09  1.70144E-09  1.71730E-09  1.86729E-09  1.82916E-09  1.73116E-09
   1.67353E-09  1.62537E-09  1.56858E-09  1.51147E-09  1.46051E-09  1.42639E-09  1.41416E-09  1.32015E-09  1.05792E-09  9.44829E-10
   8.69515E-10  8.04753E-10  7.44330E-10  6.86164E-10  6.29362E-10  5.73505E-10  5.18361E-10  4.63794E-10  4.09728E-10  3.56117E-10
   3.02920E-10  2.50132E-10  1.97731E-10  1.45726E-10  9.41049E-11  4.28652E-11 -7.97727E-12 -5.84227E-11 -1.08470E-10 -1.58104E-10
  -2.07322E-10 -2.56123E-10 -3.04492E-10 -3.52417E-10 -3.99899E-10 -4.46925E-10 -4.93490E-10 -5.39571E-10 -5.85178E-10 -6.30298E-10
  -6.74920E-10 -7.19029E-10 -7.62625E-10 -8.05693E-10 -8.48240E-10 -8.90244E-10 -9.31694E-10 -9.72591E-10 -1.01293E-09 -1.05270E-09
  -1.09188E-09 -1.13048E-09 -1.16848E-09 -1.20589E-09 -1.24270E-09 -1.27888E-09 -1.31445E-09 -1.34939E-09 -1.38370E-09 -1.41736E-09
  -1.45039E-09 -1.48276E-09 -1.51447E-09 -1.54552E-09 -1.57591E-09 -1.60562E-09 -1.63465E-09 -1.66301E-09 -1.69067E-09 -1.71764E-09
  -1.74392E-09 -1.76950E-09 -1.79438E-09 -1.81855E-09 -1.84203E-09 -1.86482E-09 -1.88693E-09 -1.90836E-09 -1.92911E-09 -1.94920E-09
  -1.96863E-09 -1.98740E-09 -2.00552E-09 -2.02300E-09 -2.03983E-09 -2.05604E-09 -2.07162E-09 -2.08658E-09 -2.10092E-09 -2.11465E-09
  -2.12777E-09 -2.14029E-09 -2.15222E-09 -2.16356E-09 -2.17432E-09 -2.18450E-09 -2.19410E-09 -2.20314E-09 -2.21161E-09 -2.21952E-09
  -2.22688E-09 -2.23369E-09 -2.23996E-09 -2.24568E-09 -2.25087E-09 -2.25553E-09 -2.25966E-09 -2.26328E-09 -2.26637E-09 -2.26895E-09
  -2.27102E-09 -2.27258E-09 -2.27364E-09 -2.27420E-09 -2.27427E-09 -2.27385E-09 -2.27293E-09 -2.27154E-09 -2.26966E-09 -2.26730E-09
  -2.26447E-09 -2.26116E-09 -2.25738E-09 -2.25313E-09 -2.24841E-09 -2.24324E-09 -2.23760E-09 -2.23150E-09 -2.22494E-09 -2.21792E-09
  -2.21045E-09 -2.20253E-09 -2.19415E-09 -2.18532E-09 -2.17603E-09 -2.16628E-09 -2.15607E-09 -2.14538E-09 -2.13422E-09 -2.12259E-09
  -2.11047E-09 -2.09787E-09 -2.08478E-09 -2.07120E-09 -2.05713E-09 -2.04256E-09 -2.02749E-09 -2.01192E-09 -1.99584E-09 -1.97926E-09
  -1.96216E-09 -1.94454E-09 -1.92641E-09 -1.90777E-09 -1.88860E-09 -1.86891E-09 -1.84869E-09 -1.82795E-09 -1.80667E-09 -1.78487E-09
  -1.76253E-09 -1.73966E-09 -1.71626E-09 -1.69232E-09 -1.66784E-09 -1.64282E-09 -1.61726E-09 -1.59116E-09 -1.56452E-09 -1.53733E-09
  -1.50961E-09 -1.48133E-09 -1.45252E-09 -1.42316E-09 -1.39326E-09 -1.36281E-09 -1.33182E-09 -1.30029E-09 -1.26821E-09 -1.23559E-09
  -1.20243E-09 -1.16872E-09 -1.13448E-09 -1.09969E-09 -1.06437E-09 -1.02850E-09 -9.92102E-10 -9.55166E-10 -9.17697E-10 -8.79695E-10
  -8.41162E-10 -8.02101E-10 -7.62512E-10
 GABA     Conc. = 4.12E-11
   3.89580E-09  3.94993E-09  4.00313E-09  4.05539E-09  4.10672E-09  4.15711E-09  4.20658E-09  4.25511E-09  4.30272E-09  4.34942E-09
   4.39519E-09  4.44005E-09  4.48401E-09  4.52707E-09  4.56925E-09  4.61054E-09  4.65096E-09  4.69055E-09  4.72932E-09  4.76728E-09
   4.80448E-09  4.84096E-09  4.87680E-09  4.91208E-09  4.94694E-09  4.98159E-09  5.01639E-09  5.05202E-09  5.08966E-09  5.12567E-09
   5.14385E-09  5.17843E-09  5.22090E-09  5.22804E-09  5.24031E-09  5.27072E-09  5.28526E-09  5.29392E-09  5.30357E-09  5.30683E-09
   5.31082E-09  5.33195E-09  5.33084E-09  5.32116E-09  5.34245E-09  5.35619E-09  5.35642E-09  5.36778E-09  5.38014E-09  5.39182E-09
   5.40255E-09  5.41226E-09  5.42110E-09  5.42913E-09  5.43637E-09  5.44294E-09  5.44901E-09  5.45477E-09  5.46052E-09  5.46692E-09
   5.47500E-09  5.48663E-09  5.48520E-09  5.47880E-09  5.49386E-09  5.48907E-09  5.46723E-09  5.46127E-09  5.45517E-09  5.44093E-09
   5.42533E-09  5.40551E-09  5.37892E-09  5.36498E-09  5.35207E-09  5.31632E-09  5.29770E-09  5.29069E-09  5.27343E-09  5.26132E-09
   5.24817E-09  5.22869E-09  5.22247E-09  5.21520E-09  5.18914E-09  5.17340E-09  5.16269E-09  5.13803E-09  5.11526E-09  5.09373E-09
   5.06330E-09  5.03588E-09  5.01400E-09  4.97634E-09  4.93857E-09  4.91559E-09  4.88055E-09  4.84073E-09  4.81026E-09  4.77768E-09
   4.74314E-09  4.70973E-09  4.67643E-09  4.64285E-09  4.60882E-09  4.57426E-09  4.53912E-09  4.50341E-09  4.46711E-09  4.43020E-09
   4.39269E-09  4.35455E-09  4.31583E-09  4.27649E-09  4.23657E-09  4.19606E-09  4.15498E-09  4.11333E-09  4.07109E-09  4.02834E-09
   3.98496E-09  3.94106E-09  3.89660E-09  3.85163E-09  3.80612E-09  3.76012E-09  3.71361E-09  3.66661E-09  3.61914E-09  3.57121E-09
   3.52283E-09  3.47401E-09  3.42476E-09  3.37510E-09  3.32503E-09  3.27458E-09  3.22374E-09  3.17253E-09  3.12098E-09  3.06908E-09
   3.01686E-09  2.96431E-09  2.91146E-09  2.85834E-09  2.80492E-09  2.75123E-09  2.69729E-09  2.64312E-09  2.58870E-09  2.53409E-09
   2.47928E-09  2.42426E-09  2.36907E-09  2.31374E-09  2.25824E-09  2.20260E-09  2.14687E-09  2.09104E-09  2.03511E-09  1.97915E-09
   1.92315E-09  1.86719E-09  1.81134E-09  1.75579E-09  1.70096E-09  1.64837E-09  1.60611E-09  1.59026E-09  1.53740E-09  1.47287E-09
   1.41633E-09  1.36171E-09  1.30545E-09  1.24918E-09  1.19421E-09  1.14265E-09  1.09551E-09  1.03243E-09  9.36386E-10  8.69846E-10
   8.10829E-10  7.54005E-10  6.98192E-10  6.42995E-10  5.88238E-10  5.33855E-10  4.79811E-10  4.26083E-10  3.72671E-10  3.19575E-10
   2.66788E-10  2.14330E-10  1.62196E-10  1.10407E-10  5.89606E-11  7.86261E-12 -4.28656E-11 -9.32192E-11 -1.43193E-10 -1.92771E-10
  -2.41944E-10 -2.90711E-10 -3.39056E-10 -3.86965E-10 -4.34437E-10 -4.81458E-10 -5.28023E-10 -5.74107E-10 -6.19721E-10 -6.64849E-10
  -7.09482E-10 -7.53603E-10 -7.97212E-10 -8.40295E-10 -8.82855E-10 -9.24874E-10 -9.66338E-10 -1.00725E-09 -1.04760E-09 -1.08738E-09
  -1.12658E-09 -1.16518E-09 -1.20320E-09 -1.24061E-09 -1.27743E-09 -1.31361E-09 -1.34919E-09 -1.38414E-09 -1.41844E-09 -1.45211E-09
