 LCModel (Version 6.3-1R) Copyright: S.W. Provencher.          Ref.: Magn. Reson. Med. 30:672-679 (1993).                
 onepulse 30x15_ftSpec_smooth_lcm
 26 lines in following concentration table = NCONC+1
    Conc.  %SD /Cr+PCr  Metabolite                                         
    0.000 999%   0.000 Ala                                                 
    0.000 999%   0.000 Asp                                                 
    0.000 999%   0.000 Cr                                                  
    0.000 999%   0.000 GABA                                                
 9.81E-11 508%   0.954 Glc                                                 
    0.000 999%   0.000 Gln                                                 
 2.54E-10 132%   2.472 Glu                                                 
    0.000 999%   0.000 Glyc                                                
 9.22E-11  69%   0.897 GPC                                                 
    0.000 999%   0.000 GSH                                                 
 8.58E-10  37%   8.348 Ins                                                 
    0.000 999%   0.000 Lac                                                 
    0.000 999%   0.000 NAAG                                                
 5.47E-10  36%   5.319 NAA                                                 
    0.000 999%   0.000 PCh                                                 
 1.03E-10 161%   1.000 PCr                                                 
    0.000 999%   0.000 PE                                                  
 9.73E-11 124%   0.947 Scyllo                                              
 3.51E-09  13%  34.188 Ser                                                 
    0.000 999%   0.000 Tau                                                 
 9.22E-11  69%   0.897 GPC+PCh                                             
 5.47E-10  36%   5.319 NAA+NAAG                                            
 8.58E-10  37%   8.348 Ins+Glyc                                            
 1.03E-10 161%   1.000 Cr+PCr                                              
 2.54E-10 132%   2.472 Glu+Gln                                             
   6 lines in following misc. output table
  FWHM = 0.089 ppm    S/N =   2                                            
  Data shift = 0.347 ppm                                                   
  Ph: -39 deg     -36.5 deg/ppm                                            
  alphaB,S = 8.7E-01,   2.1E+01                                            
    8 spline knots.   Ns = 5(1)                                            
  ( 9) 2 infls.   ( 5) 1 extrs.                                            
  363 points on ppm-axis = NY
      4.250000     4.238821     4.227641     4.216462     4.205282     4.194103     4.182923     4.171744     4.160564     4.149385
      4.138206     4.127026     4.115847     4.104667     4.093488     4.082308     4.071129     4.059949     4.048770     4.037591
      4.026411     4.015232     4.004052     3.992873     3.981693     3.970514     3.959334     3.948155     3.936975     3.925796
      3.914617     3.903437     3.892258     3.881078     3.869899     3.858719     3.847540     3.836360     3.825181     3.814002
      3.802822     3.791643     3.780463     3.769284     3.758104     3.746925     3.735745     3.724566     3.713387     3.702207
      3.691028     3.679848     3.668669     3.657489     3.646310     3.635130     3.623951     3.612772     3.601592     3.590413
      3.579233     3.568054     3.556874     3.545695     3.534515     3.523336     3.512156     3.500977     3.489798     3.478618
      3.467439     3.456259     3.445080     3.433900     3.422721     3.411541     3.400362     3.389183     3.378003     3.366824
      3.355644     3.344465     3.333285     3.322106     3.310926     3.299747     3.288568     3.277388     3.266209     3.255029
      3.243850     3.232670     3.221491     3.210311     3.199132     3.187953     3.176773     3.165594     3.154414     3.143235
      3.132055     3.120876     3.109696     3.098517     3.087337     3.076158     3.064979     3.053799     3.042620     3.031440
      3.020261     3.009081     2.997902     2.986722     2.975543     2.964364     2.953184     2.942005     2.930825     2.919646
      2.908466     2.897287     2.886107     2.874928     2.863749     2.852569     2.841390     2.830210     2.819031     2.807851
      2.796672     2.785492     2.774313     2.763134     2.751954     2.740775     2.729595     2.718416     2.707236     2.696057
      2.684877     2.673698     2.662519     2.651339     2.640160     2.628980     2.617801     2.606621     2.595442     2.584262
      2.573083     2.561903     2.550724     2.539545     2.528365     2.517186     2.506006     2.494827     2.483647     2.472468
      2.461288     2.450109     2.438930     2.427750     2.416571     2.405391     2.394212     2.383032     2.371853     2.360673
      2.349494     2.338315     2.327135     2.315956     2.304776     2.293597     2.282417     2.271238     2.260058     2.248879
      2.237700     2.226520     2.215341     2.204161     2.192982     2.181802     2.170623     2.159443     2.148264     2.137084
      2.125905     2.114726     2.103546     2.092367     2.081187     2.070008     2.058828     2.047649     2.036469     2.025290
      2.014111     2.002931     1.991752     1.980572     1.969393     1.958213     1.947034     1.935854     1.924675     1.913496
      1.902316     1.891137     1.879957     1.868778     1.857598     1.846419     1.835239     1.824060     1.812881     1.801701
      1.790522     1.779342     1.768163     1.756983     1.745804     1.734624     1.723445     1.712265     1.701086     1.689907
      1.678727     1.667548     1.656368     1.645189     1.634009     1.622830     1.611650     1.600471     1.589292     1.578112
      1.566933     1.555753     1.544574     1.533394     1.522215     1.511035     1.499856     1.488677     1.477497     1.466318
      1.455138     1.443959     1.432779     1.421600     1.410420     1.399241     1.388062     1.376882     1.365703     1.354523
      1.343344     1.332164     1.320985     1.309805     1.298626     1.287446     1.276267     1.265088     1.253908     1.242729
      1.231549     1.220370     1.209190     1.198011     1.186831     1.175652     1.164473     1.153293     1.142114     1.130934
      1.119755     1.108575     1.097396     1.086216     1.075037     1.063858     1.052678     1.041499     1.030319     1.019140
      1.007960     0.996781     0.985601     0.974422     0.963243     0.952063     0.940884     0.929704     0.918525     0.907345
      0.896166     0.884986     0.873807     0.862628     0.851448     0.840269     0.829089     0.817910     0.806730     0.795551
      0.784371     0.773192     0.762012     0.750833     0.739654     0.728474     0.717295     0.706115     0.694936     0.683756
      0.672577     0.661397     0.650218     0.639039     0.627859     0.616680     0.605500     0.594321     0.583141     0.571962
      0.560782     0.549603     0.538424     0.527244     0.516065     0.504885     0.493706     0.482526     0.471347     0.460167
      0.448988     0.437809     0.426629     0.415450     0.404270     0.393091     0.381911     0.370732     0.359552     0.348373
      0.337193     0.326014     0.314835     0.303655     0.292476     0.281296     0.270117     0.258937     0.247758     0.236578
      0.225399     0.214220     0.203040
 NY phased data points follow
   7.23177E-09  7.06316E-09  9.90169E-09  8.32135E-09  9.92619E-09  7.80559E-09  9.13990E-09  7.27171E-09  8.16236E-09  6.90921E-09
   8.18020E-09  6.25194E-09  7.75976E-09  6.47346E-09  8.23008E-09  7.02521E-09  8.86680E-09  7.61509E-09  8.55021E-09  7.08597E-09
   9.00464E-09  7.43703E-09  7.81815E-09  6.56753E-09  7.81809E-09  6.68480E-09  8.21799E-09  7.05411E-09  8.10220E-09  6.63754E-09
   8.16144E-09  6.35702E-09  8.28159E-09  7.75364E-09  9.40058E-09  8.64575E-09  9.82294E-09  7.99102E-09  8.71129E-09  7.30381E-09
   8.27916E-09  6.73165E-09  7.99876E-09  6.46711E-09  7.51688E-09  6.17223E-09  6.91849E-09  5.45341E-09  6.69670E-09  5.54913E-09
   6.05742E-09  4.94678E-09  5.72811E-09  4.58825E-09  5.94546E-09  4.34888E-09  5.35994E-09  4.07331E-09  4.58557E-09  3.99621E-09
   4.88601E-09  3.48411E-09  5.32628E-09  4.67139E-09  6.77462E-09  6.82240E-09  7.90226E-09  6.95051E-09  7.51604E-09  6.09931E-09
   6.27047E-09  5.31052E-09  5.81893E-09  4.40152E-09  4.72130E-09  3.59399E-09  4.48871E-09  2.85185E-09  3.86466E-09  4.17014E-09
   6.82285E-09  7.74822E-09  9.89562E-09  8.91640E-09  9.75826E-09  8.78215E-09  9.61271E-09  8.10547E-09  8.59955E-09  7.23219E-09
   8.49507E-09  7.83205E-09  8.20365E-09  7.17704E-09  7.65934E-09  6.44273E-09  7.05634E-09  5.60549E-09  6.61072E-09  5.80813E-09
   6.14007E-09  4.98749E-09  5.99932E-09  4.94980E-09  6.28432E-09  4.58647E-09  5.49311E-09  4.46105E-09  5.27689E-09  4.01995E-09
   4.24852E-09  3.19908E-09  3.41930E-09  3.36641E-09  3.84812E-09  3.17433E-09  3.71710E-09  3.19234E-09  3.73304E-09  3.36365E-09
   4.05537E-09  3.46950E-09  3.93886E-09  2.96960E-09  3.73470E-09  2.47172E-09  2.41801E-09  1.70024E-09  2.31476E-09  2.41361E-09
   2.88775E-09  1.91323E-09  2.61671E-09  2.57179E-09  2.91304E-09  2.19401E-09  3.25756E-09  2.50203E-09  2.92674E-09  2.55952E-09
   4.01406E-09  3.62281E-09  4.59333E-09  4.19822E-09  4.65693E-09  4.19567E-09  4.97412E-09  5.10962E-09  5.79646E-09  4.87612E-09
   5.50289E-09  5.15303E-09  5.46460E-09  4.43956E-09  5.24770E-09  4.52031E-09  4.93313E-09  4.47207E-09  5.30351E-09  4.30691E-09
   4.87999E-09  4.31641E-09  5.10533E-09  3.95321E-09  5.14647E-09  4.02752E-09  4.67228E-09  4.12203E-09  4.86230E-09  4.60802E-09
   7.26509E-09  8.48262E-09  1.08137E-08  1.11899E-08  1.12022E-08  9.78596E-09  9.17486E-09  8.42411E-09  7.78908E-09  6.52658E-09
   6.75356E-09  5.10945E-09  4.88385E-09  3.59316E-09  3.32660E-09  1.83809E-09  1.53693E-09 -3.38508E-10 -6.18470E-10 -2.54862E-09
  -3.24479E-09 -4.58122E-09 -5.65557E-09 -7.13133E-09 -7.88135E-09 -9.86074E-09 -9.37738E-09 -1.11835E-08 -1.12729E-08 -1.24404E-08
  -1.18511E-08 -1.21915E-08 -1.13962E-08 -1.08556E-08 -9.97333E-09 -1.00906E-08 -8.06178E-09 -7.67738E-09 -5.50597E-09 -5.11211E-09
  -3.49335E-09 -3.22087E-09 -2.20167E-09 -1.67629E-09 -1.08835E-09 -1.81153E-09 -1.26128E-09 -1.53185E-09 -1.05824E-09 -2.05796E-09
  -1.03583E-09 -2.15319E-09 -6.29310E-10 -1.57016E-09 -8.78801E-10 -1.59271E-09 -7.65174E-10 -9.99027E-10 -1.26120E-09 -1.60238E-09
  -6.44054E-10 -1.43474E-09 -7.48577E-10 -1.39597E-09 -1.06671E-09 -1.29943E-09 -9.68858E-10 -8.27894E-10 -5.70703E-10 -4.80690E-10
  -5.30038E-10 -1.39659E-09 -7.46242E-10 -1.59463E-09 -9.40759E-10 -1.12391E-09 -5.99955E-10 -1.17719E-09 -1.74946E-10 -1.11290E-09
   3.83826E-10 -8.19317E-10 -5.20030E-11 -2.99439E-10  6.25279E-11 -6.71992E-10 -3.12656E-10 -8.89124E-10 -5.29156E-10 -1.27342E-09
  -5.04442E-10 -1.29511E-09 -7.62781E-10 -1.03940E-09 -9.01868E-10 -1.18764E-09 -5.10416E-10 -7.91981E-10 -1.12403E-11 -6.84722E-10
   1.79695E-10 -6.61360E-10  4.64768E-10 -8.60256E-13  3.53708E-10  4.57836E-10  3.31724E-10 -4.47009E-12  4.81708E-10  1.24904E-10
   5.20263E-10 -6.68256E-10  9.74056E-11 -7.01797E-10 -1.69365E-10 -7.46417E-10 -1.96646E-10 -5.91533E-10 -3.02870E-10 -5.91712E-10
  -1.30733E-10 -7.47787E-10  4.17646E-11 -8.04423E-10 -3.36307E-10 -4.91006E-10 -4.63887E-10 -9.90676E-10 -2.46291E-10 -5.51384E-10
  -1.11356E-10 -9.88056E-10 -2.38660E-10 -1.33040E-09 -4.35981E-10 -7.67510E-10 -1.35326E-10 -7.51845E-10  7.76642E-11 -7.01001E-10
  -9.90548E-11 -5.53055E-10 -2.49083E-10 -6.95270E-10  1.84441E-10 -5.94518E-10  1.08075E-10 -6.89464E-10  4.41150E-11 -8.76678E-10
  -3.17826E-10 -3.08754E-10  8.77714E-11 -3.51846E-10  2.04661E-10 -3.57997E-10  5.71510E-10 -3.85184E-10  2.91311E-10 -1.02842E-10
   4.00172E-10  5.03486E-13  1.40280E-10 -3.32367E-10  3.75600E-10 -2.01772E-10 -1.85283E-11 -7.33471E-11  7.88239E-10 -7.53725E-11
   1.93101E-10 -6.11982E-11  3.90917E-10 -2.85121E-11  4.90408E-10  5.19861E-10  4.72567E-10  3.72159E-10  4.89319E-10  3.76520E-10
   5.55778E-10  6.73824E-11  5.94713E-10  1.47279E-10  6.83627E-10  5.73144E-10  1.16565E-09  1.46035E-10  7.04085E-10  4.19772E-10
   4.25658E-10  7.60444E-10  7.87955E-10
 NY points of the fit to the data follow
   5.64004E-09  8.08955E-09  9.11419E-09  8.51074E-09  8.46480E-09  9.14774E-09  9.52823E-09  8.89798E-09  7.93250E-09  7.29277E-09
   6.73516E-09  6.47613E-09  6.48270E-09  6.84046E-09  7.40846E-09  7.78890E-09  7.87766E-09  8.23369E-09  8.57836E-09  8.20932E-09
   7.53521E-09  7.08276E-09  6.85819E-09  6.66655E-09  6.57349E-09  6.64907E-09  6.91024E-09  7.28735E-09  7.53241E-09  7.47808E-09
   7.66777E-09  7.97498E-09  8.26895E-09  8.41598E-09  8.25329E-09  7.75240E-09  7.42698E-09  7.23410E-09  7.12502E-09  7.07711E-09
   7.06416E-09  7.02631E-09  6.85675E-09  6.55603E-09  6.37484E-09  6.26295E-09  6.18539E-09  6.12732E-09  6.08418E-09  6.06091E-09
   6.04746E-09  6.04749E-09  6.05636E-09  6.03990E-09  5.98769E-09  5.95641E-09  5.94862E-09  5.99469E-09  6.05291E-09  6.08087E-09
   6.05425E-09  6.00895E-09  5.96839E-09  5.94810E-09  6.01935E-09  6.16124E-09  6.27984E-09  6.29985E-09  6.29828E-09  6.22298E-09
   6.17208E-09  6.15434E-09  6.04755E-09  5.80160E-09  5.61936E-09  5.44461E-09  5.27606E-09  5.38758E-09  5.69085E-09  6.09953E-09
   6.64002E-09  7.29100E-09  7.97156E-09  8.59204E-09  9.12845E-09  9.59335E-09  9.80050E-09  9.35494E-09  8.04195E-09  7.14910E-09
   6.70531E-09  6.42077E-09  6.21600E-09  6.05149E-09  5.91760E-09  5.80389E-09  5.70125E-09  5.60908E-09  5.52492E-09  5.44671E-09
   5.37311E-09  5.30318E-09  5.23619E-09  5.17160E-09  5.10886E-09  5.04763E-09  4.98758E-09  4.92851E-09  4.87019E-09  4.81242E-09
   4.75514E-09  4.69814E-09  4.64136E-09  4.58469E-09  4.52808E-09  4.47144E-09  4.41474E-09  4.35791E-09  4.30090E-09  4.24372E-09
   4.18626E-09  4.12857E-09  4.07058E-09  4.01229E-09  3.95370E-09  3.89477E-09  3.83548E-09  3.77589E-09  3.71595E-09  3.65566E-09
   3.59505E-09  3.53410E-09  3.47285E-09  3.41130E-09  3.34946E-09  3.28734E-09  3.22504E-09  3.16250E-09  3.09982E-09  3.03698E-09
   2.97409E-09  2.91119E-09  2.84833E-09  2.78557E-09  2.72303E-09  2.66080E-09  2.59900E-09  2.53780E-09  2.47740E-09  2.41803E-09
   2.35994E-09  2.30345E-09  2.24892E-09  2.19679E-09  2.14759E-09  2.10199E-09  2.06083E-09  2.02521E-09  1.99656E-09  1.97684E-09
   1.96882E-09  1.97660E-09  2.00653E-09  2.06940E-09  2.18561E-09  2.40203E-09  2.86924E-09  3.97066E-09  5.49737E-09  7.01001E-09
   8.57896E-09  1.00917E-08  1.12571E-08  1.18774E-08  1.19174E-08  1.12849E-08  9.52774E-09  6.07016E-09  1.60363E-09 -9.17263E-10
  -1.29774E-09 -1.37237E-09 -1.39074E-09 -1.39917E-09 -1.40893E-09 -1.42272E-09 -1.44081E-09 -1.46272E-09 -1.48786E-09 -1.51557E-09
  -1.54530E-09 -1.57657E-09 -1.60897E-09 -1.64213E-09 -1.67574E-09 -1.70957E-09 -1.74339E-09 -1.77698E-09 -1.81019E-09 -1.84289E-09
  -1.87494E-09 -1.90622E-09 -1.93664E-09 -1.96610E-09 -1.99455E-09 -2.02187E-09 -2.04804E-09 -2.07299E-09 -2.09668E-09 -2.11903E-09
  -2.14004E-09 -2.15965E-09 -2.17784E-09 -2.19458E-09 -2.20986E-09 -2.22362E-09 -2.23588E-09 -2.24662E-09 -2.25581E-09 -2.26349E-09
  -2.26967E-09 -2.27440E-09 -2.27768E-09 -2.27957E-09 -2.28008E-09 -2.27925E-09 -2.27712E-09 -2.27371E-09 -2.26906E-09 -2.26320E-09
  -2.25617E-09 -2.24800E-09 -2.23873E-09 -2.22839E-09 -2.21701E-09 -2.20463E-09 -2.19128E-09 -2.17700E-09 -2.16183E-09 -2.14579E-09
  -2.12892E-09 -2.11126E-09 -2.09283E-09 -2.07368E-09 -2.05383E-09 -2.03332E-09 -2.01218E-09 -1.99044E-09 -1.96814E-09 -1.94529E-09
  -1.92195E-09 -1.89813E-09 -1.87387E-09 -1.84919E-09 -1.82412E-09 -1.79870E-09 -1.77294E-09 -1.74688E-09 -1.72054E-09 -1.69395E-09
  -1.66713E-09 -1.64011E-09 -1.61292E-09 -1.58556E-09 -1.55807E-09 -1.53046E-09 -1.50277E-09 -1.47500E-09 -1.44717E-09 -1.41932E-09
  -1.39144E-09 -1.36356E-09 -1.33570E-09 -1.30787E-09 -1.28008E-09 -1.25235E-09 -1.22469E-09 -1.19712E-09 -1.16963E-09 -1.14225E-09
  -1.11498E-09 -1.08782E-09 -1.06080E-09 -1.03390E-09 -1.00715E-09 -9.80536E-10 -9.54069E-10 -9.27749E-10 -9.01580E-10 -8.75562E-10
  -8.49693E-10 -8.23973E-10 -7.98397E-10 -7.72964E-10 -7.47669E-10 -7.22511E-10 -6.97485E-10 -6.72589E-10 -6.47822E-10 -6.23180E-10
  -5.98661E-10 -5.74264E-10 -5.49986E-10 -5.25825E-10 -5.01780E-10 -4.77849E-10 -4.54032E-10 -4.30326E-10 -4.06731E-10 -3.83246E-10
  -3.59870E-10 -3.36603E-10 -3.13444E-10 -2.90393E-10 -2.67450E-10 -2.44615E-10 -2.21887E-10 -1.99269E-10 -1.76760E-10 -1.54360E-10
  -1.32070E-10 -1.09894E-10 -8.78285E-11 -6.58771E-11 -4.40420E-11 -2.23253E-11 -7.24310E-13  2.07543E-11  4.21117E-11  6.33421E-11
   8.44472E-11  1.05422E-10  1.26263E-10  1.46969E-10  1.67539E-10  1.87968E-10  2.08253E-10  2.28389E-10  2.48378E-10  2.68206E-10
   2.87881E-10  3.07391E-10  3.26738E-10  3.45915E-10  3.64911E-10  3.83736E-10  4.02374E-10  4.20828E-10  4.39086E-10  4.57150E-10
   4.75013E-10  4.92667E-10  5.10110E-10  5.27335E-10  5.44339E-10  5.61113E-10  5.77660E-10  5.93963E-10  6.10022E-10  6.25833E-10
   6.41386E-10  6.56678E-10  6.71707E-10
 NY background values follow
     8.548E-10    9.505E-10    1.045E-09    1.138E-09    1.230E-09    1.321E-09    1.411E-09    1.499E-09    1.586E-09    1.672E-09
     1.757E-09    1.840E-09    1.922E-09    2.002E-09    2.082E-09    2.160E-09    2.237E-09    2.312E-09    2.386E-09    2.459E-09
     2.531E-09    2.601E-09    2.670E-09    2.738E-09    2.804E-09    2.869E-09    2.932E-09    2.994E-09    3.055E-09    3.115E-09
     3.173E-09    3.230E-09    3.286E-09    3.340E-09    3.393E-09    3.444E-09    3.494E-09    3.543E-09    3.591E-09    3.637E-09
     3.682E-09    3.726E-09    3.768E-09    3.809E-09    3.849E-09    3.887E-09    3.924E-09    3.960E-09    3.995E-09    4.028E-09
     4.060E-09    4.091E-09    4.120E-09    4.148E-09    4.176E-09    4.201E-09    4.226E-09    4.249E-09    4.272E-09    4.293E-09
     4.312E-09    4.331E-09    4.348E-09    4.365E-09    4.380E-09    4.394E-09    4.407E-09    4.419E-09    4.430E-09    4.439E-09
     4.448E-09    4.455E-09    4.462E-09    4.467E-09    4.472E-09    4.475E-09    4.477E-09    4.479E-09    4.479E-09    4.478E-09
     4.476E-09    4.474E-09    4.470E-09    4.465E-09    4.459E-09    4.453E-09    4.445E-09    4.436E-09    4.426E-09    4.415E-09
     4.404E-09    4.391E-09    4.377E-09    4.362E-09    4.347E-09    4.330E-09    4.312E-09    4.293E-09    4.273E-09    4.253E-09
     4.231E-09    4.208E-09    4.184E-09    4.160E-09    4.134E-09    4.107E-09    4.079E-09    4.051E-09    4.021E-09    3.990E-09
     3.959E-09    3.926E-09    3.892E-09    3.858E-09    3.822E-09    3.786E-09    3.748E-09    3.710E-09    3.670E-09    3.630E-09
     3.588E-09    3.546E-09    3.502E-09    3.458E-09    3.413E-09    3.367E-09    3.319E-09    3.271E-09    3.222E-09    3.172E-09
     3.121E-09    3.069E-09    3.017E-09    2.963E-09    2.908E-09    2.853E-09    2.796E-09    2.739E-09    2.681E-09    2.622E-09
     2.562E-09    2.501E-09    2.440E-09    2.377E-09    2.314E-09    2.250E-09    2.185E-09    2.119E-09    2.052E-09    1.985E-09
     1.918E-09    1.849E-09    1.781E-09    1.711E-09    1.642E-09    1.572E-09    1.501E-09    1.431E-09    1.360E-09    1.289E-09
     1.218E-09    1.147E-09    1.075E-09    1.004E-09    9.332E-10    8.623E-10    7.915E-10    7.210E-10    6.507E-10    5.808E-10
     5.112E-10    4.421E-10    3.734E-10    3.052E-10    2.376E-10    1.706E-10    1.043E-10    3.862E-11   -2.629E-11   -9.043E-11
    -1.537E-10   -2.162E-10   -2.777E-10   -3.383E-10   -3.979E-10   -4.565E-10   -5.140E-10   -5.704E-10   -6.257E-10   -6.798E-10
    -7.327E-10   -7.843E-10   -8.347E-10   -8.838E-10   -9.316E-10   -9.780E-10   -1.023E-09   -1.067E-09   -1.109E-09   -1.149E-09
    -1.189E-09   -1.226E-09   -1.262E-09   -1.297E-09   -1.330E-09   -1.362E-09   -1.391E-09   -1.420E-09   -1.446E-09   -1.471E-09
    -1.494E-09   -1.516E-09   -1.536E-09   -1.554E-09   -1.571E-09   -1.586E-09   -1.599E-09   -1.611E-09   -1.621E-09   -1.629E-09
    -1.636E-09   -1.641E-09   -1.644E-09   -1.646E-09   -1.647E-09   -1.646E-09   -1.644E-09   -1.640E-09   -1.635E-09   -1.629E-09
    -1.622E-09   -1.613E-09   -1.604E-09   -1.593E-09   -1.581E-09   -1.568E-09   -1.554E-09   -1.540E-09   -1.524E-09   -1.507E-09
    -1.490E-09   -1.472E-09   -1.453E-09   -1.433E-09   -1.413E-09   -1.391E-09   -1.370E-09   -1.347E-09   -1.325E-09   -1.301E-09
    -1.277E-09   -1.253E-09   -1.228E-09   -1.203E-09   -1.177E-09   -1.151E-09   -1.125E-09   -1.098E-09   -1.071E-09   -1.044E-09
    -1.017E-09   -9.897E-10   -9.620E-10   -9.343E-10   -9.064E-10   -8.784E-10   -8.503E-10   -8.222E-10   -7.940E-10   -7.659E-10
    -7.377E-10   -7.096E-10   -6.815E-10   -6.534E-10   -6.254E-10   -5.975E-10   -5.697E-10   -5.420E-10   -5.144E-10   -4.869E-10
    -4.595E-10   -4.323E-10   -4.053E-10   -3.784E-10   -3.517E-10   -3.251E-10   -2.987E-10   -2.725E-10   -2.464E-10   -2.205E-10
    -1.948E-10   -1.693E-10   -1.439E-10   -1.187E-10   -9.371E-11   -6.884E-11   -4.413E-11   -1.957E-11    4.832E-12    2.909E-11
     5.319E-11    7.715E-11    1.010E-10    1.246E-10    1.482E-10    1.716E-10    1.948E-10    2.179E-10    2.409E-10    2.638E-10
     2.865E-10    3.091E-10    3.315E-10    3.538E-10    3.760E-10    3.981E-10    4.200E-10    4.418E-10    4.634E-10    4.849E-10
     5.063E-10    5.276E-10    5.487E-10    5.696E-10    5.905E-10    6.112E-10    6.317E-10    6.521E-10    6.724E-10    6.925E-10
     7.124E-10    7.322E-10    7.519E-10    7.714E-10    7.907E-10    8.098E-10    8.288E-10    8.477E-10    8.663E-10    8.848E-10
     9.031E-10    9.212E-10    9.391E-10    9.568E-10    9.743E-10    9.917E-10    1.009E-09    1.026E-09    1.042E-09    1.059E-09
     1.075E-09    1.091E-09    1.107E-09    1.122E-09    1.138E-09    1.153E-09    1.168E-09    1.182E-09    1.196E-09    1.211E-09
     1.224E-09    1.238E-09    1.251E-09
 Glc      Conc. = 9.81E-11
   6.85916E-10  8.05494E-10  9.23786E-10  1.05466E-09  1.19092E-09  1.32805E-09  1.44939E-09  1.56372E-09  1.66073E-09  1.72697E-09
   1.79111E-09  1.85496E-09  1.91546E-09  1.98384E-09  2.06632E-09  2.15480E-09  2.24800E-09  2.35558E-09  2.47245E-09  2.59305E-09
   2.72009E-09  2.84550E-09  2.96273E-09  3.07162E-09  3.14943E-09  3.18348E-09  3.20927E-09  3.24470E-09  3.29111E-09  3.34612E-09
   3.39839E-09  3.44615E-09  3.49783E-09  3.54743E-09  3.58737E-09  3.62743E-09  3.66977E-09  3.70789E-09  3.74283E-09  3.77852E-09
   3.81469E-09  3.85072E-09  3.88640E-09  3.92149E-09  3.95590E-09  3.98949E-09  4.02224E-09  4.05404E-09  4.08489E-09  4.11474E-09
   4.14356E-09  4.17135E-09  4.19806E-09  4.22370E-09  4.24828E-09  4.27175E-09  4.29413E-09  4.31544E-09  4.33561E-09  4.35471E-09
   4.37272E-09  4.38963E-09  4.40546E-09  4.42020E-09  4.43390E-09  4.44650E-09  4.45805E-09  4.46853E-09  4.47797E-09  4.48639E-09
   4.49376E-09  4.50010E-09  4.50547E-09  4.50981E-09  4.51317E-09  4.51553E-09  4.51690E-09  4.51729E-09  4.51668E-09  4.51508E-09
   4.51249E-09  4.50892E-09  4.50436E-09  4.49880E-09  4.49227E-09  4.48475E-09  4.47623E-09  4.46674E-09  4.45627E-09  4.44481E-09
   4.43235E-09  4.41893E-09  4.40450E-09  4.38912E-09  4.37274E-09  4.35536E-09  4.33702E-09  4.31769E-09  4.29737E-09  4.27608E-09
   4.25380E-09  4.23054E-09  4.20630E-09  4.18109E-09  4.15488E-09  4.12770E-09  4.09954E-09  4.07041E-09  4.04030E-09  4.00919E-09
   3.97714E-09  3.94410E-09  3.91007E-09  3.87507E-09  3.83911E-09  3.80217E-09  3.76427E-09  3.72541E-09  3.68557E-09  3.64480E-09
   3.60303E-09  3.56033E-09  3.51667E-09  3.47206E-09  3.42651E-09  3.38000E-09  3.33254E-09  3.28417E-09  3.23486E-09  3.18462E-09
   3.13346E-09  3.08137E-09  3.02838E-09  2.97449E-09  2.91970E-09  2.86398E-09  2.80743E-09  2.74997E-09  2.69165E-09  2.63245E-09
   2.57240E-09  2.51151E-09  2.44979E-09  2.38722E-09  2.32385E-09  2.25968E-09  2.19472E-09  2.12903E-09  2.06265E-09  1.99565E-09
   1.92806E-09  1.85995E-09  1.79137E-09  1.72238E-09  1.65304E-09  1.58340E-09  1.51354E-09  1.44353E-09  1.37344E-09  1.30336E-09
   1.23340E-09  1.16370E-09  1.09445E-09  1.02594E-09  9.58729E-10  8.94139E-10  8.37000E-10  7.95131E-10  7.52867E-10  7.11487E-10
   6.71839E-10  6.28859E-10  5.77521E-10  5.16167E-10  4.45200E-10  3.60318E-10  2.49254E-10  1.05552E-10 -3.42874E-11 -1.08908E-10
  -1.73267E-10 -2.35151E-10 -2.95846E-10 -3.55588E-10 -4.14426E-10 -4.72340E-10 -5.29279E-10 -5.85177E-10 -6.40029E-10 -6.93769E-10
  -7.46339E-10 -7.97730E-10 -8.47885E-10 -8.96778E-10 -9.44352E-10 -9.90596E-10 -1.03549E-09 -1.07896E-09 -1.12101E-09 -1.16162E-09
  -1.20075E-09 -1.23839E-09 -1.27449E-09 -1.30905E-09 -1.34207E-09 -1.37349E-09 -1.40331E-09 -1.43153E-09 -1.45813E-09 -1.48308E-09
  -1.50640E-09 -1.52805E-09 -1.54803E-09 -1.56635E-09 -1.58300E-09 -1.59796E-09 -1.61124E-09 -1.62285E-09 -1.63277E-09 -1.64105E-09
  -1.64771E-09 -1.65281E-09 -1.65637E-09 -1.65845E-09 -1.65906E-09 -1.65827E-09 -1.65609E-09 -1.65259E-09 -1.64778E-09 -1.64171E-09
  -1.63443E-09 -1.62597E-09 -1.61636E-09 -1.60565E-09 -1.59388E-09 -1.58107E-09 -1.56728E-09 -1.55254E-09 -1.53688E-09 -1.52034E-09
  -1.50296E-09 -1.48477E-09 -1.46582E-09 -1.44613E-09 -1.42574E-09 -1.40468E-09 -1.38299E-09 -1.36071E-09 -1.33786E-09 -1.31448E-09
  -1.29060E-09 -1.26625E-09 -1.24147E-09 -1.21628E-09 -1.19070E-09 -1.16479E-09 -1.13855E-09 -1.11201E-09 -1.08522E-09 -1.05818E-09
  -1.03093E-09 -1.00349E-09 -9.75887E-10 -9.48143E-10 -9.20281E-10 -8.92323E-10 -8.64292E-10 -8.36204E-10 -8.08082E-10 -7.79944E-10
  -7.51807E-10 -7.23688E-10 -6.95606E-10 -6.67572E-10 -6.39606E-10 -6.11716E-10 -5.83917E-10 -5.56223E-10 -5.28641E-10 -5.01184E-10
  -4.73861E-10 -4.46679E-10 -4.19647E-10 -3.92768E-10 -3.66051E-10 -3.39499E-10 -3.13117E-10 -2.86904E-10 -2.60866E-10 -2.35002E-10
  -2.09311E-10 -1.83792E-10 -1.58443E-10 -1.33259E-10 -1.08237E-10 -8.33756E-11 -5.86709E-11 -3.41207E-11 -9.72243E-12  1.45262E-11
   3.86276E-11  6.25835E-11  8.63961E-11  1.10067E-10  1.33598E-10  1.56990E-10  1.80245E-10  2.03364E-10  2.26348E-10  2.49198E-10
   2.71914E-10  2.94498E-10  3.16950E-10  3.39268E-10  3.61456E-10  3.83511E-10  4.05434E-10  4.27224E-10  4.48882E-10  4.70406E-10
   4.91797E-10  5.13050E-10  5.34168E-10  5.55149E-10  5.75990E-10  5.96689E-10  6.17249E-10  6.37663E-10  6.57932E-10  6.78052E-10
   6.98023E-10  7.17841E-10  7.37502E-10  7.57005E-10  7.76349E-10  7.95528E-10  8.14542E-10  8.33384E-10  8.52056E-10  8.70545E-10
   8.88859E-10  9.06984E-10  9.24926E-10  9.42674E-10  9.60221E-10  9.77574E-10  9.94718E-10  1.01166E-09  1.02838E-09  1.04488E-09
   1.06117E-09  1.07722E-09  1.09304E-09  1.10862E-09  1.12396E-09  1.13905E-09  1.15389E-09  1.16846E-09  1.18278E-09  1.19682E-09
   1.21058E-09  1.22407E-09  1.23727E-09
 Glu      Conc. = 2.54E-10
   5.77313E-10  6.77055E-10  7.89200E-10  9.17431E-10  1.06024E-09  1.21679E-09  1.38277E-09  1.54720E-09  1.69526E-09  1.83240E-09
   1.95303E-09  2.01908E-09  2.09372E-09  2.14000E-09  2.18358E-09  2.23542E-09  2.29231E-09  2.35205E-09  2.41323E-09  2.47502E-09
   2.53696E-09  2.59873E-09  2.66014E-09  2.72101E-09  2.78111E-09  2.84037E-09  2.89871E-09  2.95602E-09  3.01224E-09  3.06733E-09
   3.12125E-09  3.17396E-09  3.22544E-09  3.27567E-09  3.32460E-09  3.37225E-09  3.41856E-09  3.46353E-09  3.50715E-09  3.54937E-09
   3.59021E-09  3.62963E-09  3.66763E-09  3.70416E-09  3.73923E-09  3.77279E-09  3.80482E-09  3.83527E-09  3.86411E-09  3.89130E-09
   3.91677E-09  3.94046E-09  3.96230E-09  3.98221E-09  4.00005E-09  4.01570E-09  4.02924E-09  4.04113E-09  4.05511E-09  4.08168E-09
   4.11348E-09  4.15296E-09  4.22735E-09  4.31810E-09  4.42044E-09  4.54512E-09  4.67901E-09  4.80912E-09  4.91463E-09  4.97324E-09
   4.99246E-09  5.01070E-09  4.96576E-09  4.85528E-09  4.80712E-09  4.76917E-09  4.73107E-09  4.74687E-09  4.78806E-09  4.84661E-09
   4.90999E-09  4.96709E-09  5.01294E-09  5.03152E-09  5.01616E-09  4.99354E-09  4.94728E-09  4.89197E-09  4.82158E-09  4.76592E-09
   4.71273E-09  4.66412E-09  4.62327E-09  4.58239E-09  4.54691E-09  4.51455E-09  4.48108E-09  4.44897E-09  4.41786E-09  4.38716E-09
   4.35655E-09  4.32591E-09  4.29508E-09  4.26399E-09  4.23247E-09  4.20044E-09  4.16784E-09  4.13465E-09  4.10079E-09  4.06622E-09
   4.03096E-09  3.99494E-09  3.95814E-09  3.92056E-09  3.88218E-09  3.84298E-09  3.80296E-09  3.76211E-09  3.72039E-09  3.67786E-09
   3.63443E-09  3.59017E-09  3.54502E-09  3.49902E-09  3.45215E-09  3.40440E-09  3.35576E-09  3.30628E-09  3.25592E-09  3.20468E-09
   3.15259E-09  3.09961E-09  3.04579E-09  2.99112E-09  2.93559E-09  2.87918E-09  2.82198E-09  2.76392E-09  2.70505E-09  2.64533E-09
   2.58482E-09  2.52350E-09  2.46140E-09  2.39850E-09  2.33484E-09  2.27042E-09  2.20528E-09  2.13945E-09  2.07300E-09  2.00598E-09
   1.93844E-09  1.87047E-09  1.80210E-09  1.73342E-09  1.66450E-09  1.59541E-09  1.52626E-09  1.45713E-09  1.38817E-09  1.31951E-09
   1.25134E-09  1.18397E-09  1.11777E-09  1.05346E-09  9.92377E-10  9.37850E-10  9.02160E-10  9.05935E-10  9.08291E-10  9.12372E-10
   9.20416E-10  9.19247E-10  8.95703E-10  8.45374E-10  7.69254E-10  6.56271E-10  4.74590E-10  2.06888E-10 -5.34238E-11 -1.45024E-10
  -2.11045E-10 -2.71995E-10 -3.31270E-10 -3.89598E-10 -4.47153E-10 -5.03934E-10 -5.59882E-10 -6.14916E-10 -6.69012E-10 -7.22090E-10
  -7.74077E-10 -8.24954E-10 -8.74653E-10 -9.23142E-10 -9.70355E-10 -1.01628E-09 -1.06088E-09 -1.10409E-09 -1.14591E-09 -1.18630E-09
  -1.22525E-09 -1.26270E-09 -1.29865E-09 -1.33307E-09 -1.36595E-09 -1.39725E-09 -1.42697E-09 -1.45508E-09 -1.48159E-09 -1.50645E-09
  -1.52969E-09 -1.55127E-09 -1.57119E-09 -1.58944E-09 -1.60603E-09 -1.62094E-09 -1.63417E-09 -1.64573E-09 -1.65560E-09 -1.66384E-09
  -1.67046E-09 -1.67552E-09 -1.67905E-09 -1.68109E-09 -1.68167E-09 -1.68084E-09 -1.67864E-09 -1.67510E-09 -1.67026E-09 -1.66417E-09
