 LCModel (Version 6.3-1R) Copyright: S.W. Provencher.          Ref.: Magn. Reson. Med. 30:672-679 (1993).                
 onepulse 30x19_ftSpec_smooth_lcm
 26 lines in following concentration table = NCONC+1
    Conc.  %SD   /Cr    Metabolite                                         
    0.000 999%   0.000 Ala                                                 
    0.000 999%   0.000 Asp                                                 
    0.000 999%   0.000 Cr                                                  
    0.000 999%   0.000 GABA                                                
    0.000 999%   0.000 Glc                                                 
    0.000 999%   0.000 Gln                                                 
    0.000 999%   0.000 Glu                                                 
    0.000 999%   0.000 Glyc                                                
    0.000 999%   0.000 GPC                                                 
 3.42E-11 849%   0.000 GSH                                                 
    0.000 999%   0.000 Ins                                                 
    0.000 999%   0.000 Lac                                                 
    0.000 999%   0.000 NAAG                                                
    0.000 999%   0.000 NAA                                                 
    0.000 999%   0.000 PCh                                                 
    0.000 999%   0.000 PCr                                                 
    0.000 999%   0.000 PE                                                  
    0.000 999%   0.000 Scyllo                                              
    0.000 999%   0.000 Ser                                                 
    0.000 999%   0.000 Tau                                                 
    0.000 999%   0.000 GPC+PCh                                             
    0.000 999%   0.000 NAA+NAAG                                            
    0.000 999%   0.000 Ins+Glyc                                            
    0.000 999%   0.000 Cr+PCr                                              
    0.000 999%   0.000 Glu+Gln                                             
   6 lines in following misc. output table
  FWHM = 0.089 ppm    S/N =   0                                            
  Data shift = 0.224 ppm                                                   
  Ph: -78 deg      42.6 deg/ppm                                            
  alphaB,S = 7.5E-01,   4.0E-01                                            
    8 spline knots.   Ns = 5(1)                                            
   2 inflections.     1 extrema                                            
  363 points on ppm-axis = NY
      4.250000     4.238821     4.227641     4.216462     4.205282     4.194103     4.182923     4.171744     4.160564     4.149385
      4.138206     4.127026     4.115847     4.104667     4.093488     4.082308     4.071129     4.059949     4.048770     4.037591
      4.026411     4.015232     4.004052     3.992873     3.981693     3.970514     3.959334     3.948155     3.936975     3.925796
      3.914617     3.903437     3.892258     3.881078     3.869899     3.858719     3.847540     3.836360     3.825181     3.814002
      3.802822     3.791643     3.780463     3.769284     3.758104     3.746925     3.735745     3.724566     3.713387     3.702207
      3.691028     3.679848     3.668669     3.657489     3.646310     3.635130     3.623951     3.612772     3.601592     3.590413
      3.579233     3.568054     3.556874     3.545695     3.534515     3.523336     3.512156     3.500977     3.489798     3.478618
      3.467439     3.456259     3.445080     3.433900     3.422721     3.411541     3.400362     3.389183     3.378003     3.366824
      3.355644     3.344465     3.333285     3.322106     3.310926     3.299747     3.288568     3.277388     3.266209     3.255029
      3.243850     3.232670     3.221491     3.210311     3.199132     3.187953     3.176773     3.165594     3.154414     3.143235
      3.132055     3.120876     3.109696     3.098517     3.087337     3.076158     3.064979     3.053799     3.042620     3.031440
      3.020261     3.009081     2.997902     2.986722     2.975543     2.964364     2.953184     2.942005     2.930825     2.919646
      2.908466     2.897287     2.886107     2.874928     2.863749     2.852569     2.841390     2.830210     2.819031     2.807851
      2.796672     2.785492     2.774313     2.763134     2.751954     2.740775     2.729595     2.718416     2.707236     2.696057
      2.684877     2.673698     2.662519     2.651339     2.640160     2.628980     2.617801     2.606621     2.595442     2.584262
      2.573083     2.561903     2.550724     2.539545     2.528365     2.517186     2.506006     2.494827     2.483647     2.472468
      2.461288     2.450109     2.438930     2.427750     2.416571     2.405391     2.394212     2.383032     2.371853     2.360673
      2.349494     2.338315     2.327135     2.315956     2.304776     2.293597     2.282417     2.271238     2.260058     2.248879
      2.237700     2.226520     2.215341     2.204161     2.192982     2.181802     2.170623     2.159443     2.148264     2.137084
      2.125905     2.114726     2.103546     2.092367     2.081187     2.070008     2.058828     2.047649     2.036469     2.025290
      2.014111     2.002931     1.991752     1.980572     1.969393     1.958213     1.947034     1.935854     1.924675     1.913496
      1.902316     1.891137     1.879957     1.868778     1.857598     1.846419     1.835239     1.824060     1.812881     1.801701
      1.790522     1.779342     1.768163     1.756983     1.745804     1.734624     1.723445     1.712265     1.701086     1.689907
      1.678727     1.667548     1.656368     1.645189     1.634009     1.622830     1.611650     1.600471     1.589292     1.578112
      1.566933     1.555753     1.544574     1.533394     1.522215     1.511035     1.499856     1.488677     1.477497     1.466318
      1.455138     1.443959     1.432779     1.421600     1.410420     1.399241     1.388062     1.376882     1.365703     1.354523
      1.343344     1.332164     1.320985     1.309805     1.298626     1.287446     1.276267     1.265088     1.253908     1.242729
      1.231549     1.220370     1.209190     1.198011     1.186831     1.175652     1.164473     1.153293     1.142114     1.130934
      1.119755     1.108575     1.097396     1.086216     1.075037     1.063858     1.052678     1.041499     1.030319     1.019140
      1.007960     0.996781     0.985601     0.974422     0.963243     0.952063     0.940884     0.929704     0.918525     0.907345
      0.896166     0.884986     0.873807     0.862628     0.851448     0.840269     0.829089     0.817910     0.806730     0.795551
      0.784371     0.773192     0.762012     0.750833     0.739654     0.728474     0.717295     0.706115     0.694936     0.683756
      0.672577     0.661397     0.650218     0.639039     0.627859     0.616680     0.605500     0.594321     0.583141     0.571962
      0.560782     0.549603     0.538424     0.527244     0.516065     0.504885     0.493706     0.482526     0.471347     0.460167
      0.448988     0.437809     0.426629     0.415450     0.404270     0.393091     0.381911     0.370732     0.359552     0.348373
      0.337193     0.326014     0.314835     0.303655     0.292476     0.281296     0.270117     0.258937     0.247758     0.236578
      0.225399     0.214220     0.203040
 NY phased data points follow
  -2.46990E-09 -4.11640E-09 -2.17384E-09 -4.24723E-09 -2.00486E-09 -3.78862E-09 -2.18029E-09 -3.26754E-09 -1.37813E-09 -3.22229E-09
  -2.43841E-09 -4.14621E-09 -3.44767E-09 -5.81336E-09 -5.51580E-09 -6.85191E-09 -6.11318E-09 -7.48861E-09 -6.40106E-09 -7.87945E-09
  -6.29043E-09 -7.61817E-09 -6.44047E-09 -7.17512E-09 -5.73884E-09 -7.29271E-09 -6.45188E-09 -7.56123E-09 -6.75075E-09 -7.97923E-09
  -6.61581E-09 -7.73073E-09 -7.15177E-09 -7.71189E-09 -6.75740E-09 -7.83044E-09 -6.45574E-09 -7.74626E-09 -6.60244E-09 -7.90338E-09
  -6.69877E-09 -7.91788E-09 -6.71956E-09 -7.92470E-09 -7.34600E-09 -8.75738E-09 -8.26857E-09 -8.84800E-09 -7.96624E-09 -9.52642E-09
  -7.67989E-09 -8.65283E-09 -7.77500E-09 -8.03964E-09 -7.10764E-09 -7.85362E-09 -6.70220E-09 -7.35172E-09 -6.41625E-09 -6.62190E-09
  -6.00000E-09 -6.59031E-09 -5.31747E-09 -6.23577E-09 -4.96551E-09 -6.03116E-09 -4.55927E-09 -5.61071E-09 -5.04661E-09 -5.42182E-09
  -4.53419E-09 -5.17702E-09 -4.60711E-09 -5.80831E-09 -5.08431E-09 -6.41918E-09 -6.11507E-09 -7.24323E-09 -7.34257E-09 -7.78084E-09
  -6.41421E-09 -7.13383E-09 -6.34927E-09 -6.53550E-09 -5.69558E-09 -6.10192E-09 -5.13181E-09 -5.89007E-09 -4.63490E-09 -5.29357E-09
  -5.59957E-09 -7.31050E-09 -7.52054E-09 -8.99408E-09 -8.84213E-09 -9.99375E-09 -9.62775E-09 -9.77995E-09 -9.07965E-09 -9.65598E-09
  -8.55542E-09 -9.24905E-09 -8.65679E-09 -9.06096E-09 -8.11870E-09 -8.36659E-09 -7.07877E-09 -7.72441E-09 -6.30209E-09 -7.26438E-09
  -6.34381E-09 -6.42978E-09 -5.89999E-09 -5.95083E-09 -5.38749E-09 -6.07687E-09 -5.17544E-09 -5.96817E-09 -4.96386E-09 -5.42927E-09
  -4.50505E-09 -4.97164E-09 -3.80813E-09 -4.21060E-09 -3.43671E-09 -3.86030E-09 -3.51109E-09 -4.08544E-09 -3.40155E-09 -3.74621E-09
  -3.60570E-09 -4.15928E-09 -3.19031E-09 -4.05028E-09 -2.81001E-09 -3.55031E-09 -2.79917E-09 -3.29039E-09 -2.30567E-09 -3.05465E-09
  -2.55222E-09 -3.44373E-09 -2.34325E-09 -3.33634E-09 -2.81352E-09 -3.63386E-09 -2.23810E-09 -3.48063E-09 -2.63225E-09 -3.67714E-09
  -2.88162E-09 -4.32237E-09 -3.67826E-09 -4.72162E-09 -4.07379E-09 -5.34630E-09 -4.16658E-09 -5.48858E-09 -4.84226E-09 -5.55318E-09
  -4.65506E-09 -5.49905E-09 -5.04853E-09 -5.93745E-09 -4.57299E-09 -5.50917E-09 -4.96010E-09 -5.55079E-09 -4.89489E-09 -5.73617E-09
  -4.80896E-09 -6.13046E-09 -4.82527E-09 -6.02427E-09 -5.24184E-09 -6.28515E-09 -5.40311E-09 -6.74982E-09 -5.86128E-09 -7.68323E-09
  -7.26654E-09 -9.02058E-09 -8.40116E-09 -9.57139E-09 -9.14691E-09 -9.24878E-09 -8.12435E-09 -7.93206E-09 -5.84578E-09 -5.67397E-09
  -3.60592E-09 -3.84928E-09 -1.81465E-09 -1.53126E-09  1.64026E-10 -9.45546E-11  2.39953E-09  1.91342E-09  3.77925E-09  4.15714E-09
   6.68312E-09  6.15448E-09  8.65516E-09  9.10757E-09  1.09560E-08  1.10537E-08  1.40003E-08  1.38773E-08  1.62938E-08  1.63667E-08
   1.76696E-08  1.69823E-08  1.89453E-08  1.78259E-08  1.83394E-08  1.66245E-08  1.62173E-08  1.35451E-08  1.31735E-08  1.00915E-08
   9.53754E-09  6.51182E-09  5.83647E-09  3.11388E-09  2.57446E-09  7.45385E-10  5.19341E-10 -1.10925E-09 -7.58884E-10 -1.39884E-09
  -2.78389E-10 -1.32089E-09  2.69339E-10 -1.14221E-09 -1.80959E-10 -1.32900E-09  2.56918E-10 -1.08239E-09  5.20344E-10 -4.22883E-10
   5.91500E-10 -5.11276E-10  6.99787E-10 -7.96761E-10  1.44852E-10 -6.55787E-10  5.72353E-10 -8.51454E-10  2.10222E-10 -1.00674E-09
   1.79758E-10 -4.89539E-10  5.09727E-10 -4.22101E-10  3.67068E-10 -8.40837E-10 -1.13111E-10 -9.95131E-10  1.67339E-10 -1.24593E-09
   3.73030E-11 -1.21239E-09  6.20071E-11 -1.45147E-09  4.39907E-11 -8.74389E-10  1.85530E-10 -7.61102E-10 -2.26944E-10 -1.06204E-09
   1.29064E-10 -8.80304E-10  2.38905E-10 -7.76886E-10  2.22118E-10 -1.02630E-09  4.89788E-11 -1.03500E-09 -3.38395E-10 -1.59020E-09
  -5.99623E-10 -1.60168E-09 -4.70237E-10 -1.49688E-09 -9.33010E-10 -1.98792E-09 -1.99708E-10 -1.45406E-09 -8.53681E-10 -1.60599E-09
  -7.18804E-12 -1.29322E-09 -3.44511E-10 -8.41349E-10  1.55249E-10 -1.17312E-09  2.35031E-10 -1.32695E-09  1.48174E-10 -8.67136E-10
  -4.92242E-10 -1.14946E-09  2.21241E-10 -1.13689E-09 -4.87856E-10 -1.48661E-09 -6.55910E-10 -9.45746E-10 -6.89451E-10 -1.15552E-09
  -7.19098E-10 -1.19891E-09 -3.42349E-10 -1.14387E-09 -6.50249E-10 -1.54866E-09 -5.58197E-10 -1.70478E-09 -6.89087E-10 -1.77810E-09
  -1.10417E-09 -1.61057E-09 -7.98871E-10 -1.40979E-09 -8.03604E-10 -1.69852E-09 -8.87017E-10 -2.03113E-09 -8.96091E-10 -1.89234E-09
  -8.06772E-10 -1.74861E-09 -1.02841E-09 -2.02121E-09 -8.58273E-10 -1.96977E-09 -1.36823E-09 -2.28035E-09 -1.59525E-09 -1.85083E-09
  -1.52760E-09 -2.25430E-09 -1.48856E-09 -2.40507E-09 -1.20352E-09 -2.58881E-09 -1.26197E-09 -2.66202E-09 -1.64191E-09 -2.54478E-09
  -1.48003E-09 -2.75041E-09 -1.56552E-09 -2.52226E-09 -2.03869E-09 -2.61439E-09 -1.87717E-09 -2.70466E-09 -1.79329E-09 -2.42849E-09
  -1.96362E-09 -2.51646E-09 -1.78495E-09
 NY points of the fit to the data follow
  -5.27847E-09 -5.28101E-09 -5.29304E-09 -5.31500E-09 -5.34993E-09 -5.39788E-09 -5.45512E-09 -5.52239E-09 -5.59563E-09 -5.66789E-09
  -5.72219E-09 -5.76430E-09 -5.80344E-09 -5.83906E-09 -5.87297E-09 -5.90584E-09 -5.93795E-09 -5.96944E-09 -6.00038E-09 -6.03080E-09
  -6.06072E-09 -6.09015E-09 -6.11908E-09 -6.14751E-09 -6.17543E-09 -6.20281E-09 -6.22961E-09 -6.25580E-09 -6.28123E-09 -6.30580E-09
  -6.32942E-09 -6.35191E-09 -6.37279E-09 -6.39040E-09 -6.40116E-09 -6.40660E-09 -6.41071E-09 -6.41347E-09 -6.41713E-09 -6.42674E-09
  -6.44315E-09 -6.46565E-09 -6.49390E-09 -6.52809E-09 -6.56432E-09 -6.59925E-09 -6.62817E-09 -6.65546E-09 -6.67545E-09 -6.68982E-09
  -6.69991E-09 -6.70586E-09 -6.71049E-09 -6.71412E-09 -6.71460E-09 -6.71532E-09 -6.71988E-09 -6.72693E-09 -6.73604E-09 -6.74889E-09
  -6.76480E-09 -6.78102E-09 -6.79603E-09 -6.81038E-09 -6.82379E-09 -6.83194E-09 -6.83616E-09 -6.83924E-09 -6.83943E-09 -6.83664E-09
  -6.83002E-09 -6.82164E-09 -6.81220E-09 -6.79953E-09 -6.78568E-09 -6.77356E-09 -6.76225E-09 -6.75163E-09 -6.74348E-09 -6.73809E-09
  -6.73435E-09 -6.73030E-09 -6.72618E-09 -6.72296E-09 -6.71583E-09 -6.70626E-09 -6.69577E-09 -6.68242E-09 -6.66698E-09 -6.64997E-09
  -6.63162E-09 -6.61207E-09 -6.59137E-09 -6.56958E-09 -6.54670E-09 -6.52276E-09 -6.49778E-09 -6.47177E-09 -6.44471E-09 -6.41661E-09
  -6.38748E-09 -6.35731E-09 -6.32610E-09 -6.29385E-09 -6.26055E-09 -6.22621E-09 -6.19080E-09 -6.15436E-09 -6.11684E-09 -6.07825E-09
  -6.03861E-09 -5.99788E-09 -5.95607E-09 -5.91317E-09 -5.86918E-09 -5.82410E-09 -5.77793E-09 -5.73065E-09 -5.68225E-09 -5.63275E-09
  -5.58211E-09 -5.53037E-09 -5.47748E-09 -5.42346E-09 -5.36830E-09 -5.31199E-09 -5.25452E-09 -5.19591E-09 -5.13613E-09 -5.07518E-09
  -5.01306E-09 -4.94976E-09 -4.88528E-09 -4.81961E-09 -4.75275E-09 -4.68467E-09 -4.61541E-09 -4.54493E-09 -4.47324E-09 -4.40031E-09
  -4.32617E-09 -4.25079E-09 -4.17418E-09 -4.09632E-09 -4.01722E-09 -3.93686E-09 -3.85526E-09 -3.77246E-09 -3.68853E-09 -3.60350E-09
  -3.51744E-09 -3.43041E-09 -3.34244E-09 -3.25361E-09 -3.16394E-09 -3.07351E-09 -2.98236E-09 -2.89054E-09 -2.79810E-09 -2.70509E-09
  -2.61153E-09 -2.51748E-09 -2.42293E-09 -2.32789E-09 -2.23225E-09 -2.13562E-09 -2.03637E-09 -1.92962E-09 -1.81580E-09 -1.70334E-09
  -1.59652E-09 -1.49405E-09 -1.39652E-09 -1.30470E-09 -1.21801E-09 -1.13529E-09 -1.05751E-09 -9.81428E-10 -9.02377E-10 -8.13797E-10
  -7.23464E-10 -6.33059E-10 -5.43020E-10 -4.53590E-10 -3.64868E-10 -2.76942E-10 -1.89892E-10 -1.03813E-10 -1.87051E-11  6.53410E-11
   1.48246E-10  2.30001E-10  3.10521E-10  3.89766E-10  4.67648E-10  5.44145E-10  6.19215E-10  6.92752E-10  7.64726E-10  8.35108E-10
   9.03820E-10  9.70812E-10  1.03602E-09  1.09940E-09  1.16092E-09  1.22048E-09  1.27805E-09  1.33358E-09  1.38703E-09  1.43829E-09
   1.48738E-09  1.53419E-09  1.57869E-09  1.62082E-09  1.66055E-09  1.69777E-09  1.73248E-09  1.76462E-09  1.79410E-09  1.82098E-09
   1.84529E-09  1.86709E-09  1.88641E-09  1.90329E-09  1.91778E-09  1.92993E-09  1.93979E-09  1.94739E-09  1.95277E-09  1.95600E-09
   1.95711E-09  1.95614E-09  1.95314E-09  1.94816E-09  1.94124E-09  1.93243E-09  1.92176E-09  1.90929E-09  1.89506E-09  1.87911E-09
   1.86149E-09  1.84225E-09  1.82143E-09  1.79907E-09  1.77521E-09  1.74991E-09  1.72321E-09  1.69515E-09  1.66578E-09  1.63514E-09
   1.60328E-09  1.57024E-09  1.53608E-09  1.50081E-09  1.46450E-09  1.42720E-09  1.38895E-09  1.34978E-09  1.30975E-09  1.26889E-09
   1.22727E-09  1.18491E-09  1.14188E-09  1.09820E-09  1.05392E-09  1.00909E-09  9.63772E-10  9.17972E-10  8.71761E-10  8.25185E-10
   7.78275E-10  7.31080E-10  6.83658E-10  6.36028E-10  5.88268E-10  5.40392E-10  4.92462E-10  4.44525E-10  3.96606E-10  3.48766E-10
   3.01055E-10  2.53505E-10  2.06173E-10  1.59084E-10  1.12300E-10  6.58622E-11  1.98217E-11 -2.58090E-11 -7.09443E-11 -1.15556E-10
  -1.59612E-10 -2.03069E-10 -2.45948E-10 -2.88260E-10 -3.30017E-10 -3.71222E-10 -4.11902E-10 -4.52055E-10 -4.91699E-10 -5.30843E-10
  -5.69497E-10 -6.07677E-10 -6.45387E-10 -6.82645E-10 -7.19463E-10 -7.55849E-10 -7.91811E-10 -8.27363E-10 -8.62521E-10 -8.97294E-10
  -9.31689E-10 -9.65725E-10 -9.99402E-10 -1.03275E-09 -1.06575E-09 -1.09845E-09 -1.13083E-09 -1.16293E-09 -1.19473E-09 -1.22626E-09
  -1.25753E-09 -1.28856E-09 -1.31935E-09 -1.34990E-09 -1.38024E-09 -1.41039E-09 -1.44032E-09 -1.47009E-09 -1.49967E-09 -1.52911E-09
  -1.55839E-09 -1.58753E-09 -1.61656E-09 -1.64547E-09 -1.67427E-09 -1.70298E-09 -1.73161E-09 -1.76018E-09 -1.78868E-09 -1.81715E-09
  -1.84557E-09 -1.87398E-09 -1.90237E-09 -1.93076E-09 -1.95918E-09 -1.98759E-09 -2.01606E-09 -2.04455E-09 -2.07312E-09 -2.10174E-09
  -2.13045E-09 -2.15924E-09 -2.18814E-09 -2.21715E-09 -2.24628E-09 -2.27556E-09 -2.30497E-09 -2.33455E-09 -2.36429E-09 -2.39421E-09
  -2.42433E-09 -2.45466E-09 -2.48518E-09
 NY background values follow
    -5.411E-09   -5.447E-09   -5.482E-09   -5.517E-09   -5.552E-09   -5.587E-09   -5.622E-09   -5.656E-09   -5.690E-09   -5.723E-09
    -5.757E-09   -5.790E-09   -5.822E-09   -5.855E-09   -5.887E-09   -5.918E-09   -5.950E-09   -5.981E-09   -6.011E-09   -6.041E-09
    -6.071E-09   -6.100E-09   -6.129E-09   -6.158E-09   -6.186E-09   -6.213E-09   -6.241E-09   -6.267E-09   -6.294E-09   -6.319E-09
    -6.345E-09   -6.369E-09   -6.394E-09   -6.417E-09   -6.441E-09   -6.463E-09   -6.486E-09   -6.507E-09   -6.528E-09   -6.549E-09
    -6.569E-09   -6.588E-09   -6.607E-09   -6.625E-09   -6.643E-09   -6.660E-09   -6.676E-09   -6.692E-09   -6.707E-09   -6.721E-09
    -6.735E-09   -6.748E-09   -6.760E-09   -6.772E-09   -6.783E-09   -6.793E-09   -6.803E-09   -6.812E-09   -6.820E-09   -6.827E-09
    -6.834E-09   -6.839E-09   -6.845E-09   -6.849E-09   -6.852E-09   -6.855E-09   -6.857E-09   -6.858E-09   -6.859E-09   -6.858E-09
    -6.857E-09   -6.854E-09   -6.851E-09   -6.848E-09   -6.843E-09   -6.837E-09   -6.831E-09   -6.823E-09   -6.815E-09   -6.806E-09
    -6.795E-09   -6.784E-09   -6.772E-09   -6.760E-09   -6.746E-09   -6.731E-09   -6.715E-09   -6.699E-09   -6.681E-09   -6.663E-09
    -6.643E-09   -6.623E-09   -6.601E-09   -6.579E-09   -6.556E-09   -6.531E-09   -6.506E-09   -6.480E-09   -6.452E-09   -6.424E-09
    -6.395E-09   -6.365E-09   -6.333E-09   -6.301E-09   -6.267E-09   -6.233E-09   -6.197E-09   -6.161E-09   -6.123E-09   -6.085E-09
    -6.045E-09   -6.004E-09   -5.962E-09   -5.919E-09   -5.875E-09   -5.830E-09   -5.784E-09   -5.737E-09   -5.688E-09   -5.639E-09
    -5.588E-09   -5.536E-09   -5.483E-09   -5.429E-09   -5.374E-09   -5.318E-09   -5.260E-09   -5.202E-09   -5.142E-09   -5.081E-09
    -5.019E-09   -4.955E-09   -4.891E-09   -4.825E-09   -4.758E-09   -4.690E-09   -4.621E-09   -4.551E-09   -4.479E-09   -4.406E-09
    -4.332E-09   -4.256E-09   -4.180E-09   -4.102E-09   -4.023E-09   -3.942E-09   -3.861E-09   -3.778E-09   -3.694E-09   -3.609E-09
    -3.523E-09   -3.436E-09   -3.348E-09   -3.259E-09   -3.170E-09   -3.079E-09   -2.988E-09   -2.897E-09   -2.804E-09   -2.711E-09
    -2.618E-09   -2.524E-09   -2.430E-09   -2.336E-09   -2.241E-09   -2.146E-09   -2.051E-09   -1.955E-09   -1.860E-09   -1.765E-09
    -1.669E-09   -1.574E-09   -1.479E-09   -1.384E-09   -1.290E-09   -1.196E-09   -1.102E-09   -1.008E-09   -9.153E-10   -8.229E-10
    -7.310E-10   -6.399E-10   -5.494E-10   -4.596E-10   -3.707E-10   -2.826E-10   -1.955E-10   -1.093E-10   -2.411E-11    5.999E-11
     1.429E-10    2.247E-10    3.053E-10    3.846E-10    4.625E-10    5.390E-10    6.141E-10    6.876E-10    7.596E-10    8.300E-10
     8.987E-10    9.657E-10    1.031E-09    1.094E-09    1.156E-09    1.215E-09    1.273E-09    1.329E-09    1.382E-09    1.433E-09
     1.482E-09    1.529E-09    1.574E-09    1.616E-09    1.656E-09    1.693E-09    1.727E-09    1.760E-09    1.789E-09    1.816E-09
     1.840E-09    1.862E-09    1.881E-09    1.898E-09    1.913E-09    1.925E-09    1.935E-09    1.942E-09    1.948E-09    1.951E-09
     1.952E-09    1.951E-09    1.948E-09    1.943E-09    1.936E-09    1.927E-09    1.917E-09    1.904E-09    1.890E-09    1.874E-09
     1.857E-09    1.837E-09    1.816E-09    1.794E-09    1.770E-09    1.745E-09    1.718E-09    1.690E-09    1.661E-09    1.630E-09
     1.598E-09    1.565E-09    1.531E-09    1.496E-09    1.460E-09    1.422E-09    1.384E-09    1.345E-09    1.305E-09    1.264E-09
     1.222E-09    1.180E-09    1.137E-09    1.093E-09    1.049E-09    1.004E-09    9.589E-10    9.131E-10    8.669E-10    8.203E-10
     7.734E-10    7.262E-10    6.788E-10    6.311E-10    5.834E-10    5.355E-10    4.876E-10    4.396E-10    3.917E-10    3.439E-10
     2.962E-10    2.486E-10    2.013E-10    1.542E-10    1.074E-10    6.098E-11    1.494E-11   -3.069E-11   -7.582E-11   -1.204E-10
    -1.645E-10   -2.079E-10   -2.508E-10   -2.931E-10   -3.349E-10   -3.761E-10   -4.168E-10   -4.569E-10   -4.966E-10   -5.357E-10
    -5.744E-10   -6.125E-10   -6.502E-10   -6.875E-10   -7.243E-10   -7.607E-10   -7.967E-10   -8.322E-10   -8.674E-10   -9.021E-10
    -9.365E-10   -9.706E-10   -1.004E-09   -1.038E-09   -1.071E-09   -1.103E-09   -1.136E-09   -1.168E-09   -1.200E-09   -1.231E-09
    -1.262E-09   -1.293E-09   -1.324E-09   -1.355E-09   -1.385E-09   -1.415E-09   -1.445E-09   -1.475E-09   -1.505E-09   -1.534E-09
    -1.563E-09   -1.592E-09   -1.621E-09   -1.650E-09   -1.679E-09   -1.708E-09   -1.736E-09   -1.765E-09   -1.793E-09   -1.822E-09
    -1.850E-09   -1.879E-09   -1.907E-09   -1.936E-09   -1.964E-09   -1.992E-09   -2.021E-09   -2.049E-09   -2.078E-09   -2.107E-09
    -2.135E-09   -2.164E-09   -2.193E-09   -2.222E-09   -2.251E-09   -2.280E-09   -2.310E-09   -2.339E-09   -2.369E-09   -2.399E-09
    -2.429E-09   -2.459E-09   -2.490E-09
 GSH      Conc. = 3.42E-11
  -5.27847E-09 -5.28101E-09 -5.29304E-09 -5.31500E-09 -5.34993E-09 -5.39788E-09 -5.45512E-09 -5.52239E-09 -5.59563E-09 -5.66789E-09
  -5.72219E-09 -5.76430E-09 -5.80344E-09 -5.83906E-09 -5.87297E-09 -5.90584E-09 -5.93795E-09 -5.96944E-09 -6.00038E-09 -6.03080E-09
  -6.06072E-09 -6.09015E-09 -6.11908E-09 -6.14751E-09 -6.17543E-09 -6.20281E-09 -6.22961E-09 -6.25580E-09 -6.28123E-09 -6.30580E-09
  -6.32942E-09 -6.35191E-09 -6.37279E-09 -6.39040E-09 -6.40116E-09 -6.40660E-09 -6.41071E-09 -6.41347E-09 -6.41713E-09 -6.42674E-09
  -6.44315E-09 -6.46565E-09 -6.49390E-09 -6.52809E-09 -6.56432E-09 -6.59925E-09 -6.62817E-09 -6.65546E-09 -6.67545E-09 -6.68982E-09
  -6.69991E-09 -6.70586E-09 -6.71049E-09 -6.71412E-09 -6.71460E-09 -6.71532E-09 -6.71988E-09 -6.72693E-09 -6.73604E-09 -6.74889E-09
  -6.76480E-09 -6.78102E-09 -6.79603E-09 -6.81038E-09 -6.82379E-09 -6.83194E-09 -6.83616E-09 -6.83924E-09 -6.83943E-09 -6.83664E-09
  -6.83002E-09 -6.82164E-09 -6.81220E-09 -6.79953E-09 -6.78568E-09 -6.77356E-09 -6.76225E-09 -6.75163E-09 -6.74348E-09 -6.73809E-09
  -6.73435E-09 -6.73030E-09 -6.72618E-09 -6.72296E-09 -6.71583E-09 -6.70626E-09 -6.69577E-09 -6.68242E-09 -6.66698E-09 -6.64997E-09
  -6.63162E-09 -6.61207E-09 -6.59137E-09 -6.56958E-09 -6.54670E-09 -6.52276E-09 -6.49778E-09 -6.47177E-09 -6.44471E-09 -6.41661E-09
  -6.38748E-09 -6.35731E-09 -6.32610E-09 -6.29385E-09 -6.26055E-09 -6.22621E-09 -6.19080E-09 -6.15436E-09 -6.11684E-09 -6.07825E-09
  -6.03861E-09 -5.99788E-09 -5.95607E-09 -5.91317E-09 -5.86918E-09 -5.82410E-09 -5.77793E-09 -5.73065E-09 -5.68225E-09 -5.63275E-09
  -5.58211E-09 -5.53037E-09 -5.47748E-09 -5.42346E-09 -5.36830E-09 -5.31199E-09 -5.25452E-09 -5.19591E-09 -5.13613E-09 -5.07518E-09
  -5.01306E-09 -4.94976E-09 -4.88528E-09 -4.81961E-09 -4.75275E-09 -4.68467E-09 -4.61541E-09 -4.54493E-09 -4.47324E-09 -4.40031E-09
  -4.32617E-09 -4.25079E-09 -4.17418E-09 -4.09632E-09 -4.01722E-09 -3.93686E-09 -3.85526E-09 -3.77246E-09 -3.68853E-09 -3.60350E-09
  -3.51744E-09 -3.43041E-09 -3.34244E-09 -3.25361E-09 -3.16394E-09 -3.07351E-09 -2.98236E-09 -2.89054E-09 -2.79810E-09 -2.70509E-09
  -2.61153E-09 -2.51748E-09 -2.42293E-09 -2.32789E-09 -2.23225E-09 -2.13562E-09 -2.03637E-09 -1.92962E-09 -1.81580E-09 -1.70334E-09
  -1.59652E-09 -1.49405E-09 -1.39652E-09 -1.30470E-09 -1.21801E-09 -1.13529E-09 -1.05751E-09 -9.81428E-10 -9.02377E-10 -8.13797E-10
  -7.23464E-10 -6.33059E-10 -5.43020E-10 -4.53590E-10 -3.64868E-10 -2.76942E-10 -1.89892E-10 -1.03813E-10 -1.87051E-11  6.53410E-11
   1.48246E-10  2.30001E-10  3.10521E-10  3.89766E-10  4.67648E-10  5.44145E-10  6.19215E-10  6.92752E-10  7.64726E-10  8.35108E-10
   9.03820E-10  9.70812E-10  1.03602E-09  1.09940E-09  1.16092E-09  1.22048E-09  1.27805E-09  1.33358E-09  1.38703E-09  1.43829E-09
   1.48738E-09  1.53419E-09  1.57869E-09  1.62082E-09  1.66055E-09  1.69777E-09  1.73248E-09  1.76462E-09  1.79410E-09  1.82098E-09
   1.84529E-09  1.86709E-09  1.88641E-09  1.90329E-09  1.91778E-09  1.92993E-09  1.93979E-09  1.94739E-09  1.95277E-09  1.95600E-09
   1.95711E-09  1.95614E-09  1.95314E-09  1.94816E-09  1.94124E-09  1.93243E-09  1.92176E-09  1.90929E-09  1.89506E-09  1.87911E-09
   1.86149E-09  1.84225E-09  1.82143E-09  1.79907E-09  1.77521E-09  1.74991E-09  1.72321E-09  1.69515E-09  1.66578E-09  1.63514E-09
   1.60328E-09  1.57024E-09  1.53608E-09  1.50081E-09  1.46450E-09  1.42720E-09  1.38895E-09  1.34978E-09  1.30975E-09  1.26889E-09
   1.22727E-09  1.18491E-09  1.14188E-09  1.09820E-09  1.05392E-09  1.00909E-09  9.63772E-10  9.17972E-10  8.71761E-10  8.25185E-10
   7.78275E-10  7.31080E-10  6.83658E-10  6.36028E-10  5.88268E-10  5.40392E-10  4.92462E-10  4.44525E-10  3.96606E-10  3.48766E-10
   3.01055E-10  2.53505E-10  2.06173E-10  1.59084E-10  1.12300E-10  6.58622E-11  1.98217E-11 -2.58090E-11 -7.09443E-11 -1.15556E-10
  -1.59612E-10 -2.03069E-10 -2.45948E-10 -2.88260E-10 -3.30017E-10 -3.71222E-10 -4.11902E-10 -4.52055E-10 -4.91699E-10 -5.30843E-10
  -5.69497E-10 -6.07677E-10 -6.45387E-10 -6.82645E-10 -7.19463E-10 -7.55849E-10 -7.91811E-10 -8.27363E-10 -8.62521E-10 -8.97294E-10
  -9.31689E-10 -9.65725E-10 -9.99402E-10 -1.03275E-09 -1.06575E-09 -1.09845E-09 -1.13083E-09 -1.16293E-09 -1.19473E-09 -1.22626E-09
  -1.25753E-09 -1.28856E-09 -1.31935E-09 -1.34990E-09 -1.38024E-09 -1.41039E-09 -1.44032E-09 -1.47009E-09 -1.49967E-09 -1.52911E-09
  -1.55839E-09 -1.58753E-09 -1.61656E-09 -1.64547E-09 -1.67427E-09 -1.70298E-09 -1.73161E-09 -1.76018E-09 -1.78868E-09 -1.81715E-09
  -1.84557E-09 -1.87398E-09 -1.90237E-09 -1.93076E-09 -1.95918E-09 -1.98759E-09 -2.01606E-09 -2.04455E-09 -2.07312E-09 -2.10174E-09
  -2.13045E-09 -2.15924E-09 -2.18814E-09 -2.21715E-09 -2.24628E-09 -2.27556E-09 -2.30497E-09 -2.33455E-09 -2.36429E-09 -2.39421E-09
  -2.42433E-09 -2.45466E-09 -2.48518E-09
   7 lines in following diagnostic table:
   1 ERROR     MYBASI 10                                                  
   4 ERRORS    AREABA  3                                                  
   1 warning   STARTV  5                                                  
   2 info's    PNNLS   1                                                  
   1 info      STARTV 13                                                  
   1 warning   STARTV 25                                                  
   1 info      STARTV 20                                                  
  79 lines in following table of input changes:
ATTH2O=1.0                                                                
FILH2O='/mnt/c/Users/divya/Downloads/Lexar/DataFo                         
   rDivya/meas_MID01415_FID95676_lb_RosetteSpinEc                         
   ho_ek_v1a_lcm/30x19_ftSpec_smooth_lcm_w'                               
DOWS=T                                                                    
DOECC=T                                                                   
CHRATO(8)='MM9/MM1 = 1.40 +- 0.7'                                         
CHRATO(7)='MM8/MM1 = 0.33 +- 0.17'                                        
CHRATO(6)='MM7/MM1 = 0.54 +- 0.27'                                        
CHRATO(5)='MM6/MM1 = 0.63 +- 0.16'                                        
CHRATO(4)='MM5/MM1 = 3.16 +- 0.79'                                        
CHRATO(3)='MM4/MM1 = 1.29 +- 1.03'                                        
CHRATO(2)='MM3/MM1 = 1.05 +- 0.63'                                        
CHRATO(1)='MM2/MM1 = 0.51 +- 0.17'                                        
NRATIO=8                                                                  
NORATO(7)='-CrCH2/totCr'                                                  
NORATO(6)='MM17/MM09*'                                                    
NORATO(5)='MM14/MM09*'                                                    
NORATO(4)='MM12/MM09*'                                                    
NORATO(3)='MM20/MM09*'                                                    
NORATO(2)='Lip20/Lip13*'                                                  
NORATO(1)='Lip09/Lip13*'                                                  
NNORAT=7                                                                  
CHOMIT(14)='-CrCH2'                                                       
CHOMIT(13)='MM17'                                                         
CHOMIT(12)='MM14'                                                         
CHOMIT(11)='MM12'                                                         
CHOMIT(10)='MM20'                                                         
CHOMIT(9)='Lip20'                                                         
CHOMIT(8)='MM09'                                                          
CHOMIT(7)='Lip09'                                                         
CHOMIT(6)='Lip13d'                                                        
CHOMIT(5)='Lip13c'                                                        
CHOMIT(4)='Lip13b'                                                        
