 LCModel (Version 6.3-1R) Copyright: S.W. Provencher.          Ref.: Magn. Reson. Med. 30:672-679 (1993).                
 onepulse 30x16_ftSpec_smooth_lcm
 26 lines in following concentration table = NCONC+1
    Conc.  %SD   /Cr    Metabolite                                         
    0.000 999%   0.000 Ala                                                 
    0.000 999%   0.000 Asp                                                 
    0.000 999%   0.000 Cr                                                  
 1.04E-09  40%   0.000 GABA                                                
 1.11E-09  39%   0.000 Glc                                                 
    0.000 999%   0.000 Gln                                                 
 3.60E-10 125%   0.000 Glu                                                 
    0.000 999%   0.000 Glyc                                                
 6.59E-11 112%   0.000 GPC                                                 
 2.15E-10 129%   0.000 GSH                                                 
 1.15E-10 274%   0.000 Ins                                                 
    0.000 999%   0.000 Lac                                                 
    0.000 999%   0.000 NAAG                                                
 4.78E-10  48%   0.000 NAA                                                 
    0.000 999%   0.000 PCh                                                 
    0.000 999%   0.000 PCr                                                 
    0.000 999%   0.000 PE                                                  
    0.000 999%   0.000 Scyllo                                              
 3.93E-10 114%   0.000 Ser                                                 
    0.000 999%   0.000 Tau                                                 
 6.59E-11 112%   0.000 GPC+PCh                                             
 4.78E-10  48%   0.000 NAA+NAAG                                            
 1.15E-10 274%   0.000 Ins+Glyc                                            
    0.000 999%   0.000 Cr+PCr                                              
 3.60E-10 125%   0.000 Glu+Gln                                             
   6 lines in following misc. output table
  FWHM = 0.067 ppm    S/N =   2                                            
  Data shift = 0.291 ppm                                                   
  Ph: -42 deg     -12.7 deg/ppm                                            
  alphaB,S = 2.2E-01,   2.6E+01                                            
   10 spline knots.   Ns = 5(1)                                            
  (11) 4 infls.   ( 7) 1 extrs.                                            
  363 points on ppm-axis = NY
      4.250000     4.238821     4.227641     4.216462     4.205282     4.194103     4.182923     4.171744     4.160564     4.149385
      4.138206     4.127026     4.115847     4.104667     4.093488     4.082308     4.071129     4.059949     4.048770     4.037591
      4.026411     4.015232     4.004052     3.992873     3.981693     3.970514     3.959334     3.948155     3.936975     3.925796
      3.914617     3.903437     3.892258     3.881078     3.869899     3.858719     3.847540     3.836360     3.825181     3.814002
      3.802822     3.791643     3.780463     3.769284     3.758104     3.746925     3.735745     3.724566     3.713387     3.702207
      3.691028     3.679848     3.668669     3.657489     3.646310     3.635130     3.623951     3.612772     3.601592     3.590413
      3.579233     3.568054     3.556874     3.545695     3.534515     3.523336     3.512156     3.500977     3.489798     3.478618
      3.467439     3.456259     3.445080     3.433900     3.422721     3.411541     3.400362     3.389183     3.378003     3.366824
      3.355644     3.344465     3.333285     3.322106     3.310926     3.299747     3.288568     3.277388     3.266209     3.255029
      3.243850     3.232670     3.221491     3.210311     3.199132     3.187953     3.176773     3.165594     3.154414     3.143235
      3.132055     3.120876     3.109696     3.098517     3.087337     3.076158     3.064979     3.053799     3.042620     3.031440
      3.020261     3.009081     2.997902     2.986722     2.975543     2.964364     2.953184     2.942005     2.930825     2.919646
      2.908466     2.897287     2.886107     2.874928     2.863749     2.852569     2.841390     2.830210     2.819031     2.807851
      2.796672     2.785492     2.774313     2.763134     2.751954     2.740775     2.729595     2.718416     2.707236     2.696057
      2.684877     2.673698     2.662519     2.651339     2.640160     2.628980     2.617801     2.606621     2.595442     2.584262
      2.573083     2.561903     2.550724     2.539545     2.528365     2.517186     2.506006     2.494827     2.483647     2.472468
      2.461288     2.450109     2.438930     2.427750     2.416571     2.405391     2.394212     2.383032     2.371853     2.360673
      2.349494     2.338315     2.327135     2.315956     2.304776     2.293597     2.282417     2.271238     2.260058     2.248879
      2.237700     2.226520     2.215341     2.204161     2.192982     2.181802     2.170623     2.159443     2.148264     2.137084
      2.125905     2.114726     2.103546     2.092367     2.081187     2.070008     2.058828     2.047649     2.036469     2.025290
      2.014111     2.002931     1.991752     1.980572     1.969393     1.958213     1.947034     1.935854     1.924675     1.913496
      1.902316     1.891137     1.879957     1.868778     1.857598     1.846419     1.835239     1.824060     1.812881     1.801701
      1.790522     1.779342     1.768163     1.756983     1.745804     1.734624     1.723445     1.712265     1.701086     1.689907
      1.678727     1.667548     1.656368     1.645189     1.634009     1.622830     1.611650     1.600471     1.589292     1.578112
      1.566933     1.555753     1.544574     1.533394     1.522215     1.511035     1.499856     1.488677     1.477497     1.466318
      1.455138     1.443959     1.432779     1.421600     1.410420     1.399241     1.388062     1.376882     1.365703     1.354523
      1.343344     1.332164     1.320985     1.309805     1.298626     1.287446     1.276267     1.265088     1.253908     1.242729
      1.231549     1.220370     1.209190     1.198011     1.186831     1.175652     1.164473     1.153293     1.142114     1.130934
      1.119755     1.108575     1.097396     1.086216     1.075037     1.063858     1.052678     1.041499     1.030319     1.019140
      1.007960     0.996781     0.985601     0.974422     0.963243     0.952063     0.940884     0.929704     0.918525     0.907345
      0.896166     0.884986     0.873807     0.862628     0.851448     0.840269     0.829089     0.817910     0.806730     0.795551
      0.784371     0.773192     0.762012     0.750833     0.739654     0.728474     0.717295     0.706115     0.694936     0.683756
      0.672577     0.661397     0.650218     0.639039     0.627859     0.616680     0.605500     0.594321     0.583141     0.571962
      0.560782     0.549603     0.538424     0.527244     0.516065     0.504885     0.493706     0.482526     0.471347     0.460167
      0.448988     0.437809     0.426629     0.415450     0.404270     0.393091     0.381911     0.370732     0.359552     0.348373
      0.337193     0.326014     0.314835     0.303655     0.292476     0.281296     0.270117     0.258937     0.247758     0.236578
      0.225399     0.214220     0.203040
 NY phased data points follow
   5.25976E-09  5.64350E-09  6.40029E-09  7.92410E-09  8.47017E-09  9.96594E-09  9.92670E-09  1.05778E-08  9.05850E-09  9.17189E-09
   7.80547E-09  8.12983E-09  6.94531E-09  7.24166E-09  6.66568E-09  7.05210E-09  6.23022E-09  7.04738E-09  6.63185E-09  7.69813E-09
   6.73650E-09  7.74533E-09  6.53981E-09  6.96195E-09  6.28748E-09  7.28710E-09  5.64562E-09  5.94856E-09  5.70282E-09  6.18524E-09
   5.77122E-09  6.52080E-09  5.65015E-09  6.23713E-09  5.66220E-09  6.45397E-09  5.52092E-09  7.14543E-09  6.40462E-09  7.31535E-09
   6.03645E-09  6.28779E-09  4.83536E-09  5.20113E-09  3.95497E-09  4.72922E-09  3.44203E-09  4.34341E-09  3.12529E-09  3.86824E-09
   2.77962E-09  3.43281E-09  2.68127E-09  3.63113E-09  2.58914E-09  2.97320E-09  2.30981E-09  2.94691E-09  2.49651E-09  3.50922E-09
   2.15267E-09  3.42550E-09  2.29012E-09  3.20185E-09  3.03530E-09  3.58225E-09  3.43007E-09  4.99017E-09  4.48908E-09  6.16407E-09
   5.39057E-09  5.75608E-09  4.66803E-09  4.45045E-09  3.18159E-09  3.44455E-09  2.89052E-09  3.08440E-09  2.27892E-09  2.64315E-09
   2.64933E-09  3.41087E-09  2.94514E-09  4.79334E-09  5.77458E-09  7.51075E-09  7.67337E-09  8.22395E-09  6.71116E-09  6.88246E-09
   5.56848E-09  5.54332E-09  4.15886E-09  4.38066E-09  3.33400E-09  4.28973E-09  3.26049E-09  3.15360E-09  2.38422E-09  2.45973E-09
   1.54078E-09  1.90048E-09  8.61101E-10  1.99724E-09  1.00426E-09  1.29711E-09  7.98243E-10  1.34446E-09  7.14339E-10  1.26030E-09
  -1.20684E-10  9.11423E-10 -9.83173E-11  5.53800E-10 -6.38727E-10 -3.74097E-12 -9.19867E-10 -5.25517E-11 -1.65837E-10  3.66537E-10
  -1.12577E-10  4.51009E-10  2.23639E-11  5.38676E-10  4.89986E-10  6.96729E-10  2.46309E-10  3.97787E-10 -1.12654E-10  3.98841E-10
  -6.81037E-10 -3.78052E-10 -6.05568E-10  3.98221E-10  5.35131E-10  6.61285E-10  5.50322E-11  1.12834E-09  1.14016E-09  9.91640E-10
   8.43549E-10  1.75685E-09  1.19291E-09  1.73483E-09  1.97519E-09  3.03119E-09  2.46879E-09  3.24362E-09  2.76295E-09  3.03972E-09
   2.67068E-09  3.23606E-09  3.13297E-09  3.07485E-09  2.43336E-09  2.94882E-09  2.48048E-09  2.35023E-09  1.71135E-09  2.31816E-09
   1.75980E-09  1.96710E-09  1.78193E-09  2.01528E-09  1.37662E-09  1.92760E-09  1.51478E-09  1.89043E-09  1.19982E-09  2.17267E-09
   1.23635E-09  2.09418E-09  1.94342E-09  3.07113E-09  3.37853E-09  5.43197E-09  5.00298E-09  5.94729E-09  4.55399E-09  3.47289E-09
   1.42319E-09  4.10820E-10 -7.92371E-10 -2.10910E-09 -3.10224E-09 -3.54835E-09 -5.26743E-09 -5.69653E-09 -6.95344E-09 -7.44201E-09
  -8.75254E-09 -9.32750E-09 -1.06527E-08 -1.11626E-08 -1.26736E-08 -1.26815E-08 -1.38077E-08 -1.45205E-08 -1.49904E-08 -1.55130E-08
  -1.60550E-08 -1.49679E-08 -1.58539E-08 -1.49102E-08 -1.46192E-08 -1.29148E-08 -1.24491E-08 -1.06297E-08 -9.42988E-09 -8.16193E-09
  -6.88840E-09 -4.49179E-09 -3.90438E-09 -1.76792E-09 -1.46379E-09  1.15452E-10  1.31786E-10  9.41826E-10  1.06784E-09  8.61396E-10
   2.76822E-10  4.52572E-10  2.88697E-10  9.25134E-11 -5.81033E-10  1.11920E-10 -7.95967E-10  5.80673E-10 -4.66819E-10  2.42080E-10
  -6.27104E-10  2.81645E-10 -5.02133E-10 -6.56073E-10 -5.48066E-10  3.15022E-10 -6.46167E-10  7.55273E-11 -7.23133E-10 -6.21136E-11
  -4.55371E-10  1.15262E-10  9.76454E-11  2.46259E-10  1.73050E-10 -3.74170E-10 -7.38887E-10 -1.78922E-10 -5.44494E-10  4.41823E-11
   4.90860E-11  2.82796E-11  1.21305E-10  5.35763E-10 -1.08469E-13  1.08588E-09 -3.81321E-10  8.89501E-10  2.04480E-10  3.83655E-10
  -4.87837E-10  1.26526E-10 -3.18281E-10 -4.70142E-11 -5.76706E-10  1.01510E-10 -5.57109E-10  2.25637E-10 -1.67899E-10  1.12687E-10
  -2.67988E-11  5.59973E-10  3.99865E-10  1.03488E-09  4.81567E-10  1.08973E-09  3.84931E-10  1.43957E-09  6.88603E-10  1.35335E-09
   7.51310E-10  7.34240E-10  6.11721E-10  9.37399E-10  3.83120E-10  6.29510E-10 -2.39425E-10  3.20900E-10 -4.15112E-10  3.38100E-10
  -3.47231E-10  4.70585E-10 -4.90113E-11  2.21284E-10 -7.26330E-12  4.33859E-10 -2.87107E-10  5.58006E-10 -3.04438E-10  5.56989E-10
   2.73398E-10  2.27958E-10 -3.55066E-12  6.06674E-10  4.69323E-10  5.12236E-10 -4.74029E-11  5.70982E-10 -1.66877E-10  8.10024E-10
   3.18561E-10  1.00763E-09  4.61401E-10  1.12323E-09  4.74996E-10  1.00794E-09  5.11372E-10  8.05460E-10  4.19681E-10  1.12751E-09
   3.44954E-10  1.19393E-09  4.43110E-10  1.18161E-09  1.99683E-10  1.02846E-09  9.54154E-10  1.43820E-09  7.17974E-10  1.33195E-09
   8.38424E-10  1.69897E-09  6.76344E-10  1.49005E-09  9.28265E-10  1.56718E-09  9.23843E-10  1.35621E-09  7.71830E-10  1.67127E-09
   8.36008E-10  1.30163E-09  1.27172E-09  2.02642E-09  8.65986E-10  1.70827E-09  1.23134E-09  1.69490E-09  1.50988E-09  2.07534E-09
   1.64336E-09  1.82472E-09  1.63378E-09  1.81030E-09  1.51488E-09  1.77953E-09  1.35440E-09  1.78756E-09  1.48101E-09  2.28761E-09
   1.83911E-09  2.37276E-09  1.34700E-09
 NY points of the fit to the data follow
   6.58179E-09  6.80586E-09  7.02878E-09  7.51495E-09  8.07437E-09  8.56608E-09  8.79195E-09  8.77884E-09  8.38983E-09  7.65834E-09
   7.02857E-09  6.64051E-09  6.38723E-09  6.30341E-09  6.38437E-09  6.50502E-09  6.65962E-09  6.87016E-09  7.01172E-09  7.12572E-09
   7.36484E-09  7.63193E-09  7.73150E-09  7.62434E-09  7.18964E-09  6.52010E-09  6.02586E-09  5.77534E-09  5.74090E-09  5.91601E-09
   6.12659E-09  6.26099E-09  6.38908E-09  6.32884E-09  6.01491E-09  5.87406E-09  5.98381E-09  6.12240E-09  6.21502E-09  6.24456E-09
   6.23621E-09  6.27557E-09  6.08285E-09  5.59174E-09  5.24959E-09  4.91893E-09  4.43808E-09  3.98484E-09  3.67718E-09  3.50337E-09
   3.40811E-09  3.34759E-09  3.27700E-09  3.18394E-09  3.10343E-09  3.06744E-09  3.10497E-09  3.19744E-09  3.28456E-09  3.31775E-09
   3.27701E-09  3.23382E-09  3.35162E-09  3.50391E-09  3.71083E-09  4.08178E-09  4.43520E-09  4.66254E-09  4.89139E-09  5.08996E-09
   5.24087E-09  5.20943E-09  4.91876E-09  4.54080E-09  4.27169E-09  3.75740E-09  3.33589E-09  3.60431E-09  3.96765E-09  4.22992E-09
   4.50828E-09  4.79305E-09  5.16788E-09  5.69514E-09  6.25742E-09  6.60575E-09  6.45782E-09  5.67772E-09  4.53478E-09  4.00648E-09
   3.78992E-09  3.70006E-09  3.67846E-09  3.48956E-09  3.24882E-09  3.17524E-09  2.97573E-09  2.67059E-09  2.49971E-09  2.34302E-09
   2.16373E-09  2.02312E-09  1.91097E-09  1.81766E-09  1.73738E-09  1.66652E-09  1.60284E-09  1.54490E-09  1.49162E-09  1.44213E-09
   1.39560E-09  1.35127E-09  1.30878E-09  1.26783E-09  1.22821E-09  1.18972E-09  1.15207E-09  1.11501E-09  1.07835E-09  1.04195E-09
   1.00567E-09  9.69427E-10  9.33084E-10  8.96532E-10  8.59667E-10  8.22404E-10  7.84642E-10  7.46305E-10  7.07324E-10  6.67622E-10
   6.27124E-10  5.85771E-10  5.43503E-10  5.00257E-10  4.55981E-10  4.10619E-10  3.64116E-10  3.16419E-10  2.67488E-10  2.17287E-10
   1.65774E-10  1.12917E-10  5.86834E-11  3.03632E-12 -5.40463E-11 -1.12570E-10 -1.72541E-10 -2.33953E-10 -2.96801E-10 -3.61056E-10
  -4.26684E-10 -4.93613E-10 -5.61748E-10 -6.30965E-10 -7.01081E-10 -7.71857E-10 -8.42915E-10 -9.13632E-10 -9.83105E-10 -1.05012E-09
  -1.11295E-09 -1.16894E-09 -1.21374E-09 -1.23935E-09 -1.22870E-09 -1.13539E-09 -7.70630E-10  3.94113E-10  1.53624E-09  2.32497E-09
   2.87481E-09  3.49675E-09  4.36503E-09  5.39441E-09  6.14011E-09  5.90630E-09  4.08998E-09  8.75734E-10 -2.21444E-09 -3.01720E-09
  -3.31160E-09 -3.48122E-09 -3.60532E-09 -3.70833E-09 -3.79968E-09 -3.88359E-09 -3.96206E-09 -4.03611E-09 -4.10625E-09 -4.17271E-09
  -4.23555E-09 -4.29478E-09 -4.35032E-09 -4.40208E-09 -4.44993E-09 -4.49374E-09 -4.53337E-09 -4.56868E-09 -4.59950E-09 -4.62571E-09
  -4.64713E-09 -4.66363E-09 -4.67506E-09 -4.68125E-09 -4.68208E-09 -4.67738E-09 -4.66702E-09 -4.65085E-09 -4.62881E-09 -4.60107E-09
  -4.56783E-09 -4.52928E-09 -4.48562E-09 -4.43707E-09 -4.38380E-09 -4.32602E-09 -4.26394E-09 -4.19774E-09 -4.12763E-09 -4.05380E-09
  -3.97645E-09 -3.89577E-09 -3.81197E-09 -3.72523E-09 -3.63575E-09 -3.54373E-09 -3.44935E-09 -3.35281E-09 -3.25431E-09 -3.15403E-09
  -3.05215E-09 -2.94888E-09 -2.84440E-09 -2.73890E-09 -2.63255E-09 -2.52555E-09 -2.41808E-09 -2.31032E-09 -2.20246E-09 -2.09467E-09
  -1.98713E-09 -1.88002E-09 -1.77352E-09 -1.66781E-09 -1.56304E-09 -1.45941E-09 -1.35707E-09 -1.25620E-09 -1.15696E-09 -1.05953E-09
  -9.64062E-10 -8.70723E-10 -7.79677E-10 -6.91075E-10 -6.05082E-10 -5.21846E-10 -4.41534E-10 -3.64292E-10 -2.90263E-10 -2.19608E-10
  -1.52349E-10 -8.84045E-11 -2.76839E-11  2.99212E-11  8.45017E-11  1.36149E-10  1.84965E-10  2.31037E-10  2.74467E-10  3.15343E-10
   3.53753E-10  3.89801E-10  4.23565E-10  4.55151E-10  4.84648E-10  5.12130E-10  5.37703E-10  5.61448E-10  5.83462E-10  6.03815E-10
   6.22614E-10  6.39921E-10  6.55853E-10  6.70475E-10  6.83862E-10  6.96108E-10  7.07307E-10  7.17526E-10  7.26841E-10  7.35333E-10
   7.43094E-10  7.50200E-10  7.56727E-10  7.62730E-10  7.68318E-10  7.73535E-10  7.78481E-10  7.83214E-10  7.87813E-10  7.92335E-10
   7.96854E-10  8.01466E-10  8.06194E-10  8.11142E-10  8.16361E-10  8.21902E-10  8.27843E-10  8.34264E-10  8.41184E-10  8.48705E-10
   8.56856E-10  8.65687E-10  8.75232E-10  8.85438E-10  8.96273E-10  9.07708E-10  9.19710E-10  9.32248E-10  9.45293E-10  9.58814E-10
   9.72782E-10  9.87163E-10  1.00193E-09  1.01706E-09  1.03251E-09  1.04827E-09  1.06430E-09  1.08057E-09  1.09705E-09  1.11373E-09
   1.13057E-09  1.14754E-09  1.16462E-09  1.18179E-09  1.19901E-09  1.21626E-09  1.23353E-09  1.25077E-09  1.26798E-09  1.28511E-09
   1.30217E-09  1.31910E-09  1.33591E-09  1.35256E-09  1.36903E-09  1.38529E-09  1.40134E-09  1.41715E-09  1.43269E-09  1.44795E-09
   1.46291E-09  1.47755E-09  1.49185E-09  1.50579E-09  1.51935E-09  1.53253E-09  1.54529E-09  1.55762E-09  1.56952E-09  1.58095E-09
   1.59191E-09  1.60238E-09  1.61235E-09
 NY background values follow
     4.018E-09    3.979E-09    3.938E-09    3.897E-09    3.856E-09    3.814E-09    3.772E-09    3.729E-09    3.686E-09    3.642E-09
     3.598E-09    3.553E-09    3.508E-09    3.463E-09    3.417E-09    3.371E-09    3.325E-09    3.279E-09    3.232E-09    3.186E-09
     3.139E-09    3.092E-09    3.045E-09    2.998E-09    2.951E-09    2.904E-09    2.857E-09    2.810E-09    2.763E-09    2.716E-09
     2.669E-09    2.623E-09    2.576E-09    2.530E-09    2.484E-09    2.439E-09    2.394E-09    2.349E-09    2.304E-09    2.260E-09
     2.217E-09    2.173E-09    2.131E-09    2.089E-09    2.047E-09    2.006E-09    1.966E-09    1.927E-09    1.888E-09    1.850E-09
     1.812E-09    1.776E-09    1.740E-09    1.705E-09    1.671E-09    1.638E-09    1.605E-09    1.574E-09    1.543E-09    1.513E-09
     1.484E-09    1.455E-09    1.427E-09    1.400E-09    1.374E-09    1.348E-09    1.323E-09    1.298E-09    1.275E-09    1.251E-09
     1.229E-09    1.207E-09    1.185E-09    1.165E-09    1.144E-09    1.124E-09    1.105E-09    1.086E-09    1.068E-09    1.050E-09
     1.032E-09    1.015E-09    9.982E-10    9.817E-10    9.656E-10    9.499E-10    9.344E-10    9.192E-10    9.043E-10    8.896E-10
     8.752E-10    8.609E-10    8.468E-10    8.329E-10    8.191E-10    8.054E-10    7.918E-10    7.783E-10    7.648E-10    7.514E-10
     7.380E-10    7.245E-10    7.110E-10    6.975E-10    6.839E-10    6.701E-10    6.562E-10    6.421E-10    6.278E-10    6.131E-10
     5.981E-10    5.827E-10    5.669E-10    5.506E-10    5.337E-10    5.163E-10    4.982E-10    4.795E-10    4.601E-10    4.399E-10
     4.189E-10    3.971E-10    3.743E-10    3.506E-10    3.259E-10    3.001E-10    2.733E-10    2.453E-10    2.162E-10    1.858E-10
     1.541E-10    1.212E-10    8.682E-11    5.106E-11    1.385E-11   -2.487E-11   -6.514E-11   -1.070E-10   -1.505E-10   -1.957E-10
    -2.426E-10   -2.913E-10   -3.419E-10   -3.943E-10   -4.486E-10   -5.048E-10   -5.631E-10   -6.234E-10   -6.858E-10   -7.503E-10
    -8.170E-10   -8.859E-10   -9.571E-10   -1.031E-09   -1.106E-09   -1.185E-09   -1.265E-09   -1.348E-09   -1.433E-09   -1.520E-09
    -1.609E-09   -1.699E-09   -1.791E-09   -1.884E-09   -1.978E-09   -2.073E-09   -2.168E-09   -2.265E-09   -2.361E-09   -2.458E-09
    -2.555E-09   -2.652E-09   -2.748E-09   -2.844E-09   -2.939E-09   -3.034E-09   -3.128E-09   -3.220E-09   -3.311E-09   -3.401E-09
    -3.489E-09   -3.575E-09   -3.659E-09   -3.741E-09   -3.821E-09   -3.898E-09   -3.973E-09   -4.045E-09   -4.113E-09   -4.179E-09
    -4.242E-09   -4.301E-09   -4.356E-09   -4.408E-09   -4.455E-09   -4.499E-09   -4.538E-09   -4.573E-09   -4.604E-09   -4.630E-09
    -4.650E-09   -4.666E-09   -4.677E-09   -4.683E-09   -4.683E-09   -4.678E-09   -4.667E-09   -4.650E-09   -4.627E-09   -4.598E-09
    -4.564E-09   -4.525E-09   -4.480E-09   -4.430E-09   -4.376E-09   -4.317E-09   -4.254E-09   -4.187E-09   -4.116E-09   -4.041E-09
    -3.963E-09   -3.881E-09   -3.796E-09   -3.708E-09   -3.618E-09   -3.525E-09   -3.429E-09   -3.332E-09   -3.232E-09   -3.131E-09
    -3.028E-09   -2.923E-09   -2.818E-09   -2.711E-09   -2.604E-09   -2.496E-09   -2.387E-09   -2.278E-09   -2.169E-09   -2.060E-09
    -1.952E-09   -1.843E-09   -1.736E-09   -1.629E-09   -1.523E-09   -1.419E-09   -1.315E-09   -1.213E-09   -1.113E-09   -1.015E-09
    -9.180E-10   -8.236E-10   -7.316E-10   -6.419E-10   -5.549E-10   -4.707E-10   -3.893E-10   -3.111E-10   -2.361E-10   -1.644E-10
    -9.617E-11   -3.124E-11    3.046E-11    8.904E-11    1.446E-10    1.972E-10    2.470E-10    2.940E-10    3.384E-10    3.802E-10
     4.195E-10    4.565E-10    4.912E-10    5.237E-10    5.541E-10    5.825E-10    6.090E-10    6.336E-10    6.565E-10    6.778E-10
     6.974E-10    7.156E-10    7.324E-10    7.479E-10    7.621E-10    7.752E-10    7.873E-10    7.984E-10    8.085E-10    8.178E-10
     8.264E-10    8.344E-10    8.417E-10    8.485E-10    8.549E-10    8.609E-10    8.667E-10    8.722E-10    8.776E-10    8.829E-10
     8.882E-10    8.936E-10    8.991E-10    9.048E-10    9.108E-10    9.171E-10    9.237E-10    9.309E-10    9.386E-10    9.468E-10
     9.557E-10    9.653E-10    9.755E-10    9.865E-10    9.980E-10    1.010E-09    1.023E-09    1.036E-09    1.050E-09    1.064E-09
     1.079E-09    1.094E-09    1.109E-09    1.125E-09    1.141E-09    1.158E-09    1.174E-09    1.191E-09    1.208E-09    1.226E-09
     1.243E-09    1.261E-09    1.278E-09    1.296E-09    1.314E-09    1.332E-09    1.350E-09    1.368E-09    1.386E-09    1.403E-09
     1.421E-09    1.439E-09    1.456E-09    1.473E-09    1.490E-09    1.507E-09    1.524E-09    1.540E-09    1.556E-09    1.572E-09
     1.588E-09    1.603E-09    1.618E-09    1.632E-09    1.646E-09    1.660E-09    1.673E-09    1.686E-09    1.699E-09    1.711E-09
     1.722E-09    1.733E-09    1.744E-09
 GABA     Conc. = 1.04E-09
   3.78514E-09  3.74222E-09  3.69857E-09  3.65419E-09  3.60911E-09  3.56333E-09  3.51686E-09  3.46970E-09  3.42187E-09  3.37338E-09
   3.32424E-09  3.27443E-09  3.22399E-09  3.17289E-09  3.12117E-09  3.06884E-09  3.01585E-09  2.96219E-09  2.90795E-09  2.85304E-09
   2.79751E-09  2.74141E-09  2.68476E-09  2.62776E-09  2.57082E-09  2.51459E-09  2.46090E-09  2.41407E-09  2.38800E-09  2.44258E-09
   2.51691E-09  2.55646E-09  2.71933E-09  2.98576E-09  3.23860E-09  3.52694E-09  3.85275E-09  4.15428E-09  4.36183E-09  4.44601E-09
   4.44785E-09  4.46954E-09  4.25466E-09  3.76919E-09  3.50330E-09  3.29845E-09  2.92008E-09  2.62047E-09  2.42214E-09  2.27467E-09
   2.15680E-09  2.05815E-09  1.97294E-09  1.89794E-09  1.83103E-09  1.77072E-09  1.71649E-09  1.66857E-09  1.62831E-09  1.59944E-09
   1.59130E-09  1.63689E-09  1.77455E-09  1.88727E-09  2.01610E-09  2.28469E-09  2.57120E-09  2.83120E-09  3.10923E-09  3.36721E-09
   3.53106E-09  3.53873E-09  3.39833E-09  3.21366E-09  3.02774E-09  2.56452E-09  2.11950E-09  1.99894E-09  1.81641E-09  1.58881E-09
   1.50330E-09  1.44593E-09  1.40858E-09  1.48046E-09  1.57017E-09  1.64199E-09  1.77814E-09  1.95010E-09  2.11667E-09  2.26107E-09
   2.35238E-09  2.45043E-09  2.55797E-09  2.46907E-09  2.30402E-09  2.29183E-09  2.14634E-09  1.88659E-09  1.75455E-09  1.63185E-09
   1.48271E-09  1.36908E-09  1.28126E-09  1.21003E-09  1.14999E-09  1.09777E-09  1.05134E-09  1.00944E-09  9.71132E-10  9.35654E-10
   9.02285E-10  8.70345E-10  8.39548E-10  8.09658E-10  7.80509E-10  7.51958E-10  7.23762E-10  6.95690E-10  6.67596E-10  6.39361E-10
   6.10881E-10  5.82081E-10  5.52851E-10  5.23096E-10  4.92729E-10  4.61677E-10  4.29852E-10  3.97187E-10  3.63621E-10  3.29085E-10
   2.93511E-10  2.56844E-10  2.19027E-10  1.80001E-10  1.39714E-10  9.81088E-11  5.51312E-11  1.07230E-11 -3.51592E-11 -8.25591E-11
  -1.31525E-10 -1.82102E-10 -2.34334E-10 -2.88275E-10 -3.43966E-10 -4.01438E-10 -4.60723E-10 -5.21853E-10 -5.84864E-10 -6.49779E-10
  -7.16630E-10 -7.85424E-10 -8.56164E-10 -9.28854E-10 -1.00347E-09 -1.07999E-09 -1.15830E-09 -1.23817E-09 -1.31922E-09 -1.40098E-09
  -1.48287E-09 -1.56402E-09 -1.64309E-09 -1.71776E-09 -1.78310E-09 -1.82588E-09 -1.79191E-09 -1.53969E-09 -1.29724E-09 -1.15235E-09
  -1.07167E-09 -9.69591E-10 -7.99210E-10 -5.85597E-10 -4.52634E-10 -5.92043E-10 -1.16701E-09 -2.12063E-09 -3.02703E-09 -3.30571E-09
  -3.44963E-09 -3.55880E-09 -3.65417E-09 -3.74219E-09 -3.82533E-09 -3.90459E-09 -3.98042E-09 -4.05299E-09 -4.12231E-09 -4.18834E-09
  -4.25097E-09 -4.31010E-09 -4.36560E-09 -4.41731E-09 -4.46511E-09 -4.50883E-09 -4.54833E-09 -4.58346E-09 -4.61407E-09 -4.64000E-09
  -4.66111E-09 -4.67725E-09 -4.68827E-09 -4.69402E-09 -4.69437E-09 -4.68916E-09 -4.67825E-09 -4.66151E-09 -4.63887E-09 -4.61050E-09
  -4.57661E-09 -4.53739E-09 -4.49305E-09 -4.44378E-09 -4.38980E-09 -4.33128E-09 -4.26845E-09 -4.20149E-09 -4.13061E-09 -4.05600E-09
  -3.97786E-09 -3.89639E-09 -3.81178E-09 -3.72424E-09 -3.63394E-09 -3.54110E-09 -3.44591E-09 -3.34854E-09 -3.24921E-09 -3.14810E-09
  -3.04540E-09 -2.94130E-09 -2.83598E-09 -2.72964E-09 -2.62247E-09 -2.51463E-09 -2.40633E-09 -2.29774E-09 -2.18905E-09 -2.08043E-09
  -1.97207E-09 -1.86413E-09 -1.75681E-09 -1.65027E-09 -1.54469E-09 -1.44024E-09 -1.33709E-09 -1.23541E-09 -1.13537E-09 -1.03713E-09
  -9.40857E-10 -8.46720E-10 -7.54878E-10 -6.65484E-10 -5.78702E-10 -4.94681E-10 -4.13587E-10 -3.35566E-10 -2.60763E-10 -1.89337E-10
  -1.21311E-10 -5.66021E-11  4.87842E-12  6.32395E-11  1.18572E-10  1.70968E-10  2.20529E-10  2.67341E-10  3.11509E-10  3.53118E-10
   3.92257E-10  4.29031E-10  4.63516E-10  4.95820E-10  5.26030E-10  5.54222E-10  5.80501E-10  6.04947E-10  6.27660E-10  6.48707E-10
   6.68196E-10  6.86190E-10  7.02804E-10  7.18106E-10  7.32168E-10  7.45085E-10  7.56951E-10  7.67834E-10  7.77809E-10  7.86957E-10
   7.95370E-10  8.03125E-10  8.10296E-10  8.16941E-10  8.23166E-10  8.29017E-10  8.34593E-10  8.39953E-10  8.45175E-10  8.50316E-10
   8.55452E-10  8.60675E-10  8.66012E-10  8.71565E-10  8.77386E-10  8.83525E-10  8.90062E-10  8.97074E-10  9.04581E-10  9.12687E-10
   9.21419E-10  9.30828E-10  9.40947E-10  9.51725E-10  9.63128E-10  9.75127E-10  9.87691E-10  1.00079E-09  1.01439E-09  1.02846E-09
   1.04298E-09  1.05790E-09  1.07321E-09  1.08888E-09  1.10487E-09  1.12116E-09  1.13771E-09  1.15451E-09  1.17152E-09  1.18872E-09
   1.20607E-09  1.22356E-09  1.24115E-09  1.25883E-09  1.27656E-09  1.29431E-09  1.31208E-09  1.32982E-09  1.34752E-09  1.36515E-09
   1.38269E-09  1.40011E-09  1.41740E-09  1.43453E-09  1.45148E-09  1.46822E-09  1.48474E-09  1.50101E-09  1.51702E-09  1.53275E-09
   1.54817E-09  1.56327E-09  1.57802E-09  1.59242E-09  1.60643E-09  1.62005E-09  1.63326E-09  1.64603E-09  1.65837E-09  1.67024E-09
   1.68163E-09  1.69254E-09  1.70294E-09
 Glc      Conc. = 1.11E-09
   4.90099E-09  5.12235E-09  5.38249E-09  5.75275E-09  6.11346E-09  6.40051E-09  6.48378E-09  6.42112E-09  6.10715E-09  5.64824E-09
   5.31882E-09  5.09174E-09  4.95724E-09  4.99172E-09  5.19293E-09  5.45650E-09  5.74180E-09  6.06156E-09  6.36434E-09  6.69902E-09
   7.12311E-09  7.52045E-09  7.72708E-09  7.63754E-09  7.11614E-09  6.33243E-09  5.73857E-09  5.38421E-09  5.18774E-09  5.05383E-09
   4.88581E-09  4.71194E-09  4.57385E-09  4.39681E-09  4.17102E-09  3.99442E-09  3.83566E-09  3.64518E-09  3.46413E-09  3.31976E-09
   3.19818E-09  3.09037E-09  2.99293E-09  2.90327E-09  2.81984E-09  2.74165E-09  2.66787E-09  2.59792E-09  2.53135E-09  2.46782E-09
   2.40701E-09  2.34875E-09  2.29284E-09  2.23916E-09  2.18753E-09  2.13781E-09  2.08989E-09  2.04367E-09  1.99904E-09  1.95591E-09
   1.91423E-09  1.87392E-09  1.83491E-09  1.79714E-09  1.76057E-09  1.72513E-09  1.69078E-09  1.65748E-09  1.62519E-09  1.59386E-09
   1.56345E-09  1.53394E-09  1.50527E-09  1.47742E-09  1.45036E-09  1.42405E-09  1.39847E-09  1.37358E-09  1.34934E-09  1.32574E-09
   1.30274E-09  1.28033E-09  1.25845E-09  1.23710E-09  1.21625E-09  1.19585E-09  1.17591E-09  1.15637E-09  1.13722E-09  1.11844E-09
   1.09999E-09  1.08186E-09  1.06400E-09  1.04642E-09  1.02908E-09  1.01194E-09  9.94981E-10  9.78189E-10  9.61541E-10  9.45000E-10
   9.28567E-10  9.12173E-10  8.95822E-10  8.79500E-10  8.63145E-10  8.46757E-10  8.30277E-10  8.13655E-10  7.96845E-10  7.79799E-10
   7.62469E-10  7.44809E-10  7.26771E-10  7.08306E-10  6.89370E-10  6.69911E-10  6.49886E-10  6.29246E-10  6.07942E-10  5.85930E-10
   5.63160E-10  5.39588E-10  5.15164E-10  4.89844E-10  4.63579E-10  4.36326E-10  4.08033E-10  3.78661E-10  3.48158E-10  3.16481E-10
   2.83584E-10  2.49423E-10  2.13954E-10  1.77128E-10  1.38906E-10  9.92416E-11  5.80938E-11  1.54178E-11 -2.88252E-11 -7.46761E-11
  -1.22179E-10 -1.71372E-10 -2.22289E-10 -2.74969E-10 -3.29452E-10 -3.85764E-10 -4.43940E-10 -5.04007E-10 -5.65991E-10 -6.29908E-10
  -6.95783E-10 -7.63618E-10 -8.33412E-10 -9.05164E-10 -9.78842E-10 -1.05441E-09 -1.13175E-09 -1.21061E-09 -1.29060E-09 -1.37124E-09
  -1.45190E-09 -1.53168E-09 -1.60922E-09 -1.68210E-09 -1.74543E-09 -1.78639E-09 -1.75546E-09 -1.48566E-09 -1.21390E-09 -1.04562E-09
  -9.51776E-10 -8.40714E-10 -6.57900E-10 -4.23445E-10 -2.63344E-10 -3.80724E-10 -9.59789E-10 -1.96290E-09 -2.96241E-09 -3.28098E-09
  -3.43211E-09 -3.54285E-09 -3.63834E-09 -3.72604E-09 -3.80871E-09 -3.88748E-09 -3.96284E-09 -4.03497E-09 -4.10388E-09 -4.16955E-09
  -4.23186E-09 -4.29070E-09 -4.34593E-09 -4.39741E-09 -4.44499E-09 -4.48852E-09 -4.52786E-09 -4.56283E-09 -4.59331E-09 -4.61912E-09
  -4.64013E-09 -4.65618E-09 -4.66712E-09 -4.67281E-09 -4.67310E-09 -4.66784E-09 -4.65690E-09 -4.64012E-09 -4.61746E-09 -4.58908E-09
  -4.55518E-09 -4.51596E-09 -4.47162E-09 -4.42237E-09 -4.36840E-09 -4.30990E-09 -4.24709E-09 -4.18017E-09 -4.10932E-09 -4.03474E-09
  -3.95664E-09 -3.87522E-09 -3.79066E-09 -3.70317E-09 -3.61293E-09 -3.52014E-09 -3.42501E-09 -3.32771E-09 -3.22844E-09 -3.12739E-09
