 LCModel (Version 6.3-1R) Copyright: S.W. Provencher.          Ref.: Magn. Reson. Med. 30:672-679 (1993).                
 onepulse 30x13_ftSpec_smooth_lcm
 26 lines in following concentration table = NCONC+1
    Conc.  %SD /Cr+PCr  Metabolite                                         
    0.000 999%   0.000 Ala                                                 
    0.000 999%   0.000 Asp                                                 
    0.000 999%   0.000 Cr                                                  
    0.000 999%   0.000 GABA                                                
    0.000 999%   0.000 Glc                                                 
 7.15E-10  41%   7.571 Gln                                                 
    0.000 999%   0.000 Glu                                                 
    0.000 999%   0.000 Glyc                                                
 9.35E-11  46%   0.990 GPC                                                 
    0.000 999%   0.000 GSH                                                 
 7.91E-10  18%   8.371 Ins                                                 
    0.000 999%   0.000 Lac                                                 
 1.78E-10  97%   1.888 NAAG                                                
 1.62E-10 146%   1.711 NAA                                                 
    0.000 999%   0.000 PCh                                                 
 9.44E-11 127%   1.000 PCr                                                 
    0.000 999%   0.000 PE                                                  
 1.15E-10  53%   1.215 Scyllo                                              
 2.21E-09  18%  23.366 Ser                                                 
    0.000 999%   0.000 Tau                                                 
 9.35E-11  46%   0.990 GPC+PCh                                             
 3.40E-10  42%   3.600 NAA+NAAG                                            
 7.91E-10  18%   8.371 Ins+Glyc                                            
 9.44E-11 127%   1.000 Cr+PCr                                              
 7.15E-10  41%   7.571 Glu+Gln                                             
   6 lines in following misc. output table
  FWHM = 0.089 ppm    S/N =   3                                            
  Data shift = 0.369 ppm                                                   
  Ph: -48 deg     -40.9 deg/ppm                                            
  alphaB,S = 9.2E-01,   4.5E+01                                            
    9 spline knots.   Ns = 5(1)                                            
  ( 9) 2 infls.   ( 7) 1 extrs.                                            
  363 points on ppm-axis = NY
      4.250000     4.238821     4.227641     4.216462     4.205282     4.194103     4.182923     4.171744     4.160564     4.149385
      4.138206     4.127026     4.115847     4.104667     4.093488     4.082308     4.071129     4.059949     4.048770     4.037591
      4.026411     4.015232     4.004052     3.992873     3.981693     3.970514     3.959334     3.948155     3.936975     3.925796
      3.914617     3.903437     3.892258     3.881078     3.869899     3.858719     3.847540     3.836360     3.825181     3.814002
      3.802822     3.791643     3.780463     3.769284     3.758104     3.746925     3.735745     3.724566     3.713387     3.702207
      3.691028     3.679848     3.668669     3.657489     3.646310     3.635130     3.623951     3.612772     3.601592     3.590413
      3.579233     3.568054     3.556874     3.545695     3.534515     3.523336     3.512156     3.500977     3.489798     3.478618
      3.467439     3.456259     3.445080     3.433900     3.422721     3.411541     3.400362     3.389183     3.378003     3.366824
      3.355644     3.344465     3.333285     3.322106     3.310926     3.299747     3.288568     3.277388     3.266209     3.255029
      3.243850     3.232670     3.221491     3.210311     3.199132     3.187953     3.176773     3.165594     3.154414     3.143235
      3.132055     3.120876     3.109696     3.098517     3.087337     3.076158     3.064979     3.053799     3.042620     3.031440
      3.020261     3.009081     2.997902     2.986722     2.975543     2.964364     2.953184     2.942005     2.930825     2.919646
      2.908466     2.897287     2.886107     2.874928     2.863749     2.852569     2.841390     2.830210     2.819031     2.807851
      2.796672     2.785492     2.774313     2.763134     2.751954     2.740775     2.729595     2.718416     2.707236     2.696057
      2.684877     2.673698     2.662519     2.651339     2.640160     2.628980     2.617801     2.606621     2.595442     2.584262
      2.573083     2.561903     2.550724     2.539545     2.528365     2.517186     2.506006     2.494827     2.483647     2.472468
      2.461288     2.450109     2.438930     2.427750     2.416571     2.405391     2.394212     2.383032     2.371853     2.360673
      2.349494     2.338315     2.327135     2.315956     2.304776     2.293597     2.282417     2.271238     2.260058     2.248879
      2.237700     2.226520     2.215341     2.204161     2.192982     2.181802     2.170623     2.159443     2.148264     2.137084
      2.125905     2.114726     2.103546     2.092367     2.081187     2.070008     2.058828     2.047649     2.036469     2.025290
      2.014111     2.002931     1.991752     1.980572     1.969393     1.958213     1.947034     1.935854     1.924675     1.913496
      1.902316     1.891137     1.879957     1.868778     1.857598     1.846419     1.835239     1.824060     1.812881     1.801701
      1.790522     1.779342     1.768163     1.756983     1.745804     1.734624     1.723445     1.712265     1.701086     1.689907
      1.678727     1.667548     1.656368     1.645189     1.634009     1.622830     1.611650     1.600471     1.589292     1.578112
      1.566933     1.555753     1.544574     1.533394     1.522215     1.511035     1.499856     1.488677     1.477497     1.466318
      1.455138     1.443959     1.432779     1.421600     1.410420     1.399241     1.388062     1.376882     1.365703     1.354523
      1.343344     1.332164     1.320985     1.309805     1.298626     1.287446     1.276267     1.265088     1.253908     1.242729
      1.231549     1.220370     1.209190     1.198011     1.186831     1.175652     1.164473     1.153293     1.142114     1.130934
      1.119755     1.108575     1.097396     1.086216     1.075037     1.063858     1.052678     1.041499     1.030319     1.019140
      1.007960     0.996781     0.985601     0.974422     0.963243     0.952063     0.940884     0.929704     0.918525     0.907345
      0.896166     0.884986     0.873807     0.862628     0.851448     0.840269     0.829089     0.817910     0.806730     0.795551
      0.784371     0.773192     0.762012     0.750833     0.739654     0.728474     0.717295     0.706115     0.694936     0.683756
      0.672577     0.661397     0.650218     0.639039     0.627859     0.616680     0.605500     0.594321     0.583141     0.571962
      0.560782     0.549603     0.538424     0.527244     0.516065     0.504885     0.493706     0.482526     0.471347     0.460167
      0.448988     0.437809     0.426629     0.415450     0.404270     0.393091     0.381911     0.370732     0.359552     0.348373
      0.337193     0.326014     0.314835     0.303655     0.292476     0.281296     0.270117     0.258937     0.247758     0.236578
      0.225399     0.214220     0.203040
 NY phased data points follow
   8.16020E-09  7.30610E-09  7.30344E-09  6.08300E-09  6.27265E-09  5.58892E-09  5.33200E-09  5.47742E-09  5.60936E-09  5.08519E-09
   5.54131E-09  5.64319E-09  6.00479E-09  6.11829E-09  6.64459E-09  6.37946E-09  6.30494E-09  5.75422E-09  6.59265E-09  5.78611E-09
   5.45441E-09  5.11961E-09  5.52362E-09  5.52867E-09  6.18392E-09  5.84551E-09  5.65887E-09  5.11901E-09  5.56837E-09  4.98498E-09
   6.25311E-09  6.44567E-09  7.03658E-09  7.06648E-09  6.90497E-09  5.69132E-09  5.67026E-09  5.48173E-09  5.55931E-09  5.09366E-09
   5.50507E-09  4.68198E-09  5.23172E-09  4.56861E-09  4.90688E-09  3.89154E-09  4.37003E-09  3.76058E-09  4.00630E-09  3.65749E-09
   3.96372E-09  3.51153E-09  3.90815E-09  3.15598E-09  3.40518E-09  2.59721E-09  3.03161E-09  2.90955E-09  3.25019E-09  2.47031E-09
   3.69874E-09  3.81671E-09  5.38568E-09  5.84306E-09  6.10253E-09  5.26661E-09  5.44791E-09  4.52300E-09  4.48719E-09  3.79183E-09
   3.94418E-09  3.04107E-09  3.35022E-09  2.78319E-09  2.99341E-09  1.73580E-09  2.40107E-09  3.19820E-09  5.55557E-09  6.77505E-09
   7.88805E-09  7.05206E-09  7.16181E-09  6.76299E-09  7.10727E-09  6.02542E-09  6.25976E-09  5.55488E-09  6.44390E-09  6.02752E-09
   6.20166E-09  5.71260E-09  5.61871E-09  5.02789E-09  5.30584E-09  4.60836E-09  5.07074E-09  4.51558E-09  4.65921E-09  3.66902E-09
   4.36346E-09  3.72494E-09  4.71778E-09  3.66760E-09  4.41992E-09  3.78034E-09  4.23855E-09  3.50308E-09  3.32581E-09  2.65678E-09
   2.69927E-09  2.84603E-09  2.99076E-09  2.72933E-09  2.89090E-09  2.67994E-09  3.23802E-09  2.77487E-09  3.41038E-09  3.00957E-09
   3.24249E-09  2.77334E-09  2.96597E-09  2.01230E-09  1.99496E-09  1.61333E-09  1.92941E-09  2.03798E-09  2.39891E-09  2.01333E-09
   2.20383E-09  2.12505E-09  2.49824E-09  2.15302E-09  2.62142E-09  2.18847E-09  2.30920E-09  1.88686E-09  2.81822E-09  3.10094E-09
   3.78610E-09  3.35852E-09  3.47615E-09  3.18647E-09  3.78645E-09  4.03605E-09  4.77706E-09  4.04151E-09  4.29817E-09  4.18869E-09
   4.34779E-09  3.64368E-09  4.14770E-09  3.58415E-09  3.77105E-09  3.32962E-09  4.18434E-09  3.45562E-09  3.57128E-09  3.23458E-09
   3.58553E-09  3.07346E-09  3.69305E-09  3.05805E-09  3.63270E-09  2.89207E-09  2.66952E-09  1.93426E-09  3.72741E-09  5.70906E-09
   8.74477E-09  9.62759E-09  9.76192E-09  8.66705E-09  8.36229E-09  7.79849E-09  7.82157E-09  6.89078E-09  7.15750E-09  6.35732E-09
   6.33424E-09  5.40009E-09  5.33295E-09  4.12555E-09  4.15673E-09  2.69415E-09  2.50028E-09  1.33783E-09  5.52737E-10 -4.15198E-10
  -1.24390E-09 -2.41230E-09 -2.87292E-09 -4.44245E-09 -4.20377E-09 -5.43882E-09 -5.57912E-09 -6.70025E-09 -6.51027E-09 -7.02937E-09
  -6.80234E-09 -6.60388E-09 -5.85211E-09 -6.20037E-09 -5.28908E-09 -5.26908E-09 -3.78860E-09 -3.38654E-09 -2.52809E-09 -2.75958E-09
  -1.98029E-09 -1.80790E-09 -1.24909E-09 -1.74935E-09 -1.32155E-09 -1.48264E-09 -1.12983E-09 -1.99713E-09 -1.09543E-09 -1.86440E-09
  -7.03903E-10 -1.20359E-09 -8.75609E-10 -1.27018E-09 -8.96448E-10 -1.01969E-09 -1.17223E-09 -1.44668E-09 -7.07358E-10 -1.37694E-09
  -7.94498E-10 -1.00176E-09 -8.40017E-10 -1.23984E-09 -9.80792E-10 -1.11341E-09 -7.65084E-10 -9.78969E-10 -6.64418E-10 -1.20714E-09
  -5.79177E-10 -1.44639E-09 -1.04643E-09 -1.43430E-09 -7.90431E-10 -1.39610E-09 -7.40042E-10 -1.25591E-09 -5.93308E-10 -8.22763E-10
  -5.27527E-10 -6.88732E-10 -2.98914E-10 -6.71041E-10 -3.10436E-10 -9.40028E-10 -5.97342E-10 -1.23100E-09 -6.06102E-10 -1.08237E-09
  -9.67934E-10 -1.12469E-09 -1.36327E-09 -1.50682E-09 -1.23171E-09 -1.52726E-09 -8.67565E-10 -1.47393E-09 -8.38690E-10 -1.24676E-09
  -7.57040E-10 -6.42924E-10 -8.40571E-10 -5.10780E-10 -1.93332E-10 -5.21731E-10 -6.37606E-11 -3.16921E-10  2.21783E-10 -7.21819E-10
  -1.55015E-10 -6.75985E-10 -4.75963E-10 -6.68815E-10 -5.32032E-10 -8.71596E-10 -6.43565E-10 -7.53208E-10 -7.22098E-10 -1.05963E-09
  -2.26605E-10 -9.03572E-10 -5.93170E-10 -8.13784E-10 -7.00855E-10 -1.48695E-09 -7.26873E-10 -1.14858E-09 -7.47241E-10 -1.24320E-09
  -7.61304E-10 -1.58289E-09 -1.27481E-09 -1.33445E-09 -9.22683E-10 -1.56946E-09 -1.09871E-09 -1.36057E-09 -1.23348E-09 -1.47487E-09
  -1.13663E-09 -1.54910E-09 -9.78303E-10 -1.28085E-09 -9.05537E-10 -1.52784E-09 -1.09633E-09 -1.45718E-09 -1.54828E-09 -1.38191E-09
  -1.38647E-09 -1.77700E-09 -1.26823E-09 -1.60627E-09 -9.96717E-10 -1.33794E-09 -1.28149E-09 -1.51747E-09 -1.19820E-09 -1.36398E-09
  -1.32632E-09 -1.47564E-09 -1.22871E-09 -1.53709E-09 -1.43590E-09 -1.49982E-09 -1.09198E-09 -1.24395E-09 -1.21223E-09 -1.47227E-09
  -1.17555E-09 -1.39053E-09 -1.75069E-09 -1.56935E-09 -1.28531E-09 -1.50175E-09 -1.48539E-09 -1.67960E-09 -1.03928E-09 -1.86002E-09
  -1.25004E-09 -1.73858E-09 -1.38935E-09 -1.93514E-09 -1.05437E-09 -1.72511E-09 -1.69004E-09 -1.51090E-09 -1.49580E-09 -1.67408E-09
  -1.53845E-09 -1.63395E-09 -1.25925E-09
 NY points of the fit to the data follow
   6.71784E-09  7.18370E-09  7.03304E-09  6.59634E-09  6.50239E-09  6.45572E-09  6.18729E-09  5.71801E-09  5.24980E-09  5.04905E-09
   5.09447E-09  5.32650E-09  5.72080E-09  6.12765E-09  6.45896E-09  6.56660E-09  6.47731E-09  6.41971E-09  6.30205E-09  5.92255E-09
   5.50597E-09  5.25707E-09  5.10414E-09  4.93837E-09  4.91444E-09  5.16022E-09  5.61032E-09  6.05160E-09  6.25104E-09  6.19246E-09
   6.23868E-09  6.31765E-09  6.36514E-09  6.30165E-09  6.07503E-09  5.72302E-09  5.48469E-09  5.30670E-09  5.17031E-09  5.06886E-09
   4.98208E-09  4.86701E-09  4.68083E-09  4.45805E-09  4.31651E-09  4.21185E-09  4.12192E-09  4.03729E-09  3.95565E-09  3.88275E-09
   3.81825E-09  3.76268E-09  3.71401E-09  3.66456E-09  3.62610E-09  3.65045E-09  3.72406E-09  3.84422E-09  4.03060E-09  4.26003E-09
   4.48789E-09  4.70667E-09  4.89142E-09  5.02869E-09  5.08621E-09  5.03901E-09  4.92710E-09  4.79396E-09  4.55995E-09  4.29684E-09
   4.13679E-09  4.03710E-09  3.96739E-09  3.96351E-09  4.00348E-09  4.09059E-09  4.29287E-09  4.68688E-09  5.26694E-09  5.91973E-09
   6.51278E-09  6.93817E-09  7.15178E-09  7.28818E-09  7.37477E-09  7.25530E-09  6.87999E-09  6.32871E-09  5.78809E-09  5.39738E-09
   5.14399E-09  4.95740E-09  4.80839E-09  4.68264E-09  4.57156E-09  4.47300E-09  4.38697E-09  4.30941E-09  4.23537E-09  4.16337E-09
   4.09815E-09  4.03976E-09  3.98365E-09  3.92828E-09  3.87576E-09  3.82584E-09  3.77795E-09  3.73172E-09  3.68672E-09  3.64277E-09
   3.59970E-09  3.55732E-09  3.51551E-09  3.47411E-09  3.43304E-09  3.39217E-09  3.35143E-09  3.31074E-09  3.27001E-09  3.22921E-09
   3.18821E-09  3.14701E-09  3.10556E-09  3.06382E-09  3.02179E-09  2.97943E-09  2.93674E-09  2.89370E-09  2.85032E-09  2.80657E-09
   2.76246E-09  2.71798E-09  2.67313E-09  2.62792E-09  2.58233E-09  2.53637E-09  2.49006E-09  2.44338E-09  2.39636E-09  2.34899E-09
   2.30128E-09  2.25325E-09  2.20491E-09  2.15627E-09  2.10732E-09  2.05810E-09  2.00863E-09  1.95891E-09  1.90898E-09  1.85885E-09
   1.80858E-09  1.75816E-09  1.70768E-09  1.65720E-09  1.60678E-09  1.55653E-09  1.50664E-09  1.45730E-09  1.40885E-09  1.36182E-09
   1.31700E-09  1.27580E-09  1.24071E-09  1.21670E-09  1.21482E-09  1.26545E-09  1.48790E-09  2.44902E-09  4.19836E-09  6.30540E-09
   8.18941E-09  9.39407E-09  9.84831E-09  9.80609E-09  9.52846E-09  8.95352E-09  7.68941E-09  5.47445E-09  2.88427E-09  1.63264E-09
   1.18193E-09  9.36993E-10  7.72394E-10  6.47841E-10  5.46349E-10  4.59486E-10  3.82564E-10  3.12763E-10  2.48290E-10  1.87947E-10
   1.30895E-10  7.65519E-11  2.44736E-11 -2.56555E-11 -7.40887E-11 -1.21021E-10 -1.66592E-10 -2.10924E-10 -2.54117E-10 -2.96239E-10
  -3.37355E-10 -3.77523E-10 -4.16777E-10 -4.55151E-10 -4.92679E-10 -5.29382E-10 -5.65281E-10 -6.00383E-10 -6.34716E-10 -6.68286E-10
  -7.01103E-10 -7.33169E-10 -7.64498E-10 -7.95089E-10 -8.24959E-10 -8.54101E-10 -8.82516E-10 -9.10213E-10 -9.37198E-10 -9.63463E-10
  -9.89010E-10 -1.01384E-09 -1.03796E-09 -1.06138E-09 -1.08408E-09 -1.10606E-09 -1.12734E-09 -1.14792E-09 -1.16777E-09 -1.18691E-09
  -1.20535E-09 -1.22308E-09 -1.24009E-09 -1.25640E-09 -1.27200E-09 -1.28689E-09 -1.30108E-09 -1.31456E-09 -1.32734E-09 -1.33940E-09
  -1.35077E-09 -1.36144E-09 -1.37140E-09 -1.38068E-09 -1.38929E-09 -1.39725E-09 -1.40458E-09 -1.41130E-09 -1.41742E-09 -1.42297E-09
  -1.42796E-09 -1.43242E-09 -1.43635E-09 -1.43978E-09 -1.44272E-09 -1.44520E-09 -1.44723E-09 -1.44883E-09 -1.45001E-09 -1.45079E-09
  -1.45120E-09 -1.45124E-09 -1.45094E-09 -1.45030E-09 -1.44935E-09 -1.44811E-09 -1.44658E-09 -1.44479E-09 -1.44275E-09 -1.44047E-09
  -1.43798E-09 -1.43527E-09 -1.43238E-09 -1.42932E-09 -1.42609E-09 -1.42271E-09 -1.41921E-09 -1.41558E-09 -1.41184E-09 -1.40801E-09
  -1.40410E-09 -1.40012E-09 -1.39608E-09 -1.39200E-09 -1.38788E-09 -1.38374E-09 -1.37958E-09 -1.37543E-09 -1.37128E-09 -1.36716E-09
  -1.36305E-09 -1.35899E-09 -1.35497E-09 -1.35101E-09 -1.34710E-09 -1.34327E-09 -1.33952E-09 -1.33584E-09 -1.33226E-09 -1.32878E-09
  -1.32540E-09 -1.32212E-09 -1.31896E-09 -1.31591E-09 -1.31296E-09 -1.31010E-09 -1.30732E-09 -1.30460E-09 -1.30194E-09 -1.29933E-09
  -1.29675E-09 -1.29419E-09 -1.29165E-09 -1.28910E-09 -1.28655E-09 -1.28399E-09 -1.28139E-09 -1.27876E-09 -1.27607E-09 -1.27334E-09
  -1.27053E-09 -1.26765E-09 -1.26469E-09 -1.26164E-09 -1.25848E-09 -1.25521E-09 -1.25182E-09 -1.24831E-09 -1.24467E-09 -1.24088E-09
  -1.23694E-09 -1.23285E-09 -1.22859E-09 -1.22416E-09 -1.21956E-09 -1.21477E-09 -1.20979E-09 -1.20462E-09 -1.19925E-09 -1.19366E-09
  -1.18787E-09 -1.18186E-09 -1.17562E-09 -1.16916E-09 -1.16247E-09 -1.15554E-09 -1.14837E-09 -1.14096E-09 -1.13330E-09 -1.12539E-09
  -1.11722E-09 -1.10880E-09 -1.10013E-09 -1.09119E-09 -1.08198E-09 -1.07251E-09 -1.06278E-09 -1.05278E-09 -1.04251E-09 -1.03197E-09
  -1.02116E-09 -1.01008E-09 -9.98727E-10
 NY background values follow
     1.480E-09    1.513E-09    1.546E-09    1.578E-09    1.610E-09    1.642E-09    1.673E-09    1.703E-09    1.734E-09    1.763E-09
     1.793E-09    1.821E-09    1.850E-09    1.878E-09    1.905E-09    1.932E-09    1.959E-09    1.985E-09    2.011E-09    2.036E-09
     2.061E-09    2.085E-09    2.109E-09    2.133E-09    2.156E-09    2.178E-09    2.201E-09    2.222E-09    2.244E-09    2.265E-09
     2.285E-09    2.305E-09    2.325E-09    2.344E-09    2.363E-09    2.381E-09    2.399E-09    2.417E-09    2.434E-09    2.450E-09
     2.467E-09    2.483E-09    2.498E-09    2.513E-09    2.528E-09    2.543E-09    2.557E-09    2.570E-09    2.584E-09    2.596E-09
     2.609E-09    2.621E-09    2.633E-09    2.645E-09    2.656E-09    2.666E-09    2.677E-09    2.687E-09    2.697E-09    2.706E-09
     2.716E-09    2.725E-09    2.733E-09    2.741E-09    2.749E-09    2.757E-09    2.764E-09    2.771E-09    2.778E-09    2.784E-09
     2.790E-09    2.796E-09    2.801E-09    2.806E-09    2.810E-09    2.814E-09    2.818E-09    2.821E-09    2.824E-09    2.827E-09
     2.829E-09    2.831E-09    2.832E-09    2.833E-09    2.833E-09    2.833E-09    2.832E-09    2.831E-09    2.830E-09    2.828E-09
     2.825E-09    2.822E-09    2.819E-09    2.815E-09    2.810E-09    2.805E-09    2.799E-09    2.793E-09    2.786E-09    2.779E-09
     2.770E-09    2.762E-09    2.752E-09    2.743E-09    2.732E-09    2.721E-09    2.709E-09    2.696E-09    2.683E-09    2.669E-09
     2.655E-09    2.639E-09    2.623E-09    2.606E-09    2.589E-09    2.571E-09    2.551E-09    2.532E-09    2.511E-09    2.490E-09
     2.467E-09    2.444E-09    2.420E-09    2.395E-09    2.370E-09    2.344E-09    2.317E-09    2.289E-09    2.260E-09    2.231E-09
     2.201E-09    2.170E-09    2.139E-09    2.107E-09    2.074E-09    2.041E-09    2.007E-09    1.972E-09    1.937E-09    1.901E-09
     1.865E-09    1.828E-09    1.791E-09    1.753E-09    1.715E-09    1.677E-09    1.638E-09    1.598E-09    1.558E-09    1.518E-09
     1.478E-09    1.437E-09    1.396E-09    1.354E-09    1.313E-09    1.271E-09    1.229E-09    1.186E-09    1.144E-09    1.101E-09
     1.058E-09    1.015E-09    9.724E-10    9.294E-10    8.863E-10    8.432E-10    8.001E-10    7.570E-10    7.140E-10    6.711E-10
     6.282E-10    5.855E-10    5.428E-10    5.004E-10    4.581E-10    4.160E-10    3.742E-10    3.326E-10    2.913E-10    2.502E-10
     2.095E-10    1.691E-10    1.290E-10    8.934E-11    5.002E-11    1.110E-11   -2.744E-11   -6.558E-11   -1.033E-10   -1.406E-10
    -1.775E-10   -2.139E-10   -2.499E-10   -2.855E-10   -3.206E-10   -3.552E-10   -3.894E-10   -4.230E-10   -4.562E-10   -4.889E-10
    -5.210E-10   -5.527E-10   -5.838E-10   -6.144E-10   -6.445E-10   -6.740E-10   -7.030E-10   -7.314E-10   -7.593E-10   -7.866E-10
    -8.134E-10   -8.395E-10   -8.651E-10   -8.901E-10   -9.145E-10   -9.383E-10   -9.616E-10   -9.842E-10   -1.006E-09   -1.028E-09
    -1.048E-09   -1.068E-09   -1.088E-09   -1.107E-09   -1.125E-09   -1.143E-09   -1.160E-09   -1.176E-09   -1.192E-09   -1.207E-09
    -1.221E-09   -1.235E-09   -1.248E-09   -1.261E-09   -1.272E-09   -1.283E-09   -1.294E-09   -1.304E-09   -1.313E-09   -1.321E-09
    -1.329E-09   -1.337E-09   -1.343E-09   -1.349E-09   -1.354E-09   -1.359E-09   -1.363E-09   -1.367E-09   -1.369E-09   -1.372E-09
    -1.374E-09   -1.375E-09   -1.376E-09   -1.376E-09   -1.376E-09   -1.376E-09   -1.375E-09   -1.374E-09   -1.372E-09   -1.370E-09
    -1.368E-09   -1.365E-09   -1.362E-09   -1.359E-09   -1.355E-09   -1.351E-09   -1.347E-09   -1.342E-09   -1.338E-09   -1.333E-09
    -1.328E-09   -1.323E-09   -1.317E-09   -1.312E-09   -1.306E-09   -1.300E-09   -1.294E-09   -1.288E-09   -1.282E-09   -1.276E-09
    -1.270E-09   -1.264E-09   -1.257E-09   -1.251E-09   -1.245E-09   -1.238E-09   -1.232E-09   -1.226E-09   -1.220E-09   -1.213E-09
    -1.207E-09   -1.201E-09   -1.195E-09   -1.189E-09   -1.183E-09   -1.177E-09   -1.171E-09   -1.166E-09   -1.160E-09   -1.155E-09
    -1.149E-09   -1.144E-09   -1.139E-09   -1.134E-09   -1.130E-09   -1.125E-09   -1.120E-09   -1.116E-09   -1.111E-09   -1.107E-09
    -1.103E-09   -1.098E-09   -1.094E-09   -1.090E-09   -1.086E-09   -1.081E-09   -1.077E-09   -1.073E-09   -1.068E-09   -1.064E-09
    -1.060E-09   -1.055E-09   -1.051E-09   -1.046E-09   -1.041E-09   -1.037E-09   -1.032E-09   -1.027E-09   -1.022E-09   -1.016E-09
    -1.011E-09   -1.005E-09   -9.996E-10   -9.938E-10   -9.878E-10   -9.816E-10   -9.752E-10   -9.687E-10   -9.620E-10   -9.551E-10
    -9.479E-10   -9.406E-10   -9.331E-10   -9.253E-10   -9.174E-10   -9.092E-10   -9.007E-10   -8.921E-10   -8.832E-10   -8.741E-10
    -8.647E-10   -8.551E-10   -8.452E-10   -8.351E-10   -8.248E-10   -8.142E-10   -8.033E-10   -7.922E-10   -7.808E-10   -7.692E-10
    -7.573E-10   -7.451E-10   -7.327E-10
 Gln      Conc. = 7.15E-10
   8.74324E-10  9.78489E-10  1.13198E-09  1.33116E-09  1.55704E-09  1.78594E-09  1.99263E-09  2.15817E-09  2.27772E-09  2.37884E-09
   2.40926E-09  2.35486E-09  2.33086E-09  2.26419E-09  2.20784E-09  2.17266E-09  2.15096E-09  2.13801E-09  2.13103E-09  2.12826E-09
   2.12854E-09  2.13105E-09  2.13520E-09  2.14058E-09  2.14694E-09  2.15409E-09  2.16168E-09  2.16957E-09  2.17771E-09  2.18586E-09
   2.19391E-09  2.20177E-09  2.20935E-09  2.21659E-09  2.22341E-09  2.22973E-09  2.23549E-09  2.24063E-09  2.24505E-09  2.24867E-09
   2.25140E-09  2.25316E-09  2.25387E-09  2.25346E-09  2.25179E-09  2.24874E-09  2.24413E-09  2.23762E-09  2.22900E-09  2.21827E-09
   2.20505E-09  2.18913E-09  2.17100E-09  2.15358E-09  2.15428E-09  2.21480E-09  2.32535E-09  2.47391E-09  2.68413E-09  2.94712E-09
   3.22853E-09  3.51252E-09  3.76556E-09  3.95035E-09  4.03726E-09  4.02057E-09  3.94600E-09  3.86370E-09  3.67194E-09  3.43210E-09
   3.27503E-09  3.16775E-09  3.08286E-09  3.07246E-09  3.12728E-09  3.25352E-09  3.42329E-09  3.61783E-09  3.82147E-09  4.01396E-09
   4.17993E-09  4.29485E-09  4.31562E-09  4.29812E-09  4.26182E-09  4.13779E-09  3.99087E-09  3.88861E-09  3.76269E-09  3.64665E-09
   3.55842E-09  3.48825E-09  3.43052E-09  3.38150E-09  3.33834E-09  3.29975E-09  3.26482E-09  3.23262E-09  3.20265E-09  3.17452E-09
   3.14774E-09  3.12194E-09  3.09692E-09  3.07249E-09  3.04856E-09  3.02497E-09  3.00155E-09  2.97823E-09  2.95491E-09  2.93150E-09
   2.90794E-09  2.88416E-09  2.86012E-09  2.83574E-09  2.81101E-09  2.78587E-09  2.76028E-09  2.73421E-09  2.70762E-09  2.68051E-09
   2.65279E-09  2.62447E-09  2.59554E-09  2.56599E-09  2.53581E-09  2.50503E-09  2.47362E-09  2.44161E-09  2.40900E-09  2.37579E-09
   2.34199E-09  2.30762E-09  2.27268E-09  2.23719E-09  2.20114E-09  2.16457E-09  2.12747E-09  2.08986E-09  2.05176E-09  2.01318E-09
   1.97414E-09  1.93464E-09  1.89471E-09  1.85438E-09  1.81363E-09  1.77250E-09  1.73101E-09  1.68918E-09  1.64701E-09  1.60455E-09
   1.56181E-09  1.51880E-09  1.47556E-09  1.43213E-09  1.38851E-09  1.34475E-09  1.30091E-09  1.25703E-09  1.21319E-09  1.16951E-09
   1.12612E-09  1.08331E-09  1.04151E-09  1.00158E-09  9.65380E-10  9.37959E-10  9.38573E-10  1.06922E-09  1.32900E-09  1.64381E-09
   1.91597E-09  2.07110E-09  2.10161E-09  2.05290E-09  1.96853E-09  1.83504E-09  1.58378E-09  1.17161E-09  7.00785E-10  4.77638E-10
   3.74090E-10  3.01908E-10  2.42346E-10  1.89273E-10  1.40078E-10  9.34721E-11  4.87389E-11  5.44654E-12 -3.66726E-11 -7.77954E-11
  -1.18050E-10 -1.57511E-10 -1.96247E-10 -2.34293E-10 -2.71686E-10 -3.08452E-10 -3.44599E-10 -3.80143E-10 -4.15093E-10 -4.49452E-10
  -4.83222E-10 -5.16414E-10 -5.49022E-10 -5.81042E-10 -6.12480E-10 -6.43331E-10 -6.73596E-10 -7.03260E-10 -7.32336E-10 -7.60815E-10
  -7.88693E-10 -8.15963E-10 -8.42626E-10 -8.68674E-10 -8.94114E-10 -9.18934E-10 -9.43127E-10 -9.66697E-10 -9.89643E-10 -1.01195E-09
  -1.03363E-09 -1.05466E-09 -1.07505E-09 -1.09481E-09 -1.11392E-09 -1.13237E-09 -1.15018E-09 -1.16733E-09 -1.18383E-09 -1.19967E-09
  -1.21485E-09 -1.22937E-09 -1.24323E-09 -1.25642E-09 -1.26895E-09 -1.28082E-09 -1.29202E-09 -1.30256E-09 -1.31243E-09 -1.32162E-09
  -1.33016E-09 -1.33803E-09 -1.34524E-09 -1.35179E-09 -1.35770E-09 -1.36300E-09 -1.36770E-09 -1.37182E-09 -1.37537E-09 -1.37838E-09
  -1.38086E-09 -1.38283E-09 -1.38430E-09 -1.38530E-09 -1.38584E-09 -1.38594E-09 -1.38562E-09 -1.38488E-09 -1.38376E-09 -1.38227E-09
  -1.38042E-09 -1.37823E-09 -1.37571E-09 -1.37289E-09 -1.36978E-09 -1.36639E-09 -1.36274E-09 -1.35884E-09 -1.35472E-09 -1.35038E-09
  -1.34584E-09 -1.34112E-09 -1.33623E-09 -1.33118E-09 -1.32599E-09 -1.32066E-09 -1.31523E-09 -1.30969E-09 -1.30406E-09 -1.29836E-09
  -1.29259E-09 -1.28677E-09 -1.28091E-09 -1.27502E-09 -1.26912E-09 -1.26320E-09 -1.25730E-09 -1.25140E-09 -1.24553E-09 -1.23969E-09
  -1.23390E-09 -1.22816E-09 -1.22248E-09 -1.21687E-09 -1.21133E-09 -1.20588E-09 -1.20052E-09 -1.19526E-09 -1.19011E-09 -1.18506E-09
  -1.18014E-09 -1.17533E-09 -1.17065E-09 -1.16610E-09 -1.16166E-09 -1.15732E-09 -1.15307E-09 -1.14891E-09 -1.14481E-09 -1.14077E-09
  -1.13678E-09 -1.13282E-09 -1.12889E-09 -1.12497E-09 -1.12106E-09 -1.11714E-09 -1.11321E-09 -1.10925E-09 -1.10526E-09 -1.10122E-09
  -1.09713E-09 -1.09297E-09 -1.08874E-09 -1.08443E-09 -1.08004E-09 -1.07554E-09 -1.07093E-09 -1.06621E-09 -1.06137E-09 -1.05640E-09
  -1.05129E-09 -1.04603E-09 -1.04062E-09 -1.03505E-09 -1.02932E-09 -1.02341E-09 -1.01732E-09 -1.01105E-09 -1.00459E-09 -9.97931E-10
  -9.91072E-10 -9.84002E-10 -9.76722E-10 -9.69225E-10 -9.61507E-10 -9.53563E-10 -9.45388E-10 -9.36981E-10 -9.28336E-10 -9.19451E-10
  -9.10322E-10 -9.00947E-10 -8.91324E-10 -8.81449E-10 -8.71320E-10 -8.60936E-10 -8.50296E-10 -8.39398E-10 -8.28241E-10 -8.16824E-10
  -8.05146E-10 -7.93208E-10 -7.81007E-10
 GPC      Conc. = 9.35E-11
   1.45012E-09  1.50075E-09  1.51205E-09  1.48669E-09  1.45828E-09  1.46153E-09  1.52100E-09  1.62164E-09  1.74178E-09  1.86135E-09
   1.96929E-09  2.06185E-09  2.13259E-09  2.17116E-09  2.17316E-09  2.12317E-09  2.05294E-09  1.97818E-09  1.91569E-09  1.85569E-09
   1.78844E-09  1.70343E-09  1.58746E-09  1.47636E-09  1.51506E-09  1.74319E-09  2.12461E-09  2.56343E-09  2.96054E-09  3.27823E-09
   3.54474E-09  3.79885E-09  4.01120E-09  4.06231E-09  3.83821E-09  3.47386E-09  3.28464E-09  3.17194E-09  3.09740E-09  3.04506E-09
   3.00695E-09  2.97860E-09  2.95723E-09  2.94104E-09  2.92877E-09  2.91956E-09  2.91274E-09  2.90783E-09  2.90447E-09  2.90235E-09
   2.90124E-09  2.90096E-09  2.90136E-09  2.90232E-09  2.90370E-09  2.90544E-09  2.90747E-09  2.90973E-09  2.91216E-09  2.91473E-09
   2.91738E-09  2.92009E-09  2.92284E-09  2.92559E-09  2.92831E-09  2.93098E-09  2.93355E-09  2.93602E-09  2.93836E-09  2.94054E-09
   2.94256E-09  2.94439E-09  2.94601E-09  2.94741E-09  2.94858E-09  2.94949E-09  2.95013E-09  2.95051E-09  2.95057E-09  2.95034E-09
   2.94978E-09  2.94888E-09  2.94764E-09  2.94604E-09  2.94407E-09  2.94171E-09  2.93896E-09  2.93580E-09  2.93222E-09  2.92821E-09
   2.92374E-09  2.91883E-09  2.91345E-09  2.90759E-09  2.90123E-09  2.89438E-09  2.88700E-09  2.87910E-09  2.87066E-09  2.86167E-09
   2.85212E-09  2.84199E-09  2.83129E-09  2.81997E-09  2.80806E-09  2.79552E-09  2.78234E-09  2.76852E-09  2.75406E-09  2.73891E-09
   2.72310E-09  2.70658E-09  2.68937E-09  2.67143E-09  2.65278E-09  2.63339E-09  2.61324E-09  2.59234E-09  2.57067E-09  2.54823E-09
   2.52496E-09  2.50090E-09  2.47603E-09  2.45036E-09  2.42391E-09  2.39669E-09  2.36871E-09  2.33999E-09  2.31054E-09  2.28038E-09
   2.24952E-09  2.21798E-09  2.18578E-09  2.15292E-09  2.11943E-09  2.08532E-09  2.05062E-09  2.01533E-09  1.97948E-09  1.94307E-09
   1.90615E-09  1.86871E-09  1.83078E-09  1.79239E-09  1.75353E-09  1.71423E-09  1.67453E-09  1.63443E-09  1.59395E-09  1.55312E-09
   1.51197E-09  1.47048E-09  1.42871E-09  1.38668E-09  1.34439E-09  1.30186E-09  1.25915E-09  1.21625E-09  1.17320E-09  1.13004E-09
   1.08679E-09  1.04352E-09  1.00030E-09  9.57272E-10  9.14737E-10  8.73563E-10  8.37604E-10  8.21724E-10  8.21848E-10  8.26963E-10
   8.23869E-10  8.03949E-10  7.68190E-10  7.23554E-10  6.75013E-10  6.18844E-10  5.45035E-10  4.50108E-10  3.53348E-10  2.94752E-10
   2.46814E-10  2.02333E-10  1.59566E-10  1.17888E-10  7.70091E-11  3.67930E-11 -2.83791E-12 -4.19320E-11 -8.05124E-11 -1.18593E-10
  -1.56189E-10 -1.93294E-10 -2.29917E-10 -2.66049E-10 -3.01693E-10 -3.36848E-10 -3.71502E-10 -4.05652E-10 -4.39297E-10 -4.72425E-10
  -5.05032E-10 -5.37120E-10 -5.68676E-10 -5.99691E-10 -6.30167E-10 -6.60095E-10 -6.89471E-10 -7.18278E-10 -7.46526E-10 -7.74205E-10
  -8.01307E-10 -8.27825E-10 -8.53756E-10 -8.79093E-10 -9.03842E-10 -9.27987E-10 -9.51522E-10 -9.74449E-10 -9.96768E-10 -1.01846E-09
  -1.03954E-09 -1.05998E-09 -1.07980E-09 -1.09899E-09 -1.11755E-09 -1.13546E-09 -1.15273E-09 -1.16937E-09 -1.18535E-09 -1.20068E-09
