 LCModel (Version 6.3-1R) Copyright: S.W. Provencher.          Ref.: Magn. Reson. Med. 30:672-679 (1993).                
 onepulse 30x21_ftSpec_smooth_lcm
 26 lines in following concentration table = NCONC+1
    Conc.  %SD /Cr+PCr  Metabolite                                         
 5.89E-10  85%   2.652 Ala                                                 
 3.58E-10 273%   1.611 Asp                                                 
 2.22E-10 200%   1.000 Cr                                                  
 3.70E-10 201%   1.665 GABA                                                
 3.60E-10 182%   1.618 Glc                                                 
    0.000 999%   0.000 Gln                                                 
    0.000 999%   0.000 Glu                                                 
    0.000 999%   0.000 Glyc                                                
 2.57E-10  53%   1.158 GPC                                                 
 3.41E-10 158%   1.536 GSH                                                 
    0.000 999%   0.000 Ins                                                 
 3.86E-10 129%   1.737 Lac                                                 
    0.000 999%   0.000 NAAG                                                
    0.000 999%   0.000 NAA                                                 
    0.000 999%   0.000 PCh                                                 
    0.000 999%   0.000 PCr                                                 
    0.000 999%   0.000 PE                                                  
 1.17E-10 199%   0.526 Scyllo                                              
    0.000 999%   0.000 Ser                                                 
    0.000 999%   0.000 Tau                                                 
 2.57E-10  53%   1.158 GPC+PCh                                             
    0.000 999%   0.000 NAA+NAAG                                            
    0.000 999%   0.000 Ins+Glyc                                            
 2.22E-10 200%   1.000 Cr+PCr                                              
    0.000 999%   0.000 Glu+Gln                                             
   6 lines in following misc. output table
  FWHM = 0.089 ppm    S/N =   1                                            
  Data shift = 0.034 ppm                                                   
  Ph: -15 deg      16.6 deg/ppm                                            
  alphaB,S = 1.5E+00,   2.8E+01                                            
    9 spline knots.   Ns = 5(1)                                            
  ( 8) 2 infls.   ( 5) 1 extrs.                                            
  363 points on ppm-axis = NY
      4.250000     4.238821     4.227641     4.216462     4.205282     4.194103     4.182923     4.171744     4.160564     4.149385
      4.138206     4.127026     4.115847     4.104667     4.093488     4.082308     4.071129     4.059949     4.048770     4.037591
      4.026411     4.015232     4.004052     3.992873     3.981693     3.970514     3.959334     3.948155     3.936975     3.925796
      3.914617     3.903437     3.892258     3.881078     3.869899     3.858719     3.847540     3.836360     3.825181     3.814002
      3.802822     3.791643     3.780463     3.769284     3.758104     3.746925     3.735745     3.724566     3.713387     3.702207
      3.691028     3.679848     3.668669     3.657489     3.646310     3.635130     3.623951     3.612772     3.601592     3.590413
      3.579233     3.568054     3.556874     3.545695     3.534515     3.523336     3.512156     3.500977     3.489798     3.478618
      3.467439     3.456259     3.445080     3.433900     3.422721     3.411541     3.400362     3.389183     3.378003     3.366824
      3.355644     3.344465     3.333285     3.322106     3.310926     3.299747     3.288568     3.277388     3.266209     3.255029
      3.243850     3.232670     3.221491     3.210311     3.199132     3.187953     3.176773     3.165594     3.154414     3.143235
      3.132055     3.120876     3.109696     3.098517     3.087337     3.076158     3.064979     3.053799     3.042620     3.031440
      3.020261     3.009081     2.997902     2.986722     2.975543     2.964364     2.953184     2.942005     2.930825     2.919646
      2.908466     2.897287     2.886107     2.874928     2.863749     2.852569     2.841390     2.830210     2.819031     2.807851
      2.796672     2.785492     2.774313     2.763134     2.751954     2.740775     2.729595     2.718416     2.707236     2.696057
      2.684877     2.673698     2.662519     2.651339     2.640160     2.628980     2.617801     2.606621     2.595442     2.584262
      2.573083     2.561903     2.550724     2.539545     2.528365     2.517186     2.506006     2.494827     2.483647     2.472468
      2.461288     2.450109     2.438930     2.427750     2.416571     2.405391     2.394212     2.383032     2.371853     2.360673
      2.349494     2.338315     2.327135     2.315956     2.304776     2.293597     2.282417     2.271238     2.260058     2.248879
      2.237700     2.226520     2.215341     2.204161     2.192982     2.181802     2.170623     2.159443     2.148264     2.137084
      2.125905     2.114726     2.103546     2.092367     2.081187     2.070008     2.058828     2.047649     2.036469     2.025290
      2.014111     2.002931     1.991752     1.980572     1.969393     1.958213     1.947034     1.935854     1.924675     1.913496
      1.902316     1.891137     1.879957     1.868778     1.857598     1.846419     1.835239     1.824060     1.812881     1.801701
      1.790522     1.779342     1.768163     1.756983     1.745804     1.734624     1.723445     1.712265     1.701086     1.689907
      1.678727     1.667548     1.656368     1.645189     1.634009     1.622830     1.611650     1.600471     1.589292     1.578112
      1.566933     1.555753     1.544574     1.533394     1.522215     1.511035     1.499856     1.488677     1.477497     1.466318
      1.455138     1.443959     1.432779     1.421600     1.410420     1.399241     1.388062     1.376882     1.365703     1.354523
      1.343344     1.332164     1.320985     1.309805     1.298626     1.287446     1.276267     1.265088     1.253908     1.242729
      1.231549     1.220370     1.209190     1.198011     1.186831     1.175652     1.164473     1.153293     1.142114     1.130934
      1.119755     1.108575     1.097396     1.086216     1.075037     1.063858     1.052678     1.041499     1.030319     1.019140
      1.007960     0.996781     0.985601     0.974422     0.963243     0.952063     0.940884     0.929704     0.918525     0.907345
      0.896166     0.884986     0.873807     0.862628     0.851448     0.840269     0.829089     0.817910     0.806730     0.795551
      0.784371     0.773192     0.762012     0.750833     0.739654     0.728474     0.717295     0.706115     0.694936     0.683756
      0.672577     0.661397     0.650218     0.639039     0.627859     0.616680     0.605500     0.594321     0.583141     0.571962
      0.560782     0.549603     0.538424     0.527244     0.516065     0.504885     0.493706     0.482526     0.471347     0.460167
      0.448988     0.437809     0.426629     0.415450     0.404270     0.393091     0.381911     0.370732     0.359552     0.348373
      0.337193     0.326014     0.314835     0.303655     0.292476     0.281296     0.270117     0.258937     0.247758     0.236578
      0.225399     0.214220     0.203040
 NY phased data points follow
   1.48087E-08  1.14915E-08  1.37161E-08  1.04879E-08  1.32687E-08  9.31764E-09  1.21099E-08  8.51973E-09  1.12882E-08  8.39253E-09
   1.12541E-08  8.54980E-09  1.05445E-08  8.61324E-09  1.07389E-08  8.26188E-09  1.07445E-08  8.43251E-09  1.06953E-08  8.86408E-09
   1.08526E-08  8.55830E-09  1.10431E-08  8.87740E-09  1.12666E-08  9.20556E-09  1.20190E-08  1.05121E-08  1.26042E-08  1.15037E-08
   1.34415E-08  1.10911E-08  1.25378E-08  1.05555E-08  1.19013E-08  9.67383E-09  1.08763E-08  9.13932E-09  1.05376E-08  8.57327E-09
   1.00853E-08  8.46681E-09  1.00041E-08  8.52669E-09  9.97809E-09  8.25960E-09  9.50737E-09  7.49767E-09  9.06828E-09  7.57498E-09
   8.49449E-09  7.23639E-09  8.25368E-09  6.86866E-09  8.01288E-09  6.95611E-09  8.11383E-09  6.49136E-09  7.51904E-09  6.48373E-09
   7.57949E-09  6.68366E-09  7.55060E-09  6.03610E-09  6.49043E-09  5.51713E-09  6.00826E-09  4.14378E-09  5.31890E-09  3.77417E-09
   4.58212E-09  3.38397E-09  4.28179E-09  3.25175E-09  3.71627E-09  2.65476E-09  3.16307E-09  2.83401E-09  3.37358E-09  2.76199E-09
   3.84502E-09  2.89598E-09  3.42865E-09  2.65068E-09  4.08170E-09  3.13206E-09  3.97286E-09  3.45969E-09  4.35072E-09  3.89833E-09
   5.00435E-09  4.33955E-09  5.31977E-09  4.24391E-09  5.21960E-09  4.06787E-09  4.03506E-09  2.95875E-09  3.53052E-09  2.46890E-09
   3.35922E-09  2.85318E-09  3.44232E-09  2.59636E-09  3.69510E-09  3.04825E-09  4.52496E-09  5.05161E-09  5.91310E-09  5.47488E-09
   5.31737E-09  4.49220E-09  4.74763E-09  3.63470E-09  2.96003E-09  2.64171E-09  2.25294E-09  1.88638E-09  1.93212E-09  1.21783E-09
   8.42327E-10  3.59786E-10 -1.70342E-10 -2.65055E-10 -6.10571E-10 -7.43532E-10 -5.49028E-10 -8.74551E-10 -1.20070E-09 -9.85479E-10
  -1.40659E-09 -8.07948E-10 -1.07831E-09 -1.14968E-09 -1.57478E-09 -1.53545E-09 -1.97837E-09 -2.07673E-09 -2.37147E-09 -2.48178E-09
  -2.25426E-09 -2.31779E-09 -2.41574E-09 -1.65342E-09 -2.27022E-09 -2.01901E-09 -2.11733E-09 -1.85599E-09 -2.52757E-09 -1.93262E-09
  -2.17309E-09 -2.33402E-09 -2.13266E-09 -2.16435E-09 -2.23569E-09 -1.96111E-09 -1.75860E-09 -1.52637E-09 -1.62971E-09 -1.43254E-09
  -1.44054E-09 -1.58043E-09 -1.61116E-09 -1.76955E-09 -1.13700E-09 -1.33987E-09 -6.30848E-10 -1.05120E-09 -2.58126E-10 -4.71267E-10
  -2.96190E-10 -4.61356E-10 -9.64195E-11 -4.30692E-10  5.57684E-10 -3.07090E-10  3.47287E-10 -3.10888E-10 -5.33196E-11 -4.97011E-11
  -1.38444E-10 -4.98564E-10 -2.57451E-10 -5.50842E-10 -4.68468E-10 -7.37638E-10 -5.64962E-10 -8.11385E-10 -5.38840E-10 -9.09786E-10
  -4.46560E-10 -8.91187E-10 -1.04844E-09 -1.18474E-09 -9.39333E-10 -1.30655E-09 -8.17720E-10 -1.72999E-09 -1.28939E-09 -2.54487E-09
  -3.10176E-09 -4.55847E-09 -6.26903E-09 -7.31922E-09 -8.74323E-09 -9.80519E-09 -1.08875E-08 -1.14656E-08 -1.22390E-08 -1.30889E-08
  -1.35421E-08 -1.36758E-08 -1.46085E-08 -1.48655E-08 -1.51032E-08 -1.61598E-08 -1.69020E-08 -1.77214E-08 -1.84284E-08 -1.97930E-08
  -2.02334E-08 -2.12610E-08 -2.22306E-08 -2.35634E-08 -2.34928E-08 -2.46094E-08 -2.38318E-08 -2.38557E-08 -2.26318E-08 -2.15490E-08
  -1.91251E-08 -1.70454E-08 -1.34785E-08 -1.12342E-08 -7.29634E-09 -4.80923E-09 -1.32424E-09  1.00426E-09  4.64876E-09  5.83786E-09
   8.30391E-09  8.98131E-09  1.05827E-08  1.05406E-08  1.04627E-08  9.39442E-09  8.68349E-09  7.62016E-09  6.41985E-09  5.38942E-09
   5.17077E-09  4.17732E-09  3.94349E-09  3.08847E-09  3.37633E-09  2.05397E-09  2.57511E-09  1.36695E-09  1.77488E-09  1.60064E-09
   2.08158E-09  1.18677E-09  1.39031E-09  1.16781E-09  1.87493E-09  1.03729E-09  1.78833E-09  8.82201E-10  1.55340E-09  1.03205E-09
   1.59951E-09  1.06545E-09  1.62030E-09  1.08320E-09  1.17480E-09  6.14206E-10  1.57771E-09  7.49606E-10  1.34911E-09  8.40761E-10
   1.44197E-09  5.16759E-10  1.44603E-09  8.12031E-10  1.02643E-09  9.77110E-10  1.01966E-09  2.44227E-10  7.89184E-10  1.59723E-10
   8.26156E-10  6.07724E-10  9.25489E-10  8.03152E-10  1.26822E-09  8.04030E-10  1.39696E-09  8.99573E-10  1.21227E-09  6.74320E-10
   1.38436E-09  1.10183E-09  1.07462E-09  2.77519E-10  1.20535E-09  8.76773E-10  8.33051E-10  1.76886E-10  8.42934E-10  1.95267E-10
   4.95363E-10  3.57272E-10  8.35032E-10  2.29366E-10  5.33377E-10 -2.01542E-10  7.66481E-10  7.23398E-10  4.22146E-10  5.11626E-10
   1.03183E-09  6.93826E-10  6.56643E-10  3.72326E-10  5.07444E-10  6.16724E-10  4.51881E-10  7.96173E-10  4.46970E-10  5.89458E-10
   5.79961E-10  9.83327E-10  5.80201E-10  8.16625E-10  7.73814E-10  8.92623E-10  1.29370E-09  7.49508E-10  8.21827E-10  9.32825E-10
   1.00716E-09  1.09232E-09  9.82895E-10  1.04507E-09  9.04955E-10  8.57022E-10  1.12411E-09  9.31478E-10  9.34352E-10  6.58942E-10
   9.06049E-10  1.15765E-09  9.59594E-10  9.52315E-10  1.36662E-09  1.22596E-09  7.68952E-10  1.57422E-09  8.00886E-10  1.13903E-09
   7.68549E-10  1.23017E-09  9.78048E-10
 NY points of the fit to the data follow
   1.14174E-08  1.16273E-08  1.16565E-08  1.16151E-08  1.16672E-08  1.17500E-08  1.17620E-08  1.16081E-08  1.12813E-08  1.08531E-08
   1.04537E-08  1.01187E-08  9.77126E-09  9.40255E-09  9.04556E-09  8.74313E-09  8.53266E-09  8.45779E-09  8.56955E-09  8.75310E-09
   8.91498E-09  8.99686E-09  9.00821E-09  9.29093E-09  9.94434E-09  1.07132E-08  1.14038E-08  1.18761E-08  1.21188E-08  1.22381E-08
   1.22404E-08  1.19814E-08  1.15174E-08  1.08084E-08  1.00615E-08  9.74037E-09  9.81019E-09  9.95353E-09  1.00461E-08  9.99935E-09
   9.76376E-09  9.33618E-09  8.73874E-09  8.14202E-09  7.71287E-09  7.35847E-09  7.05522E-09  6.78352E-09  6.60943E-09  6.51005E-09
   6.45744E-09  6.41833E-09  6.34895E-09  6.26140E-09  6.17561E-09  6.09008E-09  6.01573E-09  5.95113E-09  5.84256E-09  5.68901E-09
   5.52680E-09  5.37299E-09  5.25477E-09  5.13787E-09  5.02476E-09  4.97814E-09  4.95151E-09  4.90808E-09  4.85789E-09  4.80303E-09
   4.73397E-09  4.62327E-09  4.50621E-09  4.40280E-09  4.29302E-09  4.15931E-09  4.04908E-09  3.96592E-09  3.85003E-09  3.71503E-09
   3.58155E-09  3.44524E-09  3.30451E-09  3.17525E-09  3.07826E-09  2.99060E-09  2.91807E-09  2.86651E-09  2.81582E-09  2.75671E-09
   2.68328E-09  2.60151E-09  2.50640E-09  2.37918E-09  2.24995E-09  2.14107E-09  2.01919E-09  1.90924E-09  1.85274E-09  1.87942E-09
   2.10434E-09  2.36673E-09  2.60128E-09  2.94244E-09  3.31538E-09  3.63719E-09  3.88261E-09  4.06621E-09  4.07561E-09  3.93812E-09
   3.75154E-09  3.56902E-09  3.41390E-09  3.06302E-09  2.62281E-09  2.27052E-09  1.87822E-09  1.44916E-09  1.04718E-09  7.01971E-10
   3.33953E-10  5.34308E-11 -1.11407E-10 -2.37139E-10 -3.44487E-10 -4.41234E-10 -5.31075E-10 -6.16013E-10 -6.97248E-10 -7.75552E-10
  -8.51435E-10 -9.25248E-10 -9.97250E-10 -1.06761E-09 -1.13647E-09 -1.20392E-09 -1.27002E-09 -1.33484E-09 -1.39839E-09 -1.46069E-09
  -1.52175E-09 -1.58156E-09 -1.64012E-09 -1.69738E-09 -1.75333E-09 -1.80793E-09 -1.86110E-09 -1.91278E-09 -1.96290E-09 -2.01135E-09
  -2.05800E-09 -2.10272E-09 -2.14531E-09 -2.18551E-09 -2.22306E-09 -2.25757E-09 -2.28850E-09 -2.31521E-09 -2.33674E-09 -2.35174E-09
  -2.35825E-09 -2.35313E-09 -2.33122E-09 -2.28301E-09 -2.18857E-09 -1.99543E-09 -1.50127E-09 -3.23385E-10  1.01932E-09  2.15833E-09
   2.94581E-09  3.35517E-09  3.38444E-09  3.00856E-09  2.18472E-09  9.05046E-10 -7.12733E-10 -2.33618E-09 -3.41735E-09 -3.63627E-09
  -3.70072E-09 -3.72869E-09 -3.74467E-09 -3.75597E-09 -3.76522E-09 -3.77346E-09 -3.78110E-09 -3.78829E-09 -3.79507E-09 -3.80142E-09
  -3.80729E-09 -3.81264E-09 -3.81742E-09 -3.82160E-09 -3.82513E-09 -3.82797E-09 -3.83009E-09 -3.83148E-09 -3.83210E-09 -3.83195E-09
  -3.83100E-09 -3.82924E-09 -3.82665E-09 -3.82324E-09 -3.81900E-09 -3.81391E-09 -3.80798E-09 -3.80121E-09 -3.79358E-09 -3.78511E-09
  -3.77579E-09 -3.76563E-09 -3.75462E-09 -3.74277E-09 -3.73009E-09 -3.71657E-09 -3.70222E-09 -3.68705E-09 -3.67106E-09 -3.65426E-09
  -3.63664E-09 -3.61823E-09 -3.59902E-09 -3.57902E-09 -3.55824E-09 -3.53668E-09 -3.51436E-09 -3.49128E-09 -3.46745E-09 -3.44287E-09
  -3.41756E-09 -3.39152E-09 -3.36476E-09 -3.33729E-09 -3.30912E-09 -3.28026E-09 -3.25071E-09 -3.22049E-09 -3.18960E-09 -3.15805E-09
  -3.12586E-09 -3.09302E-09 -3.05956E-09 -3.02549E-09 -2.99081E-09 -2.95557E-09 -2.91976E-09 -2.88342E-09 -2.84656E-09 -2.80919E-09
  -2.77135E-09 -2.73303E-09 -2.69428E-09 -2.65509E-09 -2.61550E-09 -2.57552E-09 -2.53516E-09 -2.49445E-09 -2.45341E-09 -2.41205E-09
  -2.37038E-09 -2.32844E-09 -2.28623E-09 -2.24377E-09 -2.20109E-09 -2.15819E-09 -2.11510E-09 -2.07184E-09 -2.02841E-09 -1.98484E-09
  -1.94115E-09 -1.89735E-09 -1.85345E-09 -1.80949E-09 -1.76546E-09 -1.72140E-09 -1.67730E-09 -1.63320E-09 -1.58911E-09 -1.54504E-09
  -1.50101E-09 -1.45702E-09 -1.41311E-09 -1.36929E-09 -1.32557E-09 -1.28196E-09 -1.23849E-09 -1.19516E-09 -1.15198E-09 -1.10899E-09
  -1.06618E-09 -1.02358E-09 -9.81192E-10 -9.39041E-10 -8.97128E-10 -8.55471E-10 -8.14090E-10 -7.72998E-10 -7.32205E-10 -6.91721E-10
  -6.51554E-10 -6.11718E-10 -5.72247E-10 -5.33123E-10 -4.94357E-10 -4.55944E-10 -4.17883E-10 -3.80178E-10 -3.42822E-10 -3.05820E-10
  -2.69169E-10 -2.32867E-10 -1.96914E-10 -1.61312E-10 -1.26056E-10 -9.11473E-11 -5.65834E-11 -2.23675E-11  1.15052E-11  4.50301E-11
   7.82137E-11  1.11054E-10  1.43549E-10  1.75701E-10  2.07511E-10  2.38982E-10  2.70113E-10  3.00902E-10  3.31348E-10  3.61460E-10
   3.91228E-10  4.20654E-10  4.49749E-10  4.78504E-10  5.06913E-10  5.34993E-10  5.62738E-10  5.90138E-10  6.17204E-10  6.43937E-10
   6.70326E-10  6.96387E-10  7.22106E-10  7.47491E-10  7.72536E-10  7.97248E-10  8.21626E-10  8.45666E-10  8.69370E-10  8.92742E-10
   9.15774E-10  9.38470E-10  9.60830E-10  9.82852E-10  1.00454E-09  1.02590E-09  1.04691E-09  1.06759E-09  1.08793E-09  1.10792E-09
   1.12759E-09  1.14691E-09  1.16590E-09
 NY background values follow
     7.874E-09    7.819E-09    7.765E-09    7.709E-09    7.654E-09    7.598E-09    7.541E-09    7.484E-09    7.427E-09    7.369E-09
     7.310E-09    7.252E-09    7.193E-09    7.133E-09    7.073E-09    7.012E-09    6.952E-09    6.890E-09    6.829E-09    6.767E-09
     6.704E-09    6.641E-09    6.578E-09    6.515E-09    6.451E-09    6.386E-09    6.322E-09    6.257E-09    6.191E-09    6.126E-09
     6.059E-09    5.993E-09    5.926E-09    5.859E-09    5.792E-09    5.724E-09    5.656E-09    5.588E-09    5.519E-09    5.450E-09
     5.381E-09    5.311E-09    5.242E-09    5.172E-09    5.101E-09    5.031E-09    4.960E-09    4.888E-09    4.817E-09    4.745E-09
     4.673E-09    4.601E-09    4.529E-09    4.456E-09    4.384E-09    4.310E-09    4.237E-09    4.164E-09    4.090E-09    4.016E-09
     3.942E-09    3.868E-09    3.794E-09    3.719E-09    3.644E-09    3.569E-09    3.494E-09    3.419E-09    3.344E-09    3.268E-09
     3.193E-09    3.117E-09    3.041E-09    2.966E-09    2.890E-09    2.814E-09    2.738E-09    2.662E-09    2.586E-09    2.510E-09
     2.434E-09    2.358E-09    2.281E-09    2.205E-09    2.129E-09    2.053E-09    1.977E-09    1.901E-09    1.826E-09    1.750E-09
     1.674E-09    1.598E-09    1.523E-09    1.447E-09    1.372E-09    1.297E-09    1.222E-09    1.147E-09    1.072E-09    9.976E-10
     9.232E-10    8.490E-10    7.749E-10    7.011E-10    6.275E-10    5.540E-10    4.808E-10    4.079E-10    3.352E-10    2.627E-10
     1.905E-10    1.186E-10    4.695E-11   -2.442E-11   -9.548E-11   -1.662E-10   -2.367E-10   -3.068E-10   -3.765E-10   -4.459E-10
    -5.150E-10   -5.838E-10   -6.521E-10   -7.201E-10   -7.876E-10   -8.548E-10   -9.215E-10   -9.878E-10   -1.054E-09   -1.119E-09
    -1.184E-09   -1.248E-09   -1.312E-09   -1.375E-09   -1.438E-09   -1.500E-09   -1.562E-09   -1.623E-09   -1.683E-09   -1.743E-09
    -1.802E-09   -1.860E-09   -1.918E-09   -1.975E-09   -2.032E-09   -2.087E-09   -2.142E-09   -2.197E-09   -2.250E-09   -2.303E-09
    -2.355E-09   -2.406E-09   -2.457E-09   -2.506E-09   -2.555E-09   -2.603E-09   -2.650E-09   -2.696E-09   -2.741E-09   -2.786E-09
    -2.829E-09   -2.872E-09   -2.914E-09   -2.954E-09   -2.994E-09   -3.033E-09   -3.071E-09   -3.108E-09   -3.143E-09   -3.178E-09
    -3.212E-09   -3.245E-09   -3.277E-09   -3.307E-09   -3.337E-09   -3.365E-09   -3.393E-09   -3.419E-09   -3.444E-09   -3.469E-09
    -3.492E-09   -3.513E-09   -3.534E-09   -3.554E-09   -3.572E-09   -3.590E-09   -3.606E-09   -3.621E-09   -3.635E-09   -3.648E-09
    -3.660E-09   -3.670E-09   -3.680E-09   -3.689E-09   -3.696E-09   -3.703E-09   -3.708E-09   -3.712E-09   -3.716E-09   -3.718E-09
    -3.719E-09   -3.720E-09   -3.719E-09   -3.717E-09   -3.714E-09   -3.711E-09   -3.706E-09   -3.700E-09   -3.694E-09   -3.686E-09
    -3.678E-09   -3.669E-09   -3.658E-09   -3.647E-09   -3.635E-09   -3.622E-09   -3.608E-09   -3.593E-09   -3.578E-09   -3.561E-09
    -3.544E-09   -3.525E-09   -3.506E-09   -3.487E-09   -3.466E-09   -3.444E-09   -3.422E-09   -3.399E-09   -3.375E-09   -3.351E-09
    -3.325E-09   -3.299E-09   -3.272E-09   -3.245E-09   -3.217E-09   -3.188E-09   -3.158E-09   -3.127E-09   -3.096E-09   -3.065E-09
    -3.032E-09   -2.999E-09   -2.966E-09   -2.931E-09   -2.896E-09   -2.861E-09   -2.825E-09   -2.788E-09   -2.751E-09   -2.713E-09
    -2.675E-09   -2.637E-09   -2.598E-09   -2.558E-09   -2.518E-09   -2.478E-09   -2.437E-09   -2.396E-09   -2.355E-09   -2.313E-09
    -2.271E-09   -2.229E-09   -2.187E-09   -2.144E-09   -2.101E-09   -2.058E-09   -2.014E-09   -1.971E-09   -1.927E-09   -1.883E-09
    -1.839E-09   -1.795E-09   -1.751E-09   -1.706E-09   -1.662E-09   -1.617E-09   -1.573E-09   -1.529E-09   -1.484E-09   -1.440E-09
    -1.395E-09   -1.351E-09   -1.307E-09   -1.263E-09   -1.219E-09   -1.175E-09   -1.131E-09   -1.087E-09   -1.044E-09   -1.000E-09
    -9.571E-10   -9.142E-10   -8.714E-10   -8.290E-10   -7.867E-10   -7.447E-10   -7.030E-10   -6.616E-10   -6.204E-10   -5.796E-10
    -5.391E-10   -4.990E-10   -4.592E-10   -4.197E-10   -3.806E-10   -3.419E-10   -3.035E-10   -2.655E-10   -2.278E-10   -1.905E-10
    -1.535E-10   -1.169E-10   -8.059E-11   -4.467E-11   -9.092E-12    2.613E-11    6.101E-11    9.554E-11    1.297E-10    1.636E-10
     1.971E-10    2.302E-10    2.630E-10    2.955E-10    3.276E-10    3.594E-10    3.908E-10    4.219E-10    4.526E-10    4.830E-10
     5.131E-10    5.428E-10    5.722E-10    6.013E-10    6.300E-10    6.583E-10    6.864E-10    7.141E-10    7.414E-10    7.684E-10
     7.951E-10    8.214E-10    8.474E-10    8.731E-10    8.984E-10    9.234E-10    9.481E-10    9.724E-10    9.964E-10    1.020E-09
     1.043E-09    1.066E-09    1.089E-09    1.111E-09    1.133E-09    1.155E-09    1.176E-09    1.197E-09    1.218E-09    1.238E-09
     1.258E-09    1.277E-09    1.297E-09
 Ala      Conc. = 5.89E-10
   8.08308E-09  8.09892E-09  8.10180E-09  8.09472E-09  8.07621E-09  8.04469E-09  7.99569E-09  7.91551E-09  7.82871E-09  7.75287E-09
   7.64376E-09  7.52480E-09  7.43324E-09  7.33826E-09  7.24010E-09  7.15237E-09  7.07117E-09  6.99407E-09  6.91970E-09  6.84718E-09
   6.77595E-09  6.70564E-09  6.63598E-09  6.56677E-09  6.49788E-09  6.42919E-09  6.36058E-09  6.29202E-09  6.22346E-09  6.15483E-09
   6.08613E-09  6.01729E-09  5.94830E-09  5.87920E-09  5.80989E-09  5.74040E-09  5.67073E-09  5.60086E-09  5.53078E-09  5.46050E-09
   5.38999E-09  5.31927E-09  5.24833E-09  5.17720E-09  5.10582E-09  5.03425E-09  4.96245E-09  4.89042E-09  4.81821E-09  4.74579E-09
   4.67315E-09  4.60029E-09  4.52726E-09  4.45402E-09  4.38057E-09  4.30693E-09  4.23310E-09  4.15911E-09  4.08491E-09  4.01059E-09
   3.93606E-09  3.86137E-09  3.78652E-09  3.71153E-09  3.63639E-09  3.56112E-09  3.48573E-09  3.41024E-09  3.33464E-09  3.25894E-09
   3.18317E-09  3.10733E-09  3.03144E-09  2.95549E-09  2.87952E-09  2.80353E-09  2.72753E-09  2.65156E-09  2.57559E-09  2.49970E-09
   2.42387E-09  2.34813E-09  2.27251E-09  2.19707E-09  2.12183E-09  2.04682E-09  1.97216E-09  1.89787E-09  1.82409E-09  1.75095E-09
   1.67863E-09  1.60744E-09  1.53774E-09  1.47013E-09  1.40556E-09  1.34562E-09  1.29325E-09  1.25445E-09  1.24414E-09  1.31253E-09
   1.57468E-09  1.86223E-09  2.11214E-09  2.45899E-09  2.82492E-09  3.11661E-09  3.26898E-09  3.24490E-09  3.03144E-09  2.64802E-09
   2.16174E-09  1.68970E-09  1.31114E-09  8.38102E-10  3.96656E-10  1.70490E-10  1.79202E-11 -1.03442E-10 -2.08298E-10 -3.03156E-10
  -3.91526E-10 -4.75271E-10 -5.55623E-10 -6.33349E-10 -7.08978E-10 -7.82871E-10 -8.55292E-10 -9.26423E-10 -9.96400E-10 -1.06533E-09
  -1.13328E-09 -1.20032E-09 -1.26649E-09 -1.33180E-09 -1.39630E-09 -1.45999E-09 -1.52289E-09 -1.58499E-09 -1.64630E-09 -1.70681E-09
  -1.76653E-09 -1.82544E-09 -1.88353E-09 -1.94078E-09 -1.99720E-09 -2.05276E-09 -2.10744E-09 -2.16121E-09 -2.21406E-09 -2.26595E-09
  -2.31684E-09 -2.36672E-09 -2.41551E-09 -2.46317E-09 -2.50964E-09 -2.55483E-09 -2.59862E-09 -2.64087E-09 -2.68140E-09 -2.71992E-09
  -2.75606E-09 -2.78918E-09 -2.81826E-09 -2.84146E-09 -2.85491E-09 -2.84851E-09 -2.78374E-09 -2.58237E-09 -2.34638E-09 -2.14904E-09
  -2.01995E-09 -1.96447E-09 -1.98291E-09 -2.08010E-09 -2.26448E-09 -2.53791E-09 -2.87785E-09 -3.21964E-09 -3.45566E-09 -3.51884E-09
  -3.54991E-09 -3.57281E-09 -3.59241E-09 -3.61018E-09 -3.62664E-09 -3.64201E-09 -3.65636E-09 -3.66974E-09 -3.68215E-09 -3.69359E-09
  -3.70407E-09 -3.71358E-09 -3.72211E-09 -3.72967E-09 -3.73624E-09 -3.74183E-09 -3.74645E-09 -3.75008E-09 -3.75273E-09 -3.75440E-09
  -3.75510E-09 -3.75484E-09 -3.75360E-09 -3.75141E-09 -3.74825E-09 -3.74415E-09 -3.73910E-09 -3.73312E-09 -3.72620E-09 -3.71835E-09
  -3.70959E-09 -3.69992E-09 -3.68934E-09 -3.67786E-09 -3.66550E-09 -3.65225E-09 -3.63814E-09 -3.62315E-09 -3.60731E-09 -3.59061E-09
  -3.57308E-09 -3.55471E-09 -3.53552E-09 -3.51552E-09 -3.49471E-09 -3.47310E-09 -3.45070E-09 -3.42752E-09 -3.40358E-09 -3.37887E-09
  -3.35341E-09 -3.32720E-09 -3.30027E-09 -3.27260E-09 -3.24423E-09 -3.21515E-09 -3.18538E-09 -3.15492E-09 -3.12378E-09 -3.09198E-09
  -3.05952E-09 -3.02642E-09 -2.99267E-09 -2.95831E-09 -2.92335E-09 -2.88781E-09 -2.85170E-09 -2.81505E-09 -2.77787E-09 -2.74019E-09
  -2.70203E-09 -2.66339E-09 -2.62430E-09 -2.58479E-09 -2.54486E-09 -2.50454E-09 -2.46385E-09 -2.42279E-09 -2.38141E-09 -2.33970E-09
  -2.29769E-09 -2.25539E-09 -2.21283E-09 -2.17002E-09 -2.12698E-09 -2.08373E-09 -2.04029E-09 -1.99667E-09 -1.95289E-09 -1.90896E-09
  -1.86491E-09 -1.82076E-09 -1.77650E-09 -1.73218E-09 -1.68780E-09 -1.64337E-09 -1.59892E-09 -1.55446E-09 -1.51001E-09 -1.46558E-09
  -1.42120E-09 -1.37686E-09 -1.33259E-09 -1.28842E-09 -1.24434E-09 -1.20038E-09 -1.15656E-09 -1.11287E-09 -1.06935E-09 -1.02600E-09
  -9.82845E-10 -9.39899E-10 -8.97162E-10 -8.54664E-10 -8.12407E-10 -7.70405E-10 -7.28681E-10 -6.87246E-10 -6.46112E-10 -6.05288E-10
  -5.64782E-10 -5.24608E-10 -4.84800E-10 -4.45341E-10 -4.06241E-10 -3.67495E-10 -3.29102E-10 -2.91067E-10 -2.53381E-10 -2.16051E-10
  -1.79073E-10 -1.42446E-10 -1.06168E-10 -7.02432E-11 -3.46655E-11  5.63678E-13  3.54465E-11  6.99799E-11  1.04169E-10  1.38008E-10
   1.71505E-10  2.04658E-10  2.37463E-10  2.69925E-10  3.02043E-10  3.33820E-10  3.65258E-10  3.96351E-10  4.27099E-10  4.57513E-10
   4.87581E-10  5.17305E-10  5.46697E-10  5.75747E-10  6.04451E-10  6.32824E-10  6.60860E-10  6.88550E-10  7.15905E-10  7.42924E-10
   7.69599E-10  7.95945E-10  8.21947E-10  8.47613E-10  8.72939E-10  8.97930E-10  9.22585E-10  9.46901E-10  9.70880E-10  9.94525E-10
   1.01783E-09  1.04080E-09  1.06342E-09  1.08571E-09  1.10767E-09  1.12929E-09  1.15057E-09  1.17151E-09  1.19211E-09  1.21236E-09
   1.23229E-09  1.25187E-09  1.27111E-09
 Asp      Conc. = 3.58E-10
   8.27648E-09  8.19589E-09  8.10834E-09  8.01244E-09  7.91297E-09  7.80442E-09  7.70012E-09  7.60193E-09  7.51866E-09  7.44279E-09
   7.37109E-09  7.30201E-09  7.23470E-09  7.16852E-09  7.10288E-09  7.03750E-09  6.97229E-09  6.90716E-09  6.84203E-09  6.77685E-09
   6.71154E-09  6.64608E-09  6.58045E-09  6.51463E-09  6.44862E-09  6.38241E-09  6.31597E-09  6.24936E-09  6.18260E-09  6.11571E-09
   6.04880E-09  5.98195E-09  5.91538E-09  5.84952E-09  5.78509E-09  5.72417E-09  5.67311E-09  5.62757E-09  5.58978E-09  5.54928E-09
   5.49961E-09  5.44005E-09  5.37858E-09  5.33037E-09  5.30115E-09  5.30493E-09  5.31092E-09  5.30223E-09  5.30282E-09  5.30568E-09
   5.29965E-09  5.26324E-09  5.18372E-09  5.05572E-09  4.89586E-09  4.74224E-09  4.61298E-09  4.51439E-09  4.40315E-09  4.28129E-09
   4.17881E-09  4.08547E-09  3.99554E-09  3.91283E-09  3.82806E-09  3.73308E-09  3.63247E-09  3.53972E-09  3.45149E-09  3.36596E-09
   3.28223E-09  3.19977E-09  3.11824E-09  3.03743E-09  2.95718E-09  2.87739E-09  2.79796E-09  2.71887E-09  2.64002E-09  2.56143E-09
   2.48305E-09  2.40484E-09  2.32681E-09  2.24896E-09  2.17126E-09  2.09371E-09  2.01632E-09  1.93906E-09  1.86195E-09  1.78500E-09
   1.70819E-09  1.63155E-09  1.55507E-09  1.47874E-09  1.40258E-09  1.32660E-09  1.25080E-09  1.17517E-09  1.09974E-09  1.02453E-09
   9.49501E-10  8.74690E-10  8.00106E-10  7.25740E-10  6.51613E-10  5.77733E-10  5.04090E-10  4.30720E-10  3.57626E-10  2.84792E-10
   2.12257E-10  1.39988E-10  6.80411E-11 -3.61751E-12 -7.49443E-11 -1.45952E-10 -2.16621E-10 -2.86945E-10 -3.56921E-10 -4.26498E-10
  -4.95771E-10 -5.64643E-10 -6.33130E-10 -7.01210E-10 -7.68873E-10 -8.36101E-10 -9.02884E-10 -9.69202E-10 -1.03504E-09 -1.10038E-09
  -1.16521E-09 -1.22951E-09 -1.29328E-09 -1.35648E-09 -1.41911E-09 -1.48115E-09 -1.54258E-09 -1.60340E-09 -1.66357E-09 -1.72308E-09
  -1.78193E-09 -1.84008E-09 -1.89753E-09 -1.95424E-09 -2.01022E-09 -2.06543E-09 -2.11986E-09 -2.17348E-09 -2.22627E-09 -2.27820E-09
  -2.32924E-09 -2.37938E-09 -2.42857E-09 -2.47676E-09 -2.52392E-09 -2.56999E-09 -2.61488E-09 -2.65851E-09 -2.70076E-09 -2.74144E-09
  -2.78034E-09 -2.81703E-09 -2.85091E-09 -2.88082E-09 -2.90436E-09 -2.91523E-09 -2.88906E-09 -2.78067E-09 -2.65199E-09 -2.54683E-09
  -2.48271E-09 -2.46278E-09 -2.48728E-09 -2.55920E-09 -2.68363E-09 -2.86144E-09 -3.07850E-09 -3.29499E-09 -3.44550E-09 -3.49258E-09
  -3.52038E-09 -3.54287E-09 -3.56292E-09 -3.58141E-09 -3.59867E-09 -3.61481E-09 -3.62989E-09 -3.64395E-09 -3.65698E-09 -3.66899E-09
  -3.67999E-09 -3.68997E-09 -3.69893E-09 -3.70688E-09 -3.71382E-09 -3.71974E-09 -3.72466E-09 -3.72858E-09 -3.73149E-09 -3.73341E-09
  -3.73434E-09 -3.73428E-09 -3.73324E-09 -3.73123E-09 -3.72825E-09 -3.72431E-09 -3.71941E-09 -3.71357E-09 -3.70679E-09 -3.69907E-09
  -3.69043E-09 -3.68086E-09 -3.67039E-09 -3.65902E-09 -3.64675E-09 -3.63359E-09 -3.61956E-09 -3.60466E-09 -3.58889E-09 -3.57227E-09
  -3.55481E-09 -3.53651E-09 -3.51739E-09 -3.49745E-09 -3.47669E-09 -3.45514E-09 -3.43280E-09 -3.40967E-09 -3.38578E-09 -3.36112E-09
