 LCModel (Version 6.3-1R) Copyright: S.W. Provencher.          Ref.: Magn. Reson. Med. 30:672-679 (1993).                
 onepulse 30x25_ftSpec_smooth_lcm
 26 lines in following concentration table = NCONC+1
    Conc.  %SD   /Cr    Metabolite                                         
    0.000 999%   0.000 Ala                                                 
    0.000 999%   0.000 Asp                                                 
    0.000 999%   0.000 Cr                                                  
    0.000 999%   0.000 GABA                                                
    0.000 999%   0.000 Glc                                                 
    0.000 999%   0.000 Gln                                                 
    0.000 999%   0.000 Glu                                                 
    0.000 999%   0.000 Glyc                                                
    0.000 999%   0.000 GPC                                                 
    0.000 999%   0.000 GSH                                                 
    0.000 999%   0.000 Ins                                                 
    0.000 999%   0.000 Lac                                                 
    0.000 999%   0.000 NAAG                                                
    0.000 999%   0.000 NAA                                                 
 5.68E-11 151%   0.000 PCh                                                 
    0.000 999%   0.000 PCr                                                 
    0.000 999%   0.000 PE                                                  
    0.000 999%   0.000 Scyllo                                              
    0.000 999%   0.000 Ser                                                 
    0.000 999%   0.000 Tau                                                 
 5.68E-11 151%   0.000 GPC+PCh                                             
    0.000 999%   0.000 NAA+NAAG                                            
    0.000 999%   0.000 Ins+Glyc                                            
    0.000 999%   0.000 Cr+PCr                                              
    0.000 999%   0.000 Glu+Gln                                             
   6 lines in following misc. output table
  FWHM = 0.045 ppm    S/N =   0                                            
  Data shift = 0.078 ppm                                                   
  Ph:  48 deg     -11.8 deg/ppm                                            
  alphaB,S = 1.5E-01,   4.5E+00                                            
   16 spline knots.   Ns = 5(1)                                            
  ( 4) 2 infls.   ( 2) 2 extrs.                                            
  363 points on ppm-axis = NY
      4.250000     4.238821     4.227641     4.216462     4.205282     4.194103     4.182923     4.171744     4.160564     4.149385
      4.138206     4.127026     4.115847     4.104667     4.093488     4.082308     4.071129     4.059949     4.048770     4.037591
      4.026411     4.015232     4.004052     3.992873     3.981693     3.970514     3.959334     3.948155     3.936975     3.925796
      3.914617     3.903437     3.892258     3.881078     3.869899     3.858719     3.847540     3.836360     3.825181     3.814002
      3.802822     3.791643     3.780463     3.769284     3.758104     3.746925     3.735745     3.724566     3.713387     3.702207
      3.691028     3.679848     3.668669     3.657489     3.646310     3.635130     3.623951     3.612772     3.601592     3.590413
      3.579233     3.568054     3.556874     3.545695     3.534515     3.523336     3.512156     3.500977     3.489798     3.478618
      3.467439     3.456259     3.445080     3.433900     3.422721     3.411541     3.400362     3.389183     3.378003     3.366824
      3.355644     3.344465     3.333285     3.322106     3.310926     3.299747     3.288568     3.277388     3.266209     3.255029
      3.243850     3.232670     3.221491     3.210311     3.199132     3.187953     3.176773     3.165594     3.154414     3.143235
      3.132055     3.120876     3.109696     3.098517     3.087337     3.076158     3.064979     3.053799     3.042620     3.031440
      3.020261     3.009081     2.997902     2.986722     2.975543     2.964364     2.953184     2.942005     2.930825     2.919646
      2.908466     2.897287     2.886107     2.874928     2.863749     2.852569     2.841390     2.830210     2.819031     2.807851
      2.796672     2.785492     2.774313     2.763134     2.751954     2.740775     2.729595     2.718416     2.707236     2.696057
      2.684877     2.673698     2.662519     2.651339     2.640160     2.628980     2.617801     2.606621     2.595442     2.584262
      2.573083     2.561903     2.550724     2.539545     2.528365     2.517186     2.506006     2.494827     2.483647     2.472468
      2.461288     2.450109     2.438930     2.427750     2.416571     2.405391     2.394212     2.383032     2.371853     2.360673
      2.349494     2.338315     2.327135     2.315956     2.304776     2.293597     2.282417     2.271238     2.260058     2.248879
      2.237700     2.226520     2.215341     2.204161     2.192982     2.181802     2.170623     2.159443     2.148264     2.137084
      2.125905     2.114726     2.103546     2.092367     2.081187     2.070008     2.058828     2.047649     2.036469     2.025290
      2.014111     2.002931     1.991752     1.980572     1.969393     1.958213     1.947034     1.935854     1.924675     1.913496
      1.902316     1.891137     1.879957     1.868778     1.857598     1.846419     1.835239     1.824060     1.812881     1.801701
      1.790522     1.779342     1.768163     1.756983     1.745804     1.734624     1.723445     1.712265     1.701086     1.689907
      1.678727     1.667548     1.656368     1.645189     1.634009     1.622830     1.611650     1.600471     1.589292     1.578112
      1.566933     1.555753     1.544574     1.533394     1.522215     1.511035     1.499856     1.488677     1.477497     1.466318
      1.455138     1.443959     1.432779     1.421600     1.410420     1.399241     1.388062     1.376882     1.365703     1.354523
      1.343344     1.332164     1.320985     1.309805     1.298626     1.287446     1.276267     1.265088     1.253908     1.242729
      1.231549     1.220370     1.209190     1.198011     1.186831     1.175652     1.164473     1.153293     1.142114     1.130934
      1.119755     1.108575     1.097396     1.086216     1.075037     1.063858     1.052678     1.041499     1.030319     1.019140
      1.007960     0.996781     0.985601     0.974422     0.963243     0.952063     0.940884     0.929704     0.918525     0.907345
      0.896166     0.884986     0.873807     0.862628     0.851448     0.840269     0.829089     0.817910     0.806730     0.795551
      0.784371     0.773192     0.762012     0.750833     0.739654     0.728474     0.717295     0.706115     0.694936     0.683756
      0.672577     0.661397     0.650218     0.639039     0.627859     0.616680     0.605500     0.594321     0.583141     0.571962
      0.560782     0.549603     0.538424     0.527244     0.516065     0.504885     0.493706     0.482526     0.471347     0.460167
      0.448988     0.437809     0.426629     0.415450     0.404270     0.393091     0.381911     0.370732     0.359552     0.348373
      0.337193     0.326014     0.314835     0.303655     0.292476     0.281296     0.270117     0.258937     0.247758     0.236578
      0.225399     0.214220     0.203040
 NY phased data points follow
   1.27609E-09  3.72655E-09  9.18290E-10  3.05049E-09  1.65594E-09  3.01569E-09  1.12454E-09  3.02713E-09  1.71415E-09  2.98749E-09
   1.41579E-09  3.07540E-09  1.35452E-09  3.50521E-09  2.16699E-09  3.03420E-09  1.69652E-09  3.13982E-09  1.60554E-09  2.74239E-09
   1.56215E-09  2.45668E-09  1.89960E-09  3.14352E-09  2.98918E-09  4.54393E-09  4.81551E-09  6.22237E-09  5.13940E-09  5.88955E-09
   4.72237E-09  5.02514E-09  4.22334E-09  4.91920E-09  4.29788E-09  4.94051E-09  4.54524E-09  4.66934E-09  4.46672E-09  5.05760E-09
   4.69309E-09  5.12977E-09  4.96271E-09  5.52656E-09  5.02087E-09  5.02825E-09  4.65912E-09  4.87556E-09  4.48751E-09  4.74338E-09
   4.65262E-09  5.08975E-09  4.24327E-09  5.00178E-09  4.04189E-09  4.34701E-09  4.53933E-09  5.16146E-09  5.05988E-09  5.47567E-09
   5.63117E-09  5.89597E-09  5.07725E-09  5.20307E-09  4.77053E-09  4.80696E-09  4.54210E-09  4.84557E-09  4.15823E-09  4.36751E-09
   3.83325E-09  3.92846E-09  3.31550E-09  3.32945E-09  2.98045E-09  3.27166E-09  2.87982E-09  3.24314E-09  2.75999E-09  3.12239E-09
   2.03168E-09  2.71411E-09  1.78545E-09  2.61397E-09  1.92385E-09  2.44830E-09  1.62133E-09  2.39937E-09  2.12846E-09  3.42425E-09
   3.06293E-09  3.96439E-09  3.05122E-09  3.64742E-09  2.83407E-09  3.32828E-09  1.81794E-09  2.09496E-09  1.40351E-09  1.49699E-09
   6.92128E-10  7.03811E-10  9.26156E-11  5.34914E-10  5.28712E-10  1.99487E-09  2.50018E-09  3.43458E-09  3.16157E-09  3.67330E-09
   3.33953E-09  3.31003E-09  3.13918E-09  3.19219E-09  3.23546E-09  3.50412E-09  3.09572E-09  3.41981E-09  3.03497E-09  3.58669E-09
   3.11932E-09  3.15022E-09  3.02447E-09  2.87600E-09  2.90405E-09  2.90277E-09  2.66790E-09  2.73010E-09  2.90460E-09  3.13456E-09
   2.92819E-09  3.03562E-09  3.25967E-09  3.47383E-09  3.16247E-09  3.27160E-09  2.61943E-09  2.85680E-09  3.12618E-09  3.22260E-09
   3.45751E-09  2.96739E-09  3.42637E-09  3.28922E-09  3.56686E-09  3.21278E-09  3.40587E-09  3.29584E-09  3.14034E-09  2.78444E-09
   2.15741E-09  2.21627E-09  1.63066E-09  1.81263E-09  1.48889E-09  1.29014E-09  1.26508E-09  1.29543E-09  1.06163E-09  1.28602E-09
   6.50265E-10  6.54609E-10  1.94050E-10  5.54461E-10 -1.38984E-10  1.76463E-10 -4.07472E-11  8.12039E-10 -2.34285E-10 -1.46718E-10
  -5.09518E-10 -3.06788E-10 -9.42092E-10 -6.47534E-10 -1.32811E-09 -1.28411E-09 -1.66787E-09 -1.63169E-09 -1.96760E-09 -2.07064E-09
  -2.13198E-09 -2.13764E-09 -1.96523E-09 -2.35877E-09 -2.63347E-09 -2.14406E-09 -2.24882E-09 -2.15589E-09 -2.34053E-09 -2.03749E-09
  -2.34546E-09 -2.04881E-09 -2.19765E-09 -1.98815E-09 -2.08683E-09 -9.74964E-10  1.42391E-10  1.97117E-09  3.42448E-09  3.72396E-09
   4.42647E-09  4.43850E-09  4.91418E-09  5.03192E-09  5.16240E-09  5.67802E-09  6.03196E-09  6.17183E-09  7.05261E-09  6.75603E-09
   7.86442E-09  7.91522E-09  8.69194E-09  8.88849E-09  1.01985E-08  1.08598E-08  1.16844E-08  1.20436E-08  1.38318E-08  1.45302E-08
   1.57147E-08  1.68945E-08  1.81017E-08  1.89453E-08  2.01016E-08  2.07990E-08  2.17046E-08  2.21602E-08  2.31617E-08  2.35678E-08
   2.38372E-08  2.42153E-08  2.39169E-08  2.29033E-08  2.15482E-08  2.00615E-08  1.83327E-08  1.53774E-08  1.20447E-08  8.14803E-09
   4.33694E-09  1.58216E-10 -2.39579E-09 -5.08878E-09 -5.97088E-09 -6.09121E-09 -5.72700E-09 -4.43058E-09 -3.01325E-09 -1.30430E-09
  -5.66551E-10 -5.43906E-11  8.67214E-11  2.20888E-11  4.45808E-10  6.61792E-10  9.26129E-10  1.32122E-09  1.55287E-09  1.26255E-09
   1.08402E-09  9.13646E-10  1.22064E-09  5.51469E-10  7.79254E-10  6.10713E-11  1.96611E-10 -1.07261E-10 -1.33791E-10 -8.63199E-11
   6.41233E-10  3.65222E-10  8.60475E-10  1.31362E-10  7.57253E-10 -4.09916E-11 -1.29078E-10 -3.74256E-10 -3.65958E-10 -8.67759E-10
  -8.23386E-11 -5.31843E-10 -6.91119E-11  4.47195E-11  6.74337E-10  4.32126E-10  1.03794E-09  7.11693E-10  1.11847E-09  2.15952E-10
   9.89405E-10  3.84893E-10  7.93612E-10  1.48919E-10  5.72554E-10 -1.50715E-11  3.92840E-10 -5.36031E-11  6.43516E-10  8.80687E-11
   2.49155E-10 -1.92612E-10  4.81135E-10 -2.51048E-10  5.50687E-10  3.44874E-10  8.16207E-10  3.25449E-12  8.50755E-10  2.12193E-10
   1.34061E-09  4.72664E-10  1.53998E-09  3.54683E-10  1.04776E-09  3.67862E-10  1.04190E-09  6.59198E-10  1.22840E-09  3.87981E-10
   1.41078E-09  5.74188E-10  1.01937E-09  7.88302E-10  8.29501E-10  7.60708E-10  4.11958E-10  1.21585E-10  4.46638E-10  3.39284E-10
   7.37783E-10  3.85636E-10  3.29273E-10 -1.54472E-10  2.63918E-10 -1.46632E-10  1.87379E-10 -5.10051E-10  1.21371E-10 -5.41444E-10
   3.54987E-11 -3.80775E-10 -2.03000E-10 -4.67000E-10 -2.06354E-11 -5.95293E-10 -1.37542E-10 -5.29033E-10 -8.62540E-11 -6.79139E-10
  -5.20795E-11 -8.47896E-10 -4.58855E-10 -8.50529E-10 -9.85652E-11 -6.87866E-10 -3.88525E-10 -8.21869E-10 -6.09799E-10 -7.30963E-10
  -5.93151E-10 -6.28027E-10 -6.51643E-10
 NY points of the fit to the data follow
   2.44187E-09  2.48727E-09  2.53103E-09  2.59046E-09  2.66767E-09  2.75444E-09  2.83205E-09  2.90509E-09  2.97405E-09  3.02978E-09
   3.06563E-09  3.08357E-09  3.09162E-09  3.09880E-09  3.11340E-09  3.13615E-09  3.16535E-09  3.19866E-09  3.23687E-09  3.27778E-09
   3.32027E-09  3.36310E-09  3.39922E-09  3.36926E-09  3.47905E-09  3.95342E-09  4.60219E-09  5.08260E-09  5.21289E-09  5.04418E-09
   4.73026E-09  4.41646E-09  4.18453E-09  4.02983E-09  3.92091E-09  3.87169E-09  3.86987E-09  3.87973E-09  3.89360E-09  3.90890E-09
   3.92449E-09  3.93972E-09  3.95425E-09  3.96782E-09  3.98029E-09  3.99150E-09  4.00138E-09  4.00985E-09  4.01683E-09  4.02227E-09
   4.02613E-09  4.02834E-09  4.02887E-09  4.02767E-09  4.02474E-09  4.01997E-09  4.01337E-09  4.00493E-09  3.99471E-09  3.98279E-09
   3.96922E-09  3.95410E-09  3.93749E-09  3.91945E-09  3.90006E-09  3.87940E-09  3.85753E-09  3.83452E-09  3.81046E-09  3.78540E-09
   3.75943E-09  3.73261E-09  3.70502E-09  3.67673E-09  3.64781E-09  3.61834E-09  3.58840E-09  3.55804E-09  3.52734E-09  3.49639E-09
   3.46523E-09  3.43397E-09  3.40265E-09  3.37138E-09  3.34018E-09  3.30914E-09  3.27823E-09  3.24745E-09  3.21681E-09  3.18628E-09
   3.15589E-09  3.12561E-09  3.09545E-09  3.06540E-09  3.03547E-09  3.00563E-09  2.97590E-09  2.94628E-09  2.91675E-09  2.88732E-09
   2.85797E-09  2.82872E-09  2.79955E-09  2.77047E-09  2.74146E-09  2.71252E-09  2.68367E-09  2.65487E-09  2.62615E-09  2.59749E-09
   2.56889E-09  2.54035E-09  2.51185E-09  2.48341E-09  2.45503E-09  2.42670E-09  2.39843E-09  2.37022E-09  2.34207E-09  2.31398E-09
   2.28595E-09  2.25798E-09  2.23007E-09  2.20223E-09  2.17446E-09  2.14675E-09  2.11910E-09  2.09153E-09  2.06403E-09  2.03660E-09
   2.00924E-09  1.98196E-09  1.95475E-09  1.92761E-09  1.90055E-09  1.87356E-09  1.84666E-09  1.81984E-09  1.79311E-09  1.76645E-09
   1.73987E-09  1.71353E-09  1.68757E-09  1.66218E-09  1.63752E-09  1.61376E-09  1.59108E-09  1.56966E-09  1.54966E-09  1.53125E-09
   1.51461E-09  1.49991E-09  1.48733E-09  1.47703E-09  1.46920E-09  1.46400E-09  1.46162E-09  1.46222E-09  1.46599E-09  1.47310E-09
   1.48374E-09  1.49808E-09  1.51635E-09  1.53869E-09  1.56529E-09  1.59601E-09  1.62831E-09  1.65918E-09  1.73556E-09  1.85468E-09
   1.97606E-09  2.06524E-09  2.11754E-09  2.14926E-09  2.17867E-09  2.21974E-09  2.27604E-09  2.34306E-09  2.41909E-09  2.50755E-09
   2.60217E-09  2.70139E-09  2.80472E-09  2.91190E-09  3.02276E-09  3.13717E-09  3.25502E-09  3.37621E-09  3.50065E-09  3.62824E-09
   3.75889E-09  3.89251E-09  4.02902E-09  4.16833E-09  4.31036E-09  4.45501E-09  4.60212E-09  4.75123E-09  4.90181E-09  5.05335E-09
   5.20534E-09  5.35726E-09  5.50859E-09  5.65881E-09  5.80742E-09  5.95388E-09  6.09769E-09  6.23834E-09  6.37529E-09  6.50805E-09
   6.63608E-09  6.75889E-09  6.87594E-09  6.98672E-09  7.09072E-09  7.18743E-09  7.27631E-09  7.35687E-09  7.42858E-09  7.49093E-09
   7.54339E-09  7.58547E-09  7.61662E-09  7.63636E-09  7.64444E-09  7.64124E-09  7.62718E-09  7.60270E-09  7.56825E-09  7.52425E-09
   7.47115E-09  7.40937E-09  7.33937E-09  7.26156E-09  7.17638E-09  7.08428E-09  6.98569E-09  6.88105E-09  6.77078E-09  6.65533E-09
   6.53515E-09  6.41064E-09  6.28226E-09  6.15045E-09  6.01563E-09  5.87825E-09  5.73873E-09  5.59752E-09  5.45506E-09  5.31178E-09
   5.16810E-09  5.02448E-09  4.88121E-09  4.73842E-09  4.59623E-09  4.45478E-09  4.31416E-09  4.17450E-09  4.03591E-09  3.89853E-09
   3.76246E-09  3.62782E-09  3.49475E-09  3.36334E-09  3.23373E-09  3.10603E-09  2.98034E-09  2.85683E-09  2.73559E-09  2.61672E-09
   2.50035E-09  2.38663E-09  2.27563E-09  2.16749E-09  2.06236E-09  1.96030E-09  1.86148E-09  1.76599E-09  1.67397E-09  1.58551E-09
   1.50063E-09  1.41923E-09  1.34122E-09  1.26649E-09  1.19497E-09  1.12654E-09  1.06112E-09  9.98595E-10  9.38878E-10  8.81881E-10
   8.27496E-10  7.75632E-10  7.26189E-10  6.79073E-10  6.34191E-10  5.91438E-10  5.50726E-10  5.11951E-10  4.75034E-10  4.39845E-10
   4.06327E-10  3.74354E-10  3.43837E-10  3.14699E-10  2.86820E-10  2.60109E-10  2.34480E-10  2.09820E-10  1.86087E-10  1.63237E-10
   1.41231E-10  1.20031E-10  9.96008E-11  7.98971E-11  6.08850E-11  4.25249E-11  2.47784E-11  7.60665E-12 -9.02706E-12 -2.51647E-11
  -4.08392E-11 -5.60948E-11 -7.09682E-11 -8.54940E-11 -9.97169E-11 -1.13669E-10 -1.27394E-10 -1.40929E-10 -1.54311E-10 -1.67578E-10
  -1.80772E-10 -1.93928E-10 -2.07087E-10 -2.20284E-10 -2.33559E-10 -2.46950E-10 -2.60457E-10 -2.74076E-10 -2.87799E-10 -3.01622E-10
  -3.15538E-10 -3.29541E-10 -3.43624E-10 -3.57782E-10 -3.72008E-10 -3.86296E-10 -4.00639E-10 -4.15032E-10 -4.29468E-10 -4.43942E-10
  -4.58447E-10 -4.72976E-10 -4.87524E-10 -5.02085E-10 -5.16651E-10 -5.31218E-10 -5.45778E-10 -5.60326E-10 -5.74856E-10 -5.89360E-10
  -6.03834E-10 -6.18271E-10 -6.32664E-10
 NY background values follow
     2.416E-09    2.460E-09    2.503E-09    2.547E-09    2.591E-09    2.636E-09    2.680E-09    2.724E-09    2.768E-09    2.812E-09
     2.856E-09    2.900E-09    2.944E-09    2.987E-09    3.030E-09    3.073E-09    3.115E-09    3.157E-09    3.198E-09    3.239E-09
     3.279E-09    3.319E-09    3.358E-09    3.396E-09    3.433E-09    3.470E-09    3.505E-09    3.540E-09    3.574E-09    3.607E-09
     3.639E-09    3.669E-09    3.699E-09    3.727E-09    3.755E-09    3.781E-09    3.806E-09    3.830E-09    3.852E-09    3.873E-09
     3.893E-09    3.911E-09    3.928E-09    3.944E-09    3.958E-09    3.970E-09    3.981E-09    3.991E-09    3.998E-09    4.004E-09
     4.009E-09    4.012E-09    4.013E-09    4.012E-09    4.009E-09    4.005E-09    3.998E-09    3.990E-09    3.980E-09    3.968E-09
     3.955E-09    3.940E-09    3.924E-09    3.906E-09    3.887E-09    3.866E-09    3.844E-09    3.821E-09    3.797E-09    3.772E-09
     3.747E-09    3.720E-09    3.692E-09    3.664E-09    3.635E-09    3.606E-09    3.576E-09    3.546E-09    3.515E-09    3.484E-09
     3.453E-09    3.422E-09    3.391E-09    3.359E-09    3.328E-09    3.297E-09    3.266E-09    3.236E-09    3.205E-09    3.174E-09
     3.144E-09    3.114E-09    3.084E-09    3.054E-09    3.024E-09    2.994E-09    2.964E-09    2.935E-09    2.905E-09    2.876E-09
     2.846E-09    2.817E-09    2.788E-09    2.759E-09    2.730E-09    2.701E-09    2.672E-09    2.644E-09    2.615E-09    2.586E-09
     2.558E-09    2.529E-09    2.501E-09    2.472E-09    2.444E-09    2.415E-09    2.387E-09    2.359E-09    2.331E-09    2.303E-09
     2.275E-09    2.247E-09    2.219E-09    2.191E-09    2.163E-09    2.136E-09    2.108E-09    2.080E-09    2.053E-09    2.026E-09
     1.998E-09    1.971E-09    1.944E-09    1.917E-09    1.890E-09    1.863E-09    1.836E-09    1.809E-09    1.782E-09    1.755E-09
     1.729E-09    1.703E-09    1.677E-09    1.651E-09    1.627E-09    1.603E-09    1.580E-09    1.559E-09    1.539E-09    1.520E-09
     1.504E-09    1.489E-09    1.476E-09    1.466E-09    1.458E-09    1.453E-09    1.450E-09    1.451E-09    1.455E-09    1.461E-09
     1.472E-09    1.486E-09    1.504E-09    1.526E-09    1.552E-09    1.583E-09    1.618E-09    1.657E-09    1.702E-09    1.751E-09
     1.805E-09    1.864E-09    1.927E-09    1.995E-09    2.067E-09    2.143E-09    2.224E-09    2.308E-09    2.397E-09    2.490E-09
     2.586E-09    2.687E-09    2.791E-09    2.899E-09    3.010E-09    3.125E-09    3.243E-09    3.364E-09    3.489E-09    3.616E-09
     3.747E-09    3.881E-09    4.017E-09    4.157E-09    4.299E-09    4.444E-09    4.591E-09    4.740E-09    4.891E-09    5.042E-09
     5.194E-09    5.346E-09    5.497E-09    5.648E-09    5.796E-09    5.943E-09    6.087E-09    6.227E-09    6.364E-09    6.497E-09
     6.625E-09    6.748E-09    6.865E-09    6.976E-09    7.080E-09    7.177E-09    7.265E-09    7.346E-09    7.418E-09    7.480E-09
     7.533E-09    7.575E-09    7.606E-09    7.626E-09    7.634E-09    7.630E-09    7.616E-09    7.592E-09    7.558E-09    7.514E-09
     7.460E-09    7.399E-09    7.329E-09    7.251E-09    7.166E-09    7.074E-09    6.975E-09    6.870E-09    6.760E-09    6.645E-09
     6.525E-09    6.400E-09    6.272E-09    6.140E-09    6.005E-09    5.868E-09    5.728E-09    5.587E-09    5.444E-09    5.301E-09
     5.158E-09    5.014E-09    4.871E-09    4.728E-09    4.586E-09    4.444E-09    4.304E-09    4.164E-09    4.025E-09    3.888E-09
     3.752E-09    3.617E-09    3.484E-09    3.353E-09    3.223E-09    3.096E-09    2.970E-09    2.846E-09    2.725E-09    2.606E-09
     2.490E-09    2.376E-09    2.265E-09    2.157E-09    2.052E-09    1.950E-09    1.851E-09    1.756E-09    1.664E-09    1.575E-09
     1.490E-09    1.409E-09    1.331E-09    1.256E-09    1.185E-09    1.116E-09    1.051E-09    9.882E-10    9.285E-10    8.715E-10
     8.171E-10    7.653E-10    7.158E-10    6.687E-10    6.238E-10    5.811E-10    5.404E-10    5.016E-10    4.647E-10    4.295E-10
     3.960E-10    3.640E-10    3.335E-10    3.044E-10    2.765E-10    2.498E-10    2.242E-10    1.995E-10    1.758E-10    1.529E-10
     1.309E-10    1.097E-10    8.931E-11    6.961E-11    5.061E-11    3.225E-11    1.451E-11   -2.659E-12   -1.929E-11   -3.542E-11
    -5.109E-11   -6.634E-11   -8.121E-11   -9.573E-11   -1.100E-10   -1.239E-10   -1.376E-10   -1.512E-10   -1.645E-10   -1.778E-10
    -1.910E-10   -2.041E-10   -2.173E-10   -2.305E-10   -2.437E-10   -2.571E-10   -2.706E-10   -2.843E-10   -2.980E-10   -3.118E-10
    -3.257E-10   -3.397E-10   -3.538E-10   -3.679E-10   -3.822E-10   -3.964E-10   -4.108E-10   -4.252E-10   -4.396E-10   -4.541E-10
    -4.686E-10   -4.831E-10   -4.976E-10   -5.122E-10   -5.267E-10   -5.413E-10   -5.559E-10   -5.704E-10   -5.849E-10   -5.994E-10
    -6.139E-10   -6.283E-10   -6.427E-10
 PCh      Conc. = 5.68E-11
   2.44187E-09  2.48727E-09  2.53103E-09  2.59046E-09  2.66767E-09  2.75444E-09  2.83205E-09  2.90509E-09  2.97405E-09  3.02978E-09
   3.06563E-09  3.08357E-09  3.09162E-09  3.09880E-09  3.11340E-09  3.13615E-09  3.16535E-09  3.19866E-09  3.23687E-09  3.27778E-09
   3.32027E-09  3.36310E-09  3.39922E-09  3.36926E-09  3.47905E-09  3.95342E-09  4.60219E-09  5.08260E-09  5.21289E-09  5.04418E-09
   4.73026E-09  4.41646E-09  4.18453E-09  4.02983E-09  3.92091E-09  3.87169E-09  3.86987E-09  3.87973E-09  3.89360E-09  3.90890E-09
   3.92449E-09  3.93972E-09  3.95425E-09  3.96782E-09  3.98029E-09  3.99150E-09  4.00138E-09  4.00985E-09  4.01683E-09  4.02227E-09
   4.02613E-09  4.02834E-09  4.02887E-09  4.02767E-09  4.02474E-09  4.01997E-09  4.01337E-09  4.00493E-09  3.99471E-09  3.98279E-09
   3.96922E-09  3.95410E-09  3.93749E-09  3.91945E-09  3.90006E-09  3.87940E-09  3.85753E-09  3.83452E-09  3.81046E-09  3.78540E-09
   3.75943E-09  3.73261E-09  3.70502E-09  3.67673E-09  3.64781E-09  3.61834E-09  3.58840E-09  3.55804E-09  3.52734E-09  3.49639E-09
   3.46523E-09  3.43397E-09  3.40265E-09  3.37138E-09  3.34018E-09  3.30914E-09  3.27823E-09  3.24745E-09  3.21681E-09  3.18628E-09
   3.15589E-09  3.12561E-09  3.09545E-09  3.06540E-09  3.03547E-09  3.00563E-09  2.97590E-09  2.94628E-09  2.91675E-09  2.88732E-09
   2.85797E-09  2.82872E-09  2.79955E-09  2.77047E-09  2.74146E-09  2.71252E-09  2.68367E-09  2.65487E-09  2.62615E-09  2.59749E-09
   2.56889E-09  2.54035E-09  2.51185E-09  2.48341E-09  2.45503E-09  2.42670E-09  2.39843E-09  2.37022E-09  2.34207E-09  2.31398E-09
   2.28595E-09  2.25798E-09  2.23007E-09  2.20223E-09  2.17446E-09  2.14675E-09  2.11910E-09  2.09153E-09  2.06403E-09  2.03660E-09
   2.00924E-09  1.98196E-09  1.95475E-09  1.92761E-09  1.90055E-09  1.87356E-09  1.84666E-09  1.81984E-09  1.79311E-09  1.76645E-09
   1.73987E-09  1.71353E-09  1.68757E-09  1.66218E-09  1.63752E-09  1.61376E-09  1.59108E-09  1.56966E-09  1.54966E-09  1.53125E-09
   1.51461E-09  1.49991E-09  1.48733E-09  1.47703E-09  1.46920E-09  1.46400E-09  1.46162E-09  1.46222E-09  1.46599E-09  1.47310E-09
   1.48374E-09  1.49808E-09  1.51635E-09  1.53869E-09  1.56529E-09  1.59601E-09  1.62831E-09  1.65918E-09  1.73556E-09  1.85468E-09
   1.97606E-09  2.06524E-09  2.11754E-09  2.14926E-09  2.17867E-09  2.21974E-09  2.27604E-09  2.34306E-09  2.41909E-09  2.50755E-09
   2.60217E-09  2.70139E-09  2.80472E-09  2.91190E-09  3.02276E-09  3.13717E-09  3.25502E-09  3.37621E-09  3.50065E-09  3.62824E-09
   3.75889E-09  3.89251E-09  4.02902E-09  4.16833E-09  4.31036E-09  4.45501E-09  4.60212E-09  4.75123E-09  4.90181E-09  5.05335E-09
   5.20534E-09  5.35726E-09  5.50859E-09  5.65881E-09  5.80742E-09  5.95388E-09  6.09769E-09  6.23834E-09  6.37529E-09  6.50805E-09
   6.63608E-09  6.75889E-09  6.87594E-09  6.98672E-09  7.09072E-09  7.18743E-09  7.27631E-09  7.35687E-09  7.42858E-09  7.49093E-09
   7.54339E-09  7.58547E-09  7.61662E-09  7.63636E-09  7.64444E-09  7.64124E-09  7.62718E-09  7.60270E-09  7.56825E-09  7.52425E-09
   7.47115E-09  7.40937E-09  7.33937E-09  7.26156E-09  7.17638E-09  7.08428E-09  6.98569E-09  6.88105E-09  6.77078E-09  6.65533E-09
   6.53515E-09  6.41064E-09  6.28226E-09  6.15045E-09  6.01563E-09  5.87825E-09  5.73873E-09  5.59752E-09  5.45506E-09  5.31178E-09
   5.16810E-09  5.02448E-09  4.88121E-09  4.73842E-09  4.59623E-09  4.45478E-09  4.31416E-09  4.17450E-09  4.03591E-09  3.89853E-09
   3.76246E-09  3.62782E-09  3.49475E-09  3.36334E-09  3.23373E-09  3.10603E-09  2.98034E-09  2.85683E-09  2.73559E-09  2.61672E-09
   2.50035E-09  2.38663E-09  2.27563E-09  2.16749E-09  2.06236E-09  1.96030E-09  1.86148E-09  1.76599E-09  1.67397E-09  1.58551E-09
   1.50063E-09  1.41923E-09  1.34122E-09  1.26649E-09  1.19497E-09  1.12654E-09  1.06112E-09  9.98595E-10  9.38878E-10  8.81881E-10
   8.27496E-10  7.75632E-10  7.26189E-10  6.79073E-10  6.34191E-10  5.91438E-10  5.50726E-10  5.11951E-10  4.75034E-10  4.39845E-10
   4.06327E-10  3.74354E-10  3.43837E-10  3.14699E-10  2.86820E-10  2.60109E-10  2.34480E-10  2.09820E-10  1.86087E-10  1.63237E-10
   1.41231E-10  1.20031E-10  9.96008E-11  7.98971E-11  6.08850E-11  4.25249E-11  2.47784E-11  7.60665E-12 -9.02706E-12 -2.51647E-11
  -4.08392E-11 -5.60948E-11 -7.09682E-11 -8.54940E-11 -9.97169E-11 -1.13669E-10 -1.27394E-10 -1.40929E-10 -1.54311E-10 -1.67578E-10
  -1.80772E-10 -1.93928E-10 -2.07087E-10 -2.20284E-10 -2.33559E-10 -2.46950E-10 -2.60457E-10 -2.74076E-10 -2.87799E-10 -3.01622E-10
  -3.15538E-10 -3.29541E-10 -3.43624E-10 -3.57782E-10 -3.72008E-10 -3.86296E-10 -4.00639E-10 -4.15032E-10 -4.29468E-10 -4.43942E-10
  -4.58447E-10 -4.72976E-10 -4.87524E-10 -5.02085E-10 -5.16651E-10 -5.31218E-10 -5.45778E-10 -5.60326E-10 -5.74856E-10 -5.89360E-10
  -6.03834E-10 -6.18271E-10 -6.32664E-10
   8 lines in following diagnostic table:
   1 ERROR     MYBASI 10                                                  
   4 ERRORS    AREABA  3                                                  
   1 warning   STARTV  5                                                  
   1 info      STARTV 13                                                  
   1 info      STARTV 20                                                  
   2 info's    RFALSI 12                                                  
   1 info      RFALSI 11                                                  
   1 info      FINOUT  9                                                  
  79 lines in following table of input changes:
ATTH2O=1.0                                                                
FILH2O='/mnt/c/Users/divya/Downloads/Lexar/DataFo                         
   rDivya/meas_MID01415_FID95676_lb_RosetteSpinEc                         
   ho_ek_v1a_lcm/30x25_ftSpec_smooth_lcm_w'                               
DOWS=T                                                                    
DOECC=T                                                                   
CHRATO(8)='MM9/MM1 = 1.40 +- 0.7'                                         
CHRATO(7)='MM8/MM1 = 0.33 +- 0.17'                                        
CHRATO(6)='MM7/MM1 = 0.54 +- 0.27'                                        
CHRATO(5)='MM6/MM1 = 0.63 +- 0.16'                                        
CHRATO(4)='MM5/MM1 = 3.16 +- 0.79'                                        
CHRATO(3)='MM4/MM1 = 1.29 +- 1.03'                                        
CHRATO(2)='MM3/MM1 = 1.05 +- 0.63'                                        
CHRATO(1)='MM2/MM1 = 0.51 +- 0.17'                                        
NRATIO=8                                                                  
NORATO(7)='-CrCH2/totCr'                                                  
NORATO(6)='MM17/MM09*'                                                    
NORATO(5)='MM14/MM09*'                                                    
NORATO(4)='MM12/MM09*'                                                    
NORATO(3)='MM20/MM09*'                                                    
NORATO(2)='Lip20/Lip13*'                                                  
NORATO(1)='Lip09/Lip13*'                                                  
NNORAT=7                                                                  
CHOMIT(14)='-CrCH2'                                                       
CHOMIT(13)='MM17'                                                         
CHOMIT(12)='MM14'                                                         
CHOMIT(11)='MM12'                                                         
CHOMIT(10)='MM20'                                                         
CHOMIT(9)='Lip20'                                                         
CHOMIT(8)='MM09'                                                          
CHOMIT(7)='Lip09'                                                         
CHOMIT(6)='Lip13d'                                                        
CHOMIT(5)='Lip13c'                                                        
