 LCModel (Version 6.3-1R) Copyright: S.W. Provencher.          Ref.: Magn. Reson. Med. 30:672-679 (1993).                
 onepulse 30x22_ftSpec_smooth_lcm
 26 lines in following concentration table = NCONC+1
    Conc.  %SD /Cr+PCr  Metabolite                                         
 8.13E-10  63%   5.152 Ala                                                 
    0.000 999%   0.000 Asp                                                 
 1.58E-10 363%   1.000 Cr                                                  
 1.36E-10 681%   0.865 GABA                                                
 6.78E-10 171%   4.299 Glc                                                 
    0.000 999%   0.000 Gln                                                 
    0.000 999%   0.000 Glu                                                 
    0.000 999%   0.000 Glyc                                                
 1.95E-10  85%   1.234 GPC                                                 
 6.73E-10 101%   4.264 GSH                                                 
 6.34E-10 124%   4.022 Ins                                                 
    0.000 999%   0.000 Lac                                                 
 4.02E-11 999%   0.255 NAAG                                                
 1.95E-10 424%   1.235 NAA                                                 
    0.000 999%   0.000 PCh                                                 
    0.000 999%   0.000 PCr                                                 
    0.000 999%   0.000 PE                                                  
 3.02E-10 106%   1.914 Scyllo                                              
    0.000 999%   0.000 Ser                                                 
    0.000 999%   0.000 Tau                                                 
 1.95E-10  85%   1.234 GPC+PCh                                             
 2.35E-10 183%   1.490 NAA+NAAG                                            
 6.34E-10 124%   4.022 Ins+Glyc                                            
 1.58E-10 363%   1.000 Cr+PCr                                              
    0.000 999%   0.000 Glu+Gln                                             
   6 lines in following misc. output table
  FWHM = 0.101 ppm    S/N =   1                                            
  Data shift = 0.067 ppm                                                   
  Ph: -62 deg       4.7 deg/ppm                                            
  alphaB,S = 1.8E+00,   2.7E+01                                            
    9 spline knots.   Ns = 5(1)                                            
  (12) 2 infls.   ( 9) 1 extrs.                                            
  363 points on ppm-axis = NY
      4.250000     4.238821     4.227641     4.216462     4.205282     4.194103     4.182923     4.171744     4.160564     4.149385
      4.138206     4.127026     4.115847     4.104667     4.093488     4.082308     4.071129     4.059949     4.048770     4.037591
      4.026411     4.015232     4.004052     3.992873     3.981693     3.970514     3.959334     3.948155     3.936975     3.925796
      3.914617     3.903437     3.892258     3.881078     3.869899     3.858719     3.847540     3.836360     3.825181     3.814002
      3.802822     3.791643     3.780463     3.769284     3.758104     3.746925     3.735745     3.724566     3.713387     3.702207
      3.691028     3.679848     3.668669     3.657489     3.646310     3.635130     3.623951     3.612772     3.601592     3.590413
      3.579233     3.568054     3.556874     3.545695     3.534515     3.523336     3.512156     3.500977     3.489798     3.478618
      3.467439     3.456259     3.445080     3.433900     3.422721     3.411541     3.400362     3.389183     3.378003     3.366824
      3.355644     3.344465     3.333285     3.322106     3.310926     3.299747     3.288568     3.277388     3.266209     3.255029
      3.243850     3.232670     3.221491     3.210311     3.199132     3.187953     3.176773     3.165594     3.154414     3.143235
      3.132055     3.120876     3.109696     3.098517     3.087337     3.076158     3.064979     3.053799     3.042620     3.031440
      3.020261     3.009081     2.997902     2.986722     2.975543     2.964364     2.953184     2.942005     2.930825     2.919646
      2.908466     2.897287     2.886107     2.874928     2.863749     2.852569     2.841390     2.830210     2.819031     2.807851
      2.796672     2.785492     2.774313     2.763134     2.751954     2.740775     2.729595     2.718416     2.707236     2.696057
      2.684877     2.673698     2.662519     2.651339     2.640160     2.628980     2.617801     2.606621     2.595442     2.584262
      2.573083     2.561903     2.550724     2.539545     2.528365     2.517186     2.506006     2.494827     2.483647     2.472468
      2.461288     2.450109     2.438930     2.427750     2.416571     2.405391     2.394212     2.383032     2.371853     2.360673
      2.349494     2.338315     2.327135     2.315956     2.304776     2.293597     2.282417     2.271238     2.260058     2.248879
      2.237700     2.226520     2.215341     2.204161     2.192982     2.181802     2.170623     2.159443     2.148264     2.137084
      2.125905     2.114726     2.103546     2.092367     2.081187     2.070008     2.058828     2.047649     2.036469     2.025290
      2.014111     2.002931     1.991752     1.980572     1.969393     1.958213     1.947034     1.935854     1.924675     1.913496
      1.902316     1.891137     1.879957     1.868778     1.857598     1.846419     1.835239     1.824060     1.812881     1.801701
      1.790522     1.779342     1.768163     1.756983     1.745804     1.734624     1.723445     1.712265     1.701086     1.689907
      1.678727     1.667548     1.656368     1.645189     1.634009     1.622830     1.611650     1.600471     1.589292     1.578112
      1.566933     1.555753     1.544574     1.533394     1.522215     1.511035     1.499856     1.488677     1.477497     1.466318
      1.455138     1.443959     1.432779     1.421600     1.410420     1.399241     1.388062     1.376882     1.365703     1.354523
      1.343344     1.332164     1.320985     1.309805     1.298626     1.287446     1.276267     1.265088     1.253908     1.242729
      1.231549     1.220370     1.209190     1.198011     1.186831     1.175652     1.164473     1.153293     1.142114     1.130934
      1.119755     1.108575     1.097396     1.086216     1.075037     1.063858     1.052678     1.041499     1.030319     1.019140
      1.007960     0.996781     0.985601     0.974422     0.963243     0.952063     0.940884     0.929704     0.918525     0.907345
      0.896166     0.884986     0.873807     0.862628     0.851448     0.840269     0.829089     0.817910     0.806730     0.795551
      0.784371     0.773192     0.762012     0.750833     0.739654     0.728474     0.717295     0.706115     0.694936     0.683756
      0.672577     0.661397     0.650218     0.639039     0.627859     0.616680     0.605500     0.594321     0.583141     0.571962
      0.560782     0.549603     0.538424     0.527244     0.516065     0.504885     0.493706     0.482526     0.471347     0.460167
      0.448988     0.437809     0.426629     0.415450     0.404270     0.393091     0.381911     0.370732     0.359552     0.348373
      0.337193     0.326014     0.314835     0.303655     0.292476     0.281296     0.270117     0.258937     0.247758     0.236578
      0.225399     0.214220     0.203040
 NY phased data points follow
   8.34287E-09  8.93737E-09  7.29584E-09  8.47045E-09  7.18609E-09  8.39616E-09  7.18895E-09  8.69560E-09  7.44655E-09  8.30616E-09
   7.89543E-09  8.54750E-09  7.70754E-09  8.75992E-09  7.83560E-09  8.67314E-09  8.07613E-09  8.62564E-09  7.93428E-09  8.84620E-09
   8.35430E-09  9.27605E-09  8.64169E-09  9.96293E-09  9.54080E-09  1.04056E-08  1.00917E-08  1.01898E-08  8.69039E-09  8.86293E-09
   7.75973E-09  7.97095E-09  6.79659E-09  7.17692E-09  6.62852E-09  6.91955E-09  6.21894E-09  6.76512E-09  6.00294E-09  6.59385E-09
   5.96971E-09  6.46202E-09  5.55136E-09  5.93801E-09  4.73551E-09  5.63302E-09  4.77542E-09  5.05179E-09  4.52713E-09  4.95825E-09
   4.26031E-09  4.79051E-09  4.22153E-09  4.79657E-09  3.75076E-09  4.22674E-09  3.99360E-09  4.38439E-09  3.90799E-09  4.03129E-09
   3.03272E-09  3.05589E-09  2.41696E-09  2.34305E-09  1.43170E-09  1.96881E-09  1.22085E-09  1.71260E-09  9.25379E-10  1.51114E-09
   1.06723E-09  1.07836E-09  6.15499E-10  8.48967E-10  1.15079E-09  1.50165E-09  1.27300E-09  1.95936E-09  1.32021E-09  1.72840E-09
   1.23464E-09  2.32687E-09  1.76431E-09  2.54787E-09  2.32770E-09  2.67918E-09  2.58508E-09  3.37815E-09  2.89820E-09  3.40617E-09
   2.59787E-09  3.02820E-09  1.95580E-09  1.91861E-09  1.23423E-09  1.43217E-09  8.38463E-10  1.64079E-09  1.42959E-09  1.90831E-09
   1.44820E-09  2.40370E-09  2.31133E-09  3.39542E-09  3.91798E-09  4.43142E-09  3.86245E-09  3.22026E-09  2.52260E-09  2.54057E-09
   1.63300E-09  8.07790E-10  8.58906E-10  3.44811E-10  3.50986E-10  3.75820E-11 -5.68160E-10 -9.12031E-10 -1.05995E-09 -1.65857E-09
  -1.49413E-09 -2.02351E-09 -1.73400E-09 -1.99170E-09 -1.64467E-09 -2.23082E-09 -1.73320E-09 -2.29789E-09 -1.40248E-09 -2.06982E-09
  -1.85512E-09 -2.53257E-09 -2.12601E-09 -2.96210E-09 -2.70603E-09 -3.29531E-09 -3.03332E-09 -2.99366E-09 -2.75105E-09 -3.21360E-09
  -2.16019E-09 -3.31627E-09 -2.47548E-09 -2.87895E-09 -2.58367E-09 -3.29849E-09 -2.49709E-09 -2.87346E-09 -2.84552E-09 -2.72750E-09
  -2.74732E-09 -2.62927E-09 -2.24759E-09 -2.10654E-09 -1.94577E-09 -1.96456E-09 -1.84632E-09 -1.90521E-09 -2.00068E-09 -1.99692E-09
  -2.27320E-09 -1.60737E-09 -1.76979E-09 -9.98670E-10 -1.53998E-09 -6.02587E-10 -7.14264E-10 -4.42531E-10 -8.94797E-10 -1.75037E-10
  -4.91532E-10  6.20026E-10 -1.95205E-10  7.66031E-10  2.82471E-11  4.38076E-10  4.39215E-10  6.28151E-10  2.22189E-10  5.06153E-10
   2.21222E-10  4.89481E-10  3.66375E-11  2.88653E-10 -1.01661E-10  6.11515E-10  1.33481E-10  5.65271E-10  1.83371E-10  1.56073E-10
  -7.86517E-11  3.04518E-10 -6.48346E-11  3.47925E-10 -4.26147E-10 -7.80176E-12 -1.08859E-09 -1.71407E-09 -3.32537E-09 -5.18661E-09
  -6.22125E-09 -7.47065E-09 -8.32292E-09 -9.39393E-09 -9.97721E-09 -1.07010E-08 -1.15872E-08 -1.19387E-08 -1.23090E-08 -1.31880E-08
  -1.34358E-08 -1.39642E-08 -1.50175E-08 -1.57763E-08 -1.68419E-08 -1.79993E-08 -1.96556E-08 -2.05632E-08 -2.22813E-08 -2.39070E-08
  -2.61044E-08 -2.68240E-08 -2.91046E-08 -2.95607E-08 -3.08528E-08 -3.06538E-08 -3.05266E-08 -2.90331E-08 -2.77202E-08 -2.45066E-08
  -2.27875E-08 -1.87891E-08 -1.62554E-08 -1.22182E-08 -9.17410E-09 -4.28246E-09 -1.74297E-09  2.09480E-09  4.36241E-09  7.68602E-09
   9.03858E-09  1.03039E-08  1.02958E-08  1.02911E-08  9.43858E-09  8.34845E-09  6.86839E-09  6.55721E-09  5.04966E-09  4.84367E-09
   3.58757E-09  3.83478E-09  2.37888E-09  2.81651E-09  1.54027E-09  1.56838E-09  1.27139E-09  1.59117E-09  7.33479E-10  9.91304E-10
   6.63191E-10  1.42166E-09  6.27974E-10  1.35455E-09  7.34191E-10  1.28881E-09  9.65044E-10  1.44420E-09  9.43003E-10  1.33226E-09
   8.77528E-10  9.11819E-10  2.40003E-10  9.85243E-10  6.22805E-10  9.36766E-10  7.49433E-10  1.17781E-09  6.89150E-10  1.20557E-09
   1.02416E-09  6.95720E-10  8.80755E-10  9.90309E-10  2.27578E-10  5.27032E-10  1.56021E-10  4.48322E-10  4.40205E-10  4.32085E-10
   7.59300E-10  8.15766E-10  6.42003E-10  1.02927E-09  9.70590E-10  1.03939E-09  7.43085E-10  1.13030E-09  1.06414E-09  1.09243E-09
   6.89574E-10  1.01599E-09  1.22389E-09  1.01395E-09  7.53281E-10  7.68754E-10  5.09290E-10  5.25537E-10  7.13853E-10  7.31823E-10
   6.68978E-10  3.12232E-10  2.08305E-10  1.01488E-10  1.02437E-09  2.51565E-10  8.28440E-10  6.68274E-10  9.73894E-10  4.65458E-10
   7.72102E-10  2.25557E-10  8.99018E-10  2.24635E-10  1.07230E-09  3.44803E-10  8.92025E-10  5.01601E-10  1.17526E-09  6.21331E-10
   9.04778E-10  6.90936E-10  9.83682E-10  1.37183E-09  1.13022E-09  7.17680E-10  1.46856E-09  1.09608E-09  1.53700E-09  1.20294E-09
   1.43805E-09  1.03589E-09  1.41027E-09  1.28801E-09  1.61551E-09  1.14024E-09  1.35174E-09  8.19220E-10  1.80511E-09  1.15137E-09
   1.46994E-09  1.37720E-09  1.99914E-09  1.10102E-09  2.20752E-09  1.34734E-09  1.79038E-09  1.34830E-09  1.92912E-09  1.55410E-09
   1.71978E-09  1.57850E-09  1.99447E-09
 NY points of the fit to the data follow
   5.78181E-09  6.68903E-09  7.37588E-09  7.84599E-09  8.24610E-09  8.62719E-09  8.80183E-09  8.65544E-09  8.33487E-09  8.00591E-09
   7.82753E-09  7.81812E-09  7.80600E-09  7.78558E-09  7.70842E-09  7.55366E-09  7.35738E-09  7.25661E-09  7.43460E-09  7.71864E-09
   8.07804E-09  8.38651E-09  8.52429E-09  8.77444E-09  9.23589E-09  9.70264E-09  9.97976E-09  9.87483E-09  9.40342E-09  8.86558E-09
   8.50957E-09  8.06745E-09  7.53890E-09  6.88984E-09  6.29750E-09  6.01023E-09  6.04668E-09  6.21432E-09  6.38331E-09  6.46161E-09
   6.39021E-09  6.14022E-09  5.71533E-09  5.20099E-09  4.70323E-09  4.20990E-09  3.78948E-09  3.37204E-09  3.06451E-09  2.87494E-09
   2.79106E-09  2.79488E-09  2.81644E-09  2.88323E-09  3.01225E-09  3.11939E-09  3.19836E-09  3.23477E-09  3.20498E-09  3.08983E-09
   2.89341E-09  2.64806E-09  2.41838E-09  2.18428E-09  1.93635E-09  1.76433E-09  1.64798E-09  1.52402E-09  1.42099E-09  1.36946E-09
   1.37905E-09  1.37424E-09  1.40016E-09  1.46580E-09  1.52373E-09  1.57815E-09  1.67411E-09  1.91801E-09  2.21265E-09  2.44700E-09
   2.56272E-09  2.58009E-09  2.50288E-09  2.31723E-09  2.08905E-09  1.78322E-09  1.37384E-09  9.31645E-10  5.39753E-10  3.08472E-10
   1.52254E-10  2.41733E-11 -9.14049E-11 -2.08327E-10 -3.20032E-10 -4.16657E-10 -5.09811E-10 -5.88881E-10 -6.23741E-10 -5.45688E-10
  -1.47712E-10  2.98749E-10  6.63998E-10  1.18231E-09  1.75111E-09  2.23230E-09  2.53118E-09  2.59959E-09  2.42097E-09  2.00984E-09
   1.43999E-09  8.71655E-10  4.40451E-10 -1.27210E-10 -7.01950E-10 -1.00495E-09 -1.20258E-09 -1.35205E-09 -1.47467E-09 -1.58041E-09
  -1.67473E-09 -1.76083E-09 -1.84078E-09 -1.91595E-09 -1.98732E-09 -2.05556E-09 -2.12121E-09 -2.18463E-09 -2.24613E-09 -2.30594E-09
  -2.36425E-09 -2.42119E-09 -2.47689E-09 -2.53143E-09 -2.58491E-09 -2.63737E-09 -2.68888E-09 -2.73947E-09 -2.78917E-09 -2.83802E-09
  -2.88603E-09 -2.93321E-09 -2.97959E-09 -3.02515E-09 -3.06990E-09 -3.11384E-09 -3.15695E-09 -3.19923E-09 -3.24063E-09 -3.28115E-09
  -3.32072E-09 -3.35930E-09 -3.39681E-09 -3.43315E-09 -3.46819E-09 -3.50175E-09 -3.53357E-09 -3.56328E-09 -3.59036E-09 -3.61396E-09
  -3.63277E-09 -3.64456E-09 -3.64526E-09 -3.62666E-09 -3.56943E-09 -3.41542E-09 -2.89689E-09 -1.29549E-09  6.53689E-10  2.34704E-09
   3.52420E-09  4.16973E-09  4.34519E-09  4.08648E-09  3.36351E-09  2.12249E-09  3.82534E-10 -1.58498E-09 -3.11946E-09 -3.58381E-09
  -3.78514E-09 -3.90195E-09 -3.98062E-09 -4.03850E-09 -4.08360E-09 -4.12014E-09 -4.15056E-09 -4.17639E-09 -4.19860E-09 -4.21787E-09
  -4.23467E-09 -4.24934E-09 -4.26213E-09 -4.27323E-09 -4.28280E-09 -4.29094E-09 -4.29776E-09 -4.30332E-09 -4.30767E-09 -4.31089E-09
  -4.31300E-09 -4.31403E-09 -4.31403E-09 -4.31301E-09 -4.31099E-09 -4.30800E-09 -4.30405E-09 -4.29917E-09 -4.29336E-09 -4.28662E-09
  -4.27899E-09 -4.27046E-09 -4.26104E-09 -4.25075E-09 -4.23959E-09 -4.22757E-09 -4.21470E-09 -4.20098E-09 -4.18641E-09 -4.17102E-09
  -4.15479E-09 -4.13774E-09 -4.11987E-09 -4.10119E-09 -4.08170E-09 -4.06141E-09 -4.04032E-09 -4.01843E-09 -3.99576E-09 -3.97231E-09
  -3.94808E-09 -3.92308E-09 -3.89730E-09 -3.87076E-09 -3.84346E-09 -3.81541E-09 -3.78660E-09 -3.75705E-09 -3.72676E-09 -3.69573E-09
  -3.66396E-09 -3.63146E-09 -3.59825E-09 -3.56432E-09 -3.52969E-09 -3.49439E-09 -3.45841E-09 -3.42179E-09 -3.38454E-09 -3.34668E-09
  -3.30821E-09 -3.26915E-09 -3.22952E-09 -3.18934E-09 -3.14862E-09 -3.10739E-09 -3.06564E-09 -3.02340E-09 -2.98068E-09 -2.93751E-09
  -2.89389E-09 -2.84984E-09 -2.80537E-09 -2.76051E-09 -2.71526E-09 -2.66965E-09 -2.62368E-09 -2.57738E-09 -2.53076E-09 -2.48383E-09
  -2.43660E-09 -2.38911E-09 -2.34134E-09 -2.29334E-09 -2.24510E-09 -2.19665E-09 -2.14800E-09 -2.09916E-09 -2.05015E-09 -2.00098E-09
  -1.95168E-09 -1.90224E-09 -1.85269E-09 -1.80305E-09 -1.75333E-09 -1.70353E-09 -1.65369E-09 -1.60380E-09 -1.55388E-09 -1.50397E-09
  -1.45404E-09 -1.40415E-09 -1.35428E-09 -1.30446E-09 -1.25470E-09 -1.20500E-09 -1.15540E-09 -1.10591E-09 -1.05653E-09 -1.00728E-09
  -9.58166E-10 -9.09198E-10 -8.60425E-10 -8.11817E-10 -7.63390E-10 -7.15140E-10 -6.67066E-10 -6.19173E-10 -5.71453E-10 -5.23915E-10
  -4.76554E-10 -4.29369E-10 -3.82360E-10 -3.35532E-10 -2.88878E-10 -2.42400E-10 -1.96096E-10 -1.49971E-10 -1.04019E-10 -5.82468E-11
  -1.26463E-11  3.27791E-11  7.80265E-11  1.23098E-10  1.67994E-10  2.12719E-10  2.57272E-10  3.01647E-10  3.45843E-10  3.89874E-10
   4.33724E-10  4.77394E-10  5.20903E-10  5.64234E-10  6.07382E-10  6.50366E-10  6.93181E-10  7.35811E-10  7.78272E-10  8.20564E-10
   8.62672E-10  9.04621E-10  9.46386E-10  9.87982E-10  1.02940E-09  1.07065E-09  1.11172E-09  1.15263E-09  1.19335E-09  1.23391E-09
   1.27429E-09  1.31450E-09  1.35454E-09  1.39440E-09  1.43409E-09  1.47361E-09  1.51295E-09  1.55212E-09  1.59111E-09  1.62993E-09
   1.66858E-09  1.70705E-09  1.74535E-09
 NY background values follow
     2.794E-09    2.757E-09    2.719E-09    2.681E-09    2.642E-09    2.604E-09    2.565E-09    2.526E-09    2.487E-09    2.448E-09
     2.408E-09    2.368E-09    2.328E-09    2.288E-09    2.248E-09    2.207E-09    2.166E-09    2.125E-09    2.084E-09    2.043E-09
     2.001E-09    1.960E-09    1.918E-09    1.876E-09    1.833E-09    1.791E-09    1.748E-09    1.706E-09    1.663E-09    1.620E-09
     1.576E-09    1.533E-09    1.489E-09    1.446E-09    1.402E-09    1.358E-09    1.314E-09    1.270E-09    1.225E-09    1.181E-09
     1.136E-09    1.091E-09    1.046E-09    1.001E-09    9.557E-10    9.103E-10    8.649E-10    8.193E-10    7.736E-10    7.278E-10
     6.818E-10    6.358E-10    5.896E-10    5.434E-10    4.970E-10    4.506E-10    4.040E-10    3.574E-10    3.106E-10    2.638E-10
     2.169E-10    1.699E-10    1.228E-10    7.569E-11    2.847E-11   -1.882E-11   -6.618E-11   -1.136E-10   -1.611E-10   -2.086E-10
    -2.561E-10   -3.038E-10   -3.514E-10   -3.991E-10   -4.468E-10   -4.945E-10   -5.423E-10   -5.900E-10   -6.378E-10   -6.856E-10
    -7.334E-10   -7.812E-10   -8.290E-10   -8.768E-10   -9.245E-10   -9.723E-10   -1.020E-09   -1.068E-09   -1.115E-09   -1.163E-09
    -1.211E-09   -1.258E-09   -1.306E-09   -1.353E-09   -1.400E-09   -1.448E-09   -1.495E-09   -1.542E-09   -1.589E-09   -1.636E-09
    -1.683E-09   -1.730E-09   -1.777E-09   -1.823E-09   -1.870E-09   -1.916E-09   -1.963E-09   -2.009E-09   -2.055E-09   -2.101E-09
    -2.147E-09   -2.192E-09   -2.238E-09   -2.283E-09   -2.329E-09   -2.374E-09   -2.419E-09   -2.464E-09   -2.508E-09   -2.553E-09
    -2.597E-09   -2.641E-09   -2.685E-09   -2.729E-09   -2.772E-09   -2.815E-09   -2.858E-09   -2.901E-09   -2.944E-09   -2.986E-09
    -3.028E-09   -3.070E-09   -3.111E-09   -3.152E-09   -3.193E-09   -3.234E-09   -3.274E-09   -3.314E-09   -3.353E-09   -3.392E-09
    -3.431E-09   -3.469E-09   -3.507E-09   -3.544E-09   -3.581E-09   -3.618E-09   -3.654E-09   -3.689E-09   -3.724E-09   -3.759E-09
    -3.793E-09   -3.826E-09   -3.860E-09   -3.892E-09   -3.924E-09   -3.955E-09   -3.986E-09   -4.016E-09   -4.046E-09   -4.075E-09
    -4.104E-09   -4.131E-09   -4.159E-09   -4.185E-09   -4.211E-09   -4.236E-09   -4.261E-09   -4.284E-09   -4.308E-09   -4.330E-09
    -4.352E-09   -4.373E-09   -4.393E-09   -4.412E-09   -4.431E-09   -4.449E-09   -4.466E-09   -4.482E-09   -4.498E-09   -4.512E-09
    -4.526E-09   -4.539E-09   -4.551E-09   -4.563E-09   -4.573E-09   -4.583E-09   -4.592E-09   -4.599E-09   -4.607E-09   -4.613E-09
    -4.618E-09   -4.623E-09   -4.627E-09   -4.629E-09   -4.632E-09   -4.633E-09   -4.633E-09   -4.633E-09   -4.632E-09   -4.629E-09
    -4.627E-09   -4.623E-09   -4.618E-09   -4.613E-09   -4.607E-09   -4.600E-09   -4.592E-09   -4.584E-09   -4.574E-09   -4.564E-09
    -4.553E-09   -4.541E-09   -4.529E-09   -4.515E-09   -4.501E-09   -4.486E-09   -4.470E-09   -4.454E-09   -4.437E-09   -4.418E-09
    -4.400E-09   -4.380E-09   -4.360E-09   -4.338E-09   -4.317E-09   -4.294E-09   -4.270E-09   -4.246E-09   -4.221E-09   -4.196E-09
    -4.169E-09   -4.142E-09   -4.114E-09   -4.085E-09   -4.056E-09   -4.026E-09   -3.995E-09   -3.964E-09   -3.931E-09   -3.898E-09
    -3.865E-09   -3.830E-09   -3.795E-09   -3.760E-09   -3.723E-09   -3.686E-09   -3.648E-09   -3.610E-09   -3.571E-09   -3.532E-09
    -3.491E-09   -3.451E-09   -3.409E-09   -3.368E-09   -3.325E-09   -3.282E-09   -3.239E-09   -3.195E-09   -3.151E-09   -3.106E-09
    -3.061E-09   -3.016E-09   -2.970E-09   -2.923E-09   -2.877E-09   -2.830E-09   -2.782E-09   -2.735E-09   -2.687E-09   -2.638E-09
    -2.590E-09   -2.541E-09   -2.492E-09   -2.443E-09   -2.393E-09   -2.343E-09   -2.293E-09   -2.243E-09   -2.193E-09   -2.142E-09
    -2.092E-09   -2.041E-09   -1.991E-09   -1.940E-09   -1.889E-09   -1.838E-09   -1.787E-09   -1.736E-09   -1.685E-09   -1.634E-09
    -1.582E-09   -1.531E-09   -1.480E-09   -1.430E-09   -1.379E-09   -1.328E-09   -1.277E-09   -1.227E-09   -1.176E-09   -1.126E-09
    -1.076E-09   -1.026E-09   -9.759E-10   -9.263E-10   -8.768E-10   -8.276E-10   -7.785E-10   -7.296E-10   -6.809E-10   -6.324E-10
    -5.840E-10   -5.359E-10   -4.879E-10   -4.401E-10   -3.925E-10   -3.451E-10   -2.979E-10   -2.508E-10   -2.040E-10   -1.573E-10
    -1.108E-10   -6.446E-11   -1.831E-11    2.764E-11    7.342E-11    1.190E-10    1.644E-10    2.097E-10    2.547E-10    2.996E-10
     3.443E-10    3.888E-10    4.332E-10    4.773E-10    5.213E-10    5.651E-10    6.087E-10    6.522E-10    6.955E-10    7.385E-10
     7.814E-10    8.242E-10    8.667E-10    9.091E-10    9.513E-10    9.933E-10    1.035E-09    1.077E-09    1.118E-09    1.160E-09
     1.201E-09    1.242E-09    1.282E-09    1.323E-09    1.363E-09    1.404E-09    1.444E-09    1.484E-09    1.523E-09    1.563E-09
     1.602E-09    1.641E-09    1.680E-09
 Ala      Conc. = 8.13E-10
   3.04734E-09  3.10869E-09  3.15094E-09  3.17951E-09  3.19310E-09  3.19061E-09  3.16581E-09  3.09792E-09  3.02019E-09  2.96014E-09
   2.85648E-09  2.73683E-09  2.65396E-09  2.56777E-09  2.47658E-09  2.39869E-09  2.32959E-09  2.26625E-09  2.20691E-09  2.15043E-09
   2.09607E-09  2.04332E-09  1.99181E-09  1.94127E-09  1.89151E-09  1.84236E-09  1.79368E-09  1.74539E-09  1.69742E-09  1.64969E-09
   1.60216E-09  1.55477E-09  1.50749E-09  1.46031E-09  1.41317E-09  1.36607E-09  1.31899E-09  1.27192E-09  1.22483E-09  1.17772E-09
   1.13057E-09  1.08338E-09  1.03614E-09  9.88857E-10  9.41496E-10  8.94083E-10  8.46591E-10  7.99018E-10  7.51383E-10  7.03664E-10
   6.55860E-10  6.07961E-10  5.59987E-10  5.11926E-10  4.63763E-10  4.15506E-10  3.67160E-10  3.18727E-10  2.70187E-10  2.21572E-10
   1.72845E-10  1.24018E-10  7.50927E-11  2.60710E-11 -2.30520E-11 -7.22714E-11 -1.21589E-10 -1.71003E-10 -2.20516E-10 -2.70129E-10
  -3.19838E-10 -3.69647E-10 -4.19555E-10 -4.69569E-10 -5.19683E-10 -5.69901E-10 -6.20231E-10 -6.70662E-10 -7.21214E-10 -7.71872E-10
  -8.22651E-10 -8.73548E-10 -9.24569E-10 -9.75704E-10 -1.02695E-09 -1.07832E-09 -1.12978E-09 -1.18133E-09 -1.23291E-09 -1.28448E-09
  -1.33594E-09 -1.38710E-09 -1.43772E-09 -1.48733E-09 -1.53509E-09 -1.57945E-09 -1.61727E-09 -1.64139E-09 -1.63206E-09 -1.51347E-09
  -1.07804E-09 -5.99287E-10 -2.05269E-10  3.39023E-10  9.31341E-10  1.43405E-09  1.75282E-09  1.83975E-09  1.67847E-09  1.28364E-09
   7.29188E-10  1.75444E-10 -2.41888E-10 -7.96333E-10 -1.35846E-09 -1.64939E-09 -1.83546E-09 -1.97382E-09 -2.08575E-09 -2.18120E-09
  -2.26560E-09 -2.34212E-09 -2.41282E-09 -2.47904E-09 -2.54174E-09 -2.60159E-09 -2.65909E-09 -2.71461E-09 -2.76843E-09 -2.82079E-09
  -2.87185E-09 -2.92174E-09 -2.97058E-09 -3.01846E-09 -3.06545E-09 -3.11159E-09 -3.15695E-09 -3.20156E-09 -3.24544E-09 -3.28862E-09
  -3.33113E-09 -3.37297E-09 -3.41416E-09 -3.45470E-09 -3.49460E-09 -3.53386E-09 -3.57248E-09 -3.61045E-09 -3.64779E-09 -3.68446E-09
  -3.72046E-09 -3.75579E-09 -3.79041E-09 -3.82430E-09 -3.85744E-09 -3.88977E-09 -3.92123E-09 -3.95175E-09 -3.98121E-09 -4.00942E-09
  -4.03609E-09 -4.06074E-09 -4.08251E-09 -4.09964E-09 -4.10803E-09 -4.09537E-09 -4.00517E-09 -3.68407E-09 -3.28802E-09 -2.94551E-09
  -2.71210E-09 -2.59116E-09 -2.56959E-09 -2.63971E-09 -2.80788E-09 -3.08551E-09 -3.46867E-09 -3.89988E-09 -4.23896E-09 -4.34960E-09
  -4.40337E-09 -4.43844E-09 -4.46472E-09 -4.48589E-09 -4.50367E-09 -4.51896E-09 -4.53228E-09 -4.54395E-09 -4.55418E-09 -4.56313E-09
  -4.57088E-09 -4.57752E-09 -4.58310E-09 -4.58766E-09 -4.59124E-09 -4.59385E-09 -4.59553E-09 -4.59628E-09 -4.59613E-09 -4.59509E-09
  -4.59316E-09 -4.59035E-09 -4.58668E-09 -4.58214E-09 -4.57675E-09 -4.57052E-09 -4.56344E-09 -4.55552E-09 -4.54678E-09 -4.53720E-09
  -4.52680E-09 -4.51558E-09 -4.50355E-09 -4.49071E-09 -4.47706E-09 -4.46260E-09 -4.44735E-09 -4.43130E-09 -4.41445E-09 -4.39682E-09
  -4.37840E-09 -4.35920E-09 -4.33922E-09 -4.31846E-09 -4.29693E-09 -4.27464E-09 -4.25157E-09 -4.22774E-09 -4.20317E-09 -4.17783E-09
  -4.15175E-09 -4.12492E-09 -4.09734E-09 -4.06902E-09 -4.03998E-09 -4.01020E-09 -3.97969E-09 -3.94845E-09 -3.91650E-09 -3.88383E-09
  -3.85044E-09 -3.81635E-09 -3.78155E-09 -3.74606E-09 -3.70989E-09 -3.67306E-09 -3.63558E-09 -3.59747E-09 -3.55875E-09 -3.51942E-09
  -3.47951E-09 -3.43903E-09 -3.39800E-09 -3.35642E-09 -3.31432E-09 -3.27172E-09 -3.22861E-09 -3.18504E-09 -3.14100E-09 -3.09651E-09
  -3.05159E-09 -3.00625E-09 -2.96051E-09 -2.91439E-09 -2.86789E-09 -2.82104E-09 -2.77385E-09 -2.72633E-09 -2.67850E-09 -2.63038E-09
  -2.58197E-09 -2.53330E-09 -2.48438E-09 -2.43523E-09 -2.38585E-09 -2.33626E-09 -2.28649E-09 -2.23654E-09 -2.18643E-09 -2.13617E-09
  -2.08579E-09 -2.03527E-09 -1.98466E-09 -1.93396E-09 -1.88319E-09 -1.83235E-09 -1.78148E-09 -1.73057E-09 -1.67964E-09 -1.62871E-09
  -1.57779E-09 -1.52691E-09 -1.47605E-09 -1.42526E-09 -1.37453E-09 -1.32387E-09 -1.27332E-09 -1.22288E-09 -1.17257E-09 -1.12239E-09
  -1.07234E-09 -1.02246E-09 -9.72772E-10 -9.23260E-10 -8.73935E-10 -8.24794E-10 -7.75835E-10 -7.27063E-10 -6.78471E-10 -6.30066E-10
  -5.81846E-10 -5.33806E-10 -4.85949E-10 -4.38278E-10 -3.90787E-10 -3.43479E-10 -2.96349E-10 -2.49405E-10 -2.02639E-10 -1.56058E-10
  -1.09655E-10 -6.34319E-11 -1.73921E-11  2.84663E-11  7.41442E-11  1.19646E-10  1.64971E-10  2.10114E-10  2.55072E-10  2.99861E-10
   3.44463E-10  3.88881E-10  4.33133E-10  4.77202E-10  5.21083E-10  5.64797E-10  6.08336E-10  6.51687E-10  6.94863E-10  7.37867E-10
   7.80682E-10  8.23333E-10  8.65797E-10  9.08087E-10  9.50194E-10  9.92128E-10  1.03389E-09  1.07547E-09  1.11687E-09  1.15810E-09
   1.19915E-09  1.24002E-09  1.28071E-09  1.32123E-09  1.36158E-09  1.40174E-09  1.44172E-09  1.48153E-09  1.52116E-09  1.56061E-09
   1.59989E-09  1.63899E-09  1.67791E-09
 Cr       Conc. = 1.58E-10
   3.40592E-09  3.28732E-09  3.11439E-09  2.92791E-09  2.81307E-09  2.73308E-09  2.66706E-09  2.60819E-09  2.55353E-09  2.50152E-09
   2.45129E-09  2.40224E-09  2.35401E-09  2.30633E-09  2.25897E-09  2.21180E-09  2.16468E-09  2.11749E-09  2.07015E-09  2.02254E-09
   1.97456E-09  1.92611E-09  1.87706E-09  1.82727E-09  1.77656E-09  1.72470E-09  1.67141E-09  1.61634E-09  1.55916E-09  1.50001E-09
   1.44299E-09  1.43378E-09  1.55605E-09  1.74381E-09  1.93067E-09  2.07996E-09  2.18105E-09  2.23396E-09  2.23728E-09  2.18182E-09
   2.05340E-09  1.84487E-09  1.58233E-09  1.35223E-09  1.22685E-09  1.13572E-09  1.05962E-09  9.91716E-10  9.28872E-10  8.69381E-10
   8.12240E-10  7.56803E-10  7.02663E-10  6.49510E-10  5.97116E-10  5.45330E-10  4.94035E-10  4.43144E-10  3.92564E-10  3.42270E-10
   2.92179E-10  2.42268E-10  1.92508E-10  1.42878E-10  9.33519E-11  4.39199E-11 -5.43332E-12 -5.47149E-11 -1.03939E-10 -1.53108E-10
  -2.02228E-10 -2.51303E-10 -3.00335E-10 -3.49332E-10 -3.98289E-10 -4.47207E-10 -4.96095E-10 -5.44938E-10 -5.93753E-10 -6.42523E-10
  -6.91257E-10 -7.39950E-10 -7.88605E-10 -8.37209E-10 -8.85765E-10 -9.34278E-10 -9.82733E-10 -1.03114E-09 -1.07948E-09 -1.12777E-09
  -1.17599E-09 -1.22414E-09 -1.27223E-09 -1.32024E-09 -1.36817E-09 -1.41603E-09 -1.46379E-09 -1.51148E-09 -1.55907E-09 -1.60656E-09
  -1.65395E-09 -1.70124E-09 -1.74843E-09 -1.79550E-09 -1.84246E-09 -1.88930E-09 -1.93602E-09 -1.98261E-09 -2.02907E-09 -2.07539E-09
  -2.12157E-09 -2.16762E-09 -2.21351E-09 -2.25926E-09 -2.30485E-09 -2.35028E-09 -2.39554E-09 -2.44064E-09 -2.48556E-09 -2.53029E-09
  -2.57487E-09 -2.61925E-09 -2.66344E-09 -2.70743E-09 -2.75120E-09 -2.79475E-09 -2.83806E-09 -2.88112E-09 -2.92392E-09 -2.96646E-09
  -3.00871E-09 -3.05067E-09 -3.09232E-09 -3.13366E-09 -3.17467E-09 -3.21535E-09 -3.25567E-09 -3.29563E-09 -3.33522E-09 -3.37442E-09
  -3.41323E-09 -3.45163E-09 -3.48961E-09 -3.52716E-09 -3.56427E-09 -3.60092E-09 -3.63710E-09 -3.67281E-09 -3.70803E-09 -3.74274E-09
  -3.77694E-09 -3.81060E-09 -3.84373E-09 -3.87629E-09 -3.90828E-09 -3.93967E-09 -3.97044E-09 -4.00058E-09 -4.03004E-09 -4.05878E-09
  -4.08674E-09 -4.11380E-09 -4.13981E-09 -4.16440E-09 -4.18678E-09 -4.20457E-09 -4.20687E-09 -4.16363E-09 -4.10517E-09 -4.05653E-09
  -4.02850E-09 -4.02176E-09 -4.03372E-09 -4.06290E-09 -4.11049E-09 -4.17873E-09 -4.26688E-09 -4.36381E-09 -4.44230E-09 -4.47560E-09
  -4.49716E-09 -4.51442E-09 -4.52928E-09 -4.54248E-09 -4.55434E-09 -4.56504E-09 -4.57468E-09 -4.58332E-09 -4.59100E-09 -4.59776E-09
  -4.60361E-09 -4.60858E-09 -4.61266E-09 -4.61588E-09 -4.61824E-09 -4.61973E-09 -4.62039E-09 -4.62019E-09 -4.61916E-09 -4.61729E-09
  -4.61459E-09 -4.61105E-09 -4.60669E-09 -4.60151E-09 -4.59550E-09 -4.58868E-09 -4.58104E-09 -4.57259E-09 -4.56333E-09 -4.55326E-09
  -4.54239E-09 -4.53071E-09 -4.51824E-09 -4.50498E-09 -4.49091E-09 -4.47606E-09 -4.46042E-09 -4.44400E-09 -4.42679E-09 -4.40880E-09
  -4.39004E-09 -4.37051E-09 -4.35021E-09 -4.32914E-09 -4.30730E-09 -4.28471E-09 -4.26136E-09 -4.23725E-09 -4.21240E-09 -4.18679E-09
