 LCModel (Version 6.3-1R) Copyright: S.W. Provencher.          Ref.: Magn. Reson. Med. 30:672-679 (1993).                
 onepulse 30x23_ftSpec_smooth_lcm
 26 lines in following concentration table = NCONC+1
    Conc.  %SD   /Cr    Metabolite                                         
    0.000 999%   0.000 Ala                                                 
    0.000 999%   0.000 Asp                                                 
    0.000 999%   0.000 Cr                                                  
    0.000 999%   0.000 GABA                                                
    0.000 999%   0.000 Glc                                                 
    0.000 999%   0.000 Gln                                                 
    0.000 999%   0.000 Glu                                                 
    0.000 999%   0.000 Glyc                                                
    0.000 999%   0.000 GPC                                                 
    0.000 999%   0.000 GSH                                                 
    0.000 999%   0.000 Ins                                                 
    0.000 999%   0.000 Lac                                                 
    0.000 999%   0.000 NAAG                                                
    0.000 999%   0.000 NAA                                                 
    0.000 999%   0.000 PCh                                                 
    0.000 999%   0.000 PCr                                                 
    0.000 999%   0.000 PE                                                  
    0.000 999%   0.000 Scyllo                                              
    0.000 999%   0.000 Ser                                                 
    0.000 999%   0.000 Tau                                                 
    0.000 999%   0.000 GPC+PCh                                             
    0.000 999%   0.000 NAA+NAAG                                            
    0.000 999%   0.000 Ins+Glyc                                            
    0.000 999%   0.000 Cr+PCr                                              
    0.000 999%   0.000 Glu+Gln                                             
   6 lines in following misc. output table
  FWHM = 0.078 ppm    S/N =   0                                            
  Data shift = 0.291 ppm                                                   
  Ph:-140 deg      36.1 deg/ppm                                            
  alphaB,S = 2.8E-01,   4.0E-01                                            
   10 spline knots.   Ns = 5(1)                                            
   2 inflections.     1 extrema                                            
  363 points on ppm-axis = NY
      4.250000     4.238821     4.227641     4.216462     4.205282     4.194103     4.182923     4.171744     4.160564     4.149385
      4.138206     4.127026     4.115847     4.104667     4.093488     4.082308     4.071129     4.059949     4.048770     4.037591
      4.026411     4.015232     4.004052     3.992873     3.981693     3.970514     3.959334     3.948155     3.936975     3.925796
      3.914617     3.903437     3.892258     3.881078     3.869899     3.858719     3.847540     3.836360     3.825181     3.814002
      3.802822     3.791643     3.780463     3.769284     3.758104     3.746925     3.735745     3.724566     3.713387     3.702207
      3.691028     3.679848     3.668669     3.657489     3.646310     3.635130     3.623951     3.612772     3.601592     3.590413
      3.579233     3.568054     3.556874     3.545695     3.534515     3.523336     3.512156     3.500977     3.489798     3.478618
      3.467439     3.456259     3.445080     3.433900     3.422721     3.411541     3.400362     3.389183     3.378003     3.366824
      3.355644     3.344465     3.333285     3.322106     3.310926     3.299747     3.288568     3.277388     3.266209     3.255029
      3.243850     3.232670     3.221491     3.210311     3.199132     3.187953     3.176773     3.165594     3.154414     3.143235
      3.132055     3.120876     3.109696     3.098517     3.087337     3.076158     3.064979     3.053799     3.042620     3.031440
      3.020261     3.009081     2.997902     2.986722     2.975543     2.964364     2.953184     2.942005     2.930825     2.919646
      2.908466     2.897287     2.886107     2.874928     2.863749     2.852569     2.841390     2.830210     2.819031     2.807851
      2.796672     2.785492     2.774313     2.763134     2.751954     2.740775     2.729595     2.718416     2.707236     2.696057
      2.684877     2.673698     2.662519     2.651339     2.640160     2.628980     2.617801     2.606621     2.595442     2.584262
      2.573083     2.561903     2.550724     2.539545     2.528365     2.517186     2.506006     2.494827     2.483647     2.472468
      2.461288     2.450109     2.438930     2.427750     2.416571     2.405391     2.394212     2.383032     2.371853     2.360673
      2.349494     2.338315     2.327135     2.315956     2.304776     2.293597     2.282417     2.271238     2.260058     2.248879
      2.237700     2.226520     2.215341     2.204161     2.192982     2.181802     2.170623     2.159443     2.148264     2.137084
      2.125905     2.114726     2.103546     2.092367     2.081187     2.070008     2.058828     2.047649     2.036469     2.025290
      2.014111     2.002931     1.991752     1.980572     1.969393     1.958213     1.947034     1.935854     1.924675     1.913496
      1.902316     1.891137     1.879957     1.868778     1.857598     1.846419     1.835239     1.824060     1.812881     1.801701
      1.790522     1.779342     1.768163     1.756983     1.745804     1.734624     1.723445     1.712265     1.701086     1.689907
      1.678727     1.667548     1.656368     1.645189     1.634009     1.622830     1.611650     1.600471     1.589292     1.578112
      1.566933     1.555753     1.544574     1.533394     1.522215     1.511035     1.499856     1.488677     1.477497     1.466318
      1.455138     1.443959     1.432779     1.421600     1.410420     1.399241     1.388062     1.376882     1.365703     1.354523
      1.343344     1.332164     1.320985     1.309805     1.298626     1.287446     1.276267     1.265088     1.253908     1.242729
      1.231549     1.220370     1.209190     1.198011     1.186831     1.175652     1.164473     1.153293     1.142114     1.130934
      1.119755     1.108575     1.097396     1.086216     1.075037     1.063858     1.052678     1.041499     1.030319     1.019140
      1.007960     0.996781     0.985601     0.974422     0.963243     0.952063     0.940884     0.929704     0.918525     0.907345
      0.896166     0.884986     0.873807     0.862628     0.851448     0.840269     0.829089     0.817910     0.806730     0.795551
      0.784371     0.773192     0.762012     0.750833     0.739654     0.728474     0.717295     0.706115     0.694936     0.683756
      0.672577     0.661397     0.650218     0.639039     0.627859     0.616680     0.605500     0.594321     0.583141     0.571962
      0.560782     0.549603     0.538424     0.527244     0.516065     0.504885     0.493706     0.482526     0.471347     0.460167
      0.448988     0.437809     0.426629     0.415450     0.404270     0.393091     0.381911     0.370732     0.359552     0.348373
      0.337193     0.326014     0.314835     0.303655     0.292476     0.281296     0.270117     0.258937     0.247758     0.236578
      0.225399     0.214220     0.203040
 NY phased data points follow
  -1.05722E-08 -1.04730E-08 -1.09037E-08 -1.10278E-08 -1.18897E-08 -1.23085E-08 -1.34477E-08 -1.40896E-08 -1.41276E-08 -1.36683E-08
  -1.35978E-08 -1.30815E-08 -1.29436E-08 -1.24599E-08 -1.26785E-08 -1.24962E-08 -1.25119E-08 -1.24830E-08 -1.23198E-08 -1.24001E-08
  -1.24363E-08 -1.25221E-08 -1.24820E-08 -1.25713E-08 -1.21219E-08 -1.19357E-08 -1.20093E-08 -1.16759E-08 -1.15556E-08 -1.15941E-08
  -1.14500E-08 -1.15070E-08 -1.13009E-08 -1.13612E-08 -1.14471E-08 -1.08314E-08 -1.13018E-08 -1.14843E-08 -1.16215E-08 -1.16609E-08
  -1.15326E-08 -1.12259E-08 -1.08775E-08 -1.04134E-08 -9.98319E-09 -9.68920E-09 -9.35515E-09 -9.36340E-09 -8.97752E-09 -8.54401E-09
  -8.71831E-09 -8.30705E-09 -8.01504E-09 -7.47717E-09 -7.46184E-09 -7.89187E-09 -7.59163E-09 -7.96496E-09 -7.63308E-09 -7.81170E-09
  -7.23456E-09 -7.39440E-09 -7.54164E-09 -7.52854E-09 -8.14521E-09 -7.88950E-09 -7.99834E-09 -8.40548E-09 -8.82592E-09 -9.04384E-09
  -9.34010E-09 -9.17069E-09 -9.04678E-09 -8.33178E-09 -8.34377E-09 -7.67611E-09 -7.42346E-09 -6.88679E-09 -7.35828E-09 -7.05749E-09
  -7.35248E-09 -7.02203E-09 -7.91107E-09 -7.96337E-09 -9.25212E-09 -9.86314E-09 -1.10621E-08 -1.03366E-08 -1.05161E-08 -9.85238E-09
  -1.03782E-08 -8.78830E-09 -9.34099E-09 -8.52163E-09 -8.98139E-09 -8.50242E-09 -8.38500E-09 -7.48674E-09 -7.94235E-09 -6.89884E-09
  -7.30241E-09 -6.18355E-09 -6.77512E-09 -5.74099E-09 -6.53624E-09 -5.73653E-09 -6.20484E-09 -5.40630E-09 -6.31806E-09 -5.78582E-09
  -6.05565E-09 -5.35999E-09 -5.78041E-09 -5.06491E-09 -5.03939E-09 -4.39934E-09 -4.24570E-09 -3.95162E-09 -4.54890E-09 -3.62874E-09
  -4.43702E-09 -3.46406E-09 -3.61397E-09 -3.68699E-09 -3.42975E-09 -3.03232E-09 -2.88643E-09 -3.16035E-09 -2.39896E-09 -2.77974E-09
  -2.11336E-09 -2.46193E-09 -2.41158E-09 -2.84288E-09 -2.66095E-09 -2.92772E-09 -2.71656E-09 -3.03778E-09 -2.58517E-09 -2.97515E-09
  -2.04870E-09 -2.63420E-09 -2.21028E-09 -3.05877E-09 -2.43671E-09 -3.09678E-09 -3.16892E-09 -3.81042E-09 -2.98829E-09 -3.56782E-09
  -3.44401E-09 -4.28469E-09 -4.08801E-09 -4.78403E-09 -4.81381E-09 -4.85297E-09 -5.37918E-09 -5.65004E-09 -5.78236E-09 -5.92697E-09
  -6.13449E-09 -6.42821E-09 -6.53059E-09 -6.52169E-09 -6.39386E-09 -7.14218E-09 -7.35802E-09 -7.42773E-09 -7.79902E-09 -7.84924E-09
  -8.05736E-09 -8.38783E-09 -8.80691E-09 -9.11858E-09 -9.44675E-09 -9.85094E-09 -1.02264E-08 -9.73758E-09 -9.24881E-09 -7.01422E-09
  -6.35548E-09 -4.83379E-09 -4.40999E-09 -3.18230E-09 -2.66477E-09 -1.90848E-09 -1.20924E-09 -3.97582E-10 -3.09796E-10  9.21537E-10
   9.77172E-10  1.78116E-09  2.48972E-09  3.38122E-09  4.07713E-09  5.39420E-09  7.05509E-09  8.39838E-09  1.00300E-08  1.22499E-08
   1.51447E-08  1.70587E-08  2.02559E-08  2.29116E-08  2.59212E-08  2.85487E-08  3.08543E-08  3.25130E-08  3.39236E-08  3.38934E-08
   3.44352E-08  3.33632E-08  3.25758E-08  3.07082E-08  2.85488E-08  2.47626E-08  2.13809E-08  1.74751E-08  1.34709E-08  8.73493E-09
   4.49358E-09  9.13849E-10 -2.35763E-09 -4.33229E-09 -5.90167E-09 -6.15786E-09 -5.62133E-09 -5.59329E-09 -4.61093E-09 -4.10625E-09
  -3.04982E-09 -2.73693E-09 -1.88519E-09 -1.68745E-09 -1.21610E-09 -4.13011E-10 -3.20943E-10 -1.07677E-10  2.27349E-10  4.44760E-10
   3.38338E-10  1.22996E-10  2.09851E-10  2.35982E-10 -9.89225E-12  1.03596E-10 -3.34011E-10 -3.20831E-10 -5.39079E-10 -4.38625E-10
  -5.54457E-10 -4.20466E-11  1.04312E-10  3.36621E-10 -1.95478E-10  2.43768E-10 -3.43491E-10 -2.38768E-10 -5.24618E-10 -4.21466E-10
  -9.99253E-10 -9.71842E-11 -6.15801E-10 -4.44934E-10 -1.73034E-10  2.17008E-10 -3.75082E-11  3.57495E-10 -8.87477E-11  4.78360E-10
  -5.00634E-10  1.15567E-10 -2.87219E-10 -1.79711E-10 -7.52113E-10 -4.03541E-10 -6.59461E-10 -4.64117E-10 -8.17972E-10 -3.75702E-10
  -7.71892E-10 -4.83206E-10 -1.17684E-09 -5.41326E-10 -1.02973E-09 -3.47412E-10 -5.05390E-10 -8.27935E-11 -8.25137E-10 -1.36528E-10
  -7.49635E-10  3.14390E-10 -3.71850E-10  6.92171E-10 -8.31144E-10  2.15540E-10 -7.62454E-10 -2.39641E-11 -6.96972E-10  1.50267E-10
  -7.22803E-10  4.03562E-10 -7.31148E-10  2.94377E-10 -7.86509E-10  8.14477E-11 -6.36754E-10 -3.09876E-10 -9.56283E-10 -3.66729E-10
  -7.15027E-10 -2.35466E-10 -7.83051E-10 -9.49186E-10 -1.14434E-09 -3.09298E-10 -1.46297E-09 -8.03497E-10 -1.48250E-09 -9.48258E-10
  -1.43148E-09 -6.67531E-10 -1.47428E-09 -9.94537E-10 -1.59594E-09 -8.04600E-10 -1.51368E-09 -5.26073E-10 -1.70436E-09 -8.80595E-10
  -1.55201E-09 -1.00679E-09 -1.93753E-09 -9.87760E-10 -2.04345E-09 -1.01628E-09 -1.76668E-09 -1.14762E-09 -1.94435E-09 -1.32826E-09
  -1.62371E-09 -1.32211E-09 -1.89584E-09 -1.60054E-09 -1.73716E-09 -1.36062E-09 -1.67066E-09 -1.79553E-09 -1.89999E-09 -1.49962E-09
  -1.78707E-09 -1.45973E-09 -1.92626E-09 -1.71303E-09 -1.95653E-09 -1.86325E-09 -2.26145E-09 -1.67011E-09 -1.93306E-09 -2.15986E-09
  -1.92394E-09 -1.74389E-09 -2.09151E-09
 NY points of the fit to the data follow
  -1.30546E-08 -1.29932E-08 -1.29316E-08 -1.28699E-08 -1.28080E-08 -1.27459E-08 -1.26837E-08 -1.26213E-08 -1.25588E-08 -1.24961E-08
  -1.24333E-08 -1.23703E-08 -1.23072E-08 -1.22439E-08 -1.21805E-08 -1.21170E-08 -1.20533E-08 -1.19895E-08 -1.19257E-08 -1.18616E-08
  -1.17975E-08 -1.17333E-08 -1.16689E-08 -1.16044E-08 -1.15399E-08 -1.14752E-08 -1.14105E-08 -1.13456E-08 -1.12807E-08 -1.12157E-08
  -1.11505E-08 -1.10854E-08 -1.10201E-08 -1.09548E-08 -1.08893E-08 -1.08239E-08 -1.07583E-08 -1.06927E-08 -1.06271E-08 -1.05614E-08
  -1.04956E-08 -1.04298E-08 -1.03639E-08 -1.02981E-08 -1.02321E-08 -1.01662E-08 -1.01001E-08 -1.00341E-08 -9.96807E-09 -9.90203E-09
  -9.83591E-09 -9.76980E-09 -9.70365E-09 -9.63752E-09 -9.57142E-09 -9.50531E-09 -9.43923E-09 -9.37318E-09 -9.30718E-09 -9.24122E-09
  -9.17534E-09 -9.10954E-09 -9.04381E-09 -8.97819E-09 -8.91269E-09 -8.84728E-09 -8.78202E-09 -8.71688E-09 -8.65190E-09 -8.58709E-09
  -8.52244E-09 -8.45797E-09 -8.39369E-09 -8.32961E-09 -8.26575E-09 -8.20210E-09 -8.13870E-09 -8.07555E-09 -8.01261E-09 -7.94996E-09
  -7.88759E-09 -7.82551E-09 -7.76369E-09 -7.70221E-09 -7.64106E-09 -7.58020E-09 -7.51970E-09 -7.45953E-09 -7.39972E-09 -7.34029E-09
  -7.28122E-09 -7.22258E-09 -7.16429E-09 -7.10644E-09 -7.04902E-09 -6.99200E-09 -6.93541E-09 -6.87929E-09 -6.82365E-09 -6.76846E-09
  -6.71380E-09 -6.65958E-09 -6.60586E-09 -6.55270E-09 -6.50000E-09 -6.44779E-09 -6.39599E-09 -6.34445E-09 -6.29311E-09 -6.24187E-09
  -6.19062E-09 -6.13928E-09 -6.08775E-09 -6.03592E-09 -5.98373E-09 -5.93105E-09 -5.87781E-09 -5.82390E-09 -5.76922E-09 -5.71369E-09
  -5.65720E-09 -5.59968E-09 -5.54100E-09 -5.48110E-09 -5.41986E-09 -5.35721E-09 -5.29301E-09 -5.22722E-09 -5.15970E-09 -5.09038E-09
  -5.01915E-09 -4.94594E-09 -4.87064E-09 -4.79313E-09 -4.71335E-09 -4.63119E-09 -4.54657E-09 -4.45936E-09 -4.36951E-09 -4.27691E-09
  -4.18144E-09 -4.08302E-09 -3.98158E-09 -3.87700E-09 -3.76916E-09 -3.65801E-09 -3.54343E-09 -3.42535E-09 -3.30364E-09 -3.17824E-09
  -3.04902E-09 -2.91591E-09 -2.77883E-09 -2.63763E-09 -2.49226E-09 -2.34258E-09 -2.18863E-09 -2.03047E-09 -1.86839E-09 -1.70263E-09
  -1.53345E-09 -1.36109E-09 -1.18580E-09 -1.00783E-09 -8.27422E-10 -6.44837E-10 -4.60308E-10 -2.74109E-10 -8.64578E-11  1.02379E-10
   2.92156E-10  4.82625E-10  6.73539E-10  8.64648E-10  1.05570E-09  1.24646E-09  1.43665E-09  1.62606E-09  1.81442E-09  2.00147E-09
   2.18699E-09  2.37071E-09  2.55239E-09  2.73177E-09  2.90863E-09  3.08267E-09  3.25369E-09  3.42145E-09  3.58565E-09  3.74607E-09
   3.90247E-09  4.05458E-09  4.20218E-09  4.34497E-09  4.48276E-09  4.61528E-09  4.74228E-09  4.86349E-09  4.97871E-09  5.08764E-09
   5.19006E-09  5.28572E-09  5.37436E-09  5.45575E-09  5.52963E-09  5.59576E-09  5.65386E-09  5.70373E-09  5.74520E-09  5.77846E-09
   5.80370E-09  5.82116E-09  5.83104E-09  5.83357E-09  5.82895E-09  5.81741E-09  5.79916E-09  5.77441E-09  5.74339E-09  5.70630E-09
   5.66336E-09  5.61479E-09  5.56081E-09  5.50162E-09  5.43745E-09  5.36852E-09  5.29502E-09  5.21719E-09  5.13525E-09  5.04939E-09
   4.95984E-09  4.86682E-09  4.77054E-09  4.67121E-09  4.56906E-09  4.46430E-09  4.35715E-09  4.24780E-09  4.13650E-09  4.02345E-09
   3.90886E-09  3.79296E-09  3.67595E-09  3.55806E-09  3.43949E-09  3.32047E-09  3.20122E-09  3.08194E-09  2.96285E-09  2.84416E-09
   2.72610E-09  2.60888E-09  2.49272E-09  2.37781E-09  2.26441E-09  2.15269E-09  2.04290E-09  1.93523E-09  1.82991E-09  1.72717E-09
   1.62707E-09  1.52959E-09  1.43469E-09  1.34231E-09  1.25241E-09  1.16495E-09  1.07986E-09  9.97127E-10  9.16676E-10  8.38472E-10
   7.62477E-10  6.88625E-10  6.16892E-10  5.47207E-10  4.79528E-10  4.13831E-10  3.50045E-10  2.88136E-10  2.28040E-10  1.69741E-10
   1.13158E-10  5.82829E-11  5.02042E-12 -4.66469E-11 -9.67515E-11 -1.45358E-10 -1.92529E-10 -2.38290E-10 -2.82682E-10 -3.25754E-10
  -3.67567E-10 -4.08173E-10 -4.47609E-10 -4.85895E-10 -5.23125E-10 -5.59300E-10 -5.94507E-10 -6.28773E-10 -6.62152E-10 -6.94669E-10
  -7.26381E-10 -7.57376E-10 -7.87630E-10 -8.17247E-10 -8.46253E-10 -8.74671E-10 -9.02573E-10 -9.30032E-10 -9.57025E-10 -9.83670E-10
  -1.00996E-09 -1.03594E-09 -1.06169E-09 -1.08717E-09 -1.11239E-09 -1.13736E-09 -1.16209E-09 -1.18657E-09 -1.21082E-09 -1.23485E-09
  -1.25864E-09 -1.28222E-09 -1.30559E-09 -1.32876E-09 -1.35172E-09 -1.37449E-09 -1.39706E-09 -1.41946E-09 -1.44167E-09 -1.46372E-09
  -1.48559E-09 -1.50731E-09 -1.52887E-09 -1.55028E-09 -1.57154E-09 -1.59267E-09 -1.61366E-09 -1.63453E-09 -1.65528E-09 -1.67591E-09
  -1.69643E-09 -1.71684E-09 -1.73716E-09 -1.75738E-09 -1.77751E-09 -1.79757E-09 -1.81754E-09 -1.83745E-09 -1.85729E-09 -1.87707E-09
  -1.89680E-09 -1.91648E-09 -1.93611E-09 -1.95571E-09 -1.97528E-09 -1.99483E-09 -2.01435E-09 -2.03386E-09 -2.05336E-09 -2.07286E-09
  -2.09236E-09 -2.11187E-09 -2.13139E-09
 NY background values follow
    -1.305E-08   -1.299E-08   -1.293E-08   -1.287E-08   -1.281E-08   -1.275E-08   -1.268E-08   -1.262E-08   -1.256E-08   -1.250E-08
    -1.243E-08   -1.237E-08   -1.231E-08   -1.224E-08   -1.218E-08   -1.212E-08   -1.205E-08   -1.199E-08   -1.193E-08   -1.186E-08
    -1.180E-08   -1.173E-08   -1.167E-08   -1.160E-08   -1.154E-08   -1.148E-08   -1.141E-08   -1.135E-08   -1.128E-08   -1.122E-08
    -1.115E-08   -1.109E-08   -1.102E-08   -1.095E-08   -1.089E-08   -1.082E-08   -1.076E-08   -1.069E-08   -1.063E-08   -1.056E-08
    -1.050E-08   -1.043E-08   -1.036E-08   -1.030E-08   -1.023E-08   -1.017E-08   -1.010E-08   -1.003E-08   -9.968E-09   -9.902E-09
    -9.836E-09   -9.770E-09   -9.704E-09   -9.638E-09   -9.571E-09   -9.505E-09   -9.439E-09   -9.373E-09   -9.307E-09   -9.241E-09
    -9.175E-09   -9.110E-09   -9.044E-09   -8.978E-09   -8.913E-09   -8.847E-09   -8.782E-09   -8.717E-09   -8.652E-09   -8.587E-09
    -8.522E-09   -8.458E-09   -8.394E-09   -8.330E-09   -8.266E-09   -8.202E-09   -8.139E-09   -8.076E-09   -8.013E-09   -7.950E-09
    -7.888E-09   -7.826E-09   -7.764E-09   -7.702E-09   -7.641E-09   -7.580E-09   -7.520E-09   -7.460E-09   -7.400E-09   -7.340E-09
    -7.281E-09   -7.223E-09   -7.164E-09   -7.106E-09   -7.049E-09   -6.992E-09   -6.935E-09   -6.879E-09   -6.824E-09   -6.768E-09
    -6.714E-09   -6.660E-09   -6.606E-09   -6.553E-09   -6.500E-09   -6.448E-09   -6.396E-09   -6.344E-09   -6.293E-09   -6.242E-09
    -6.191E-09   -6.139E-09   -6.088E-09   -6.036E-09   -5.984E-09   -5.931E-09   -5.878E-09   -5.824E-09   -5.769E-09   -5.714E-09
    -5.657E-09   -5.600E-09   -5.541E-09   -5.481E-09   -5.420E-09   -5.357E-09   -5.293E-09   -5.227E-09   -5.160E-09   -5.090E-09
    -5.019E-09   -4.946E-09   -4.871E-09   -4.793E-09   -4.713E-09   -4.631E-09   -4.547E-09   -4.459E-09   -4.370E-09   -4.277E-09
    -4.181E-09   -4.083E-09   -3.982E-09   -3.877E-09   -3.769E-09   -3.658E-09   -3.543E-09   -3.425E-09   -3.304E-09   -3.178E-09
    -3.049E-09   -2.916E-09   -2.779E-09   -2.638E-09   -2.492E-09   -2.343E-09   -2.189E-09   -2.030E-09   -1.868E-09   -1.703E-09
    -1.533E-09   -1.361E-09   -1.186E-09   -1.008E-09   -8.274E-10   -6.448E-10   -4.603E-10   -2.741E-10   -8.646E-11    1.024E-10
     2.922E-10    4.826E-10    6.735E-10    8.646E-10    1.056E-09    1.246E-09    1.437E-09    1.626E-09    1.814E-09    2.001E-09
     2.187E-09    2.371E-09    2.552E-09    2.732E-09    2.909E-09    3.083E-09    3.254E-09    3.421E-09    3.586E-09    3.746E-09
     3.902E-09    4.055E-09    4.202E-09    4.345E-09    4.483E-09    4.615E-09    4.742E-09    4.863E-09    4.979E-09    5.088E-09
     5.190E-09    5.286E-09    5.374E-09    5.456E-09    5.530E-09    5.596E-09    5.654E-09    5.704E-09    5.745E-09    5.778E-09
     5.804E-09    5.821E-09    5.831E-09    5.834E-09    5.829E-09    5.817E-09    5.799E-09    5.774E-09    5.743E-09    5.706E-09
     5.663E-09    5.615E-09    5.561E-09    5.502E-09    5.437E-09    5.369E-09    5.295E-09    5.217E-09    5.135E-09    5.049E-09
     4.960E-09    4.867E-09    4.771E-09    4.671E-09    4.569E-09    4.464E-09    4.357E-09    4.248E-09    4.137E-09    4.023E-09
     3.909E-09    3.793E-09    3.676E-09    3.558E-09    3.439E-09    3.320E-09    3.201E-09    3.082E-09    2.963E-09    2.844E-09
     2.726E-09    2.609E-09    2.493E-09    2.378E-09    2.264E-09    2.153E-09    2.043E-09    1.935E-09    1.830E-09    1.727E-09
     1.627E-09    1.530E-09    1.435E-09    1.342E-09    1.252E-09    1.165E-09    1.080E-09    9.971E-10    9.167E-10    8.385E-10
     7.625E-10    6.886E-10    6.169E-10    5.472E-10    4.795E-10    4.138E-10    3.500E-10    2.881E-10    2.280E-10    1.697E-10
     1.132E-10    5.828E-11    5.020E-12   -4.665E-11   -9.675E-11   -1.454E-10   -1.925E-10   -2.383E-10   -2.827E-10   -3.258E-10
    -3.676E-10   -4.082E-10   -4.476E-10   -4.859E-10   -5.231E-10   -5.593E-10   -5.945E-10   -6.288E-10   -6.622E-10   -6.947E-10
    -7.264E-10   -7.574E-10   -7.876E-10   -8.172E-10   -8.463E-10   -8.747E-10   -9.026E-10   -9.300E-10   -9.570E-10   -9.837E-10
    -1.010E-09   -1.036E-09   -1.062E-09   -1.087E-09   -1.112E-09   -1.137E-09   -1.162E-09   -1.187E-09   -1.211E-09   -1.235E-09
    -1.259E-09   -1.282E-09   -1.306E-09   -1.329E-09   -1.352E-09   -1.374E-09   -1.397E-09   -1.419E-09   -1.442E-09   -1.464E-09
    -1.486E-09   -1.507E-09   -1.529E-09   -1.550E-09   -1.572E-09   -1.593E-09   -1.614E-09   -1.635E-09   -1.655E-09   -1.676E-09
    -1.696E-09   -1.717E-09   -1.737E-09   -1.757E-09   -1.778E-09   -1.798E-09   -1.818E-09   -1.837E-09   -1.857E-09   -1.877E-09
    -1.897E-09   -1.916E-09   -1.936E-09   -1.956E-09   -1.975E-09   -1.995E-09   -2.014E-09   -2.034E-09   -2.053E-09   -2.073E-09
    -2.092E-09   -2.112E-09   -2.131E-09
   7 lines in following diagnostic table:
   1 ERROR     MYBASI 10                                                  
   4 ERRORS    AREABA  3                                                  
   1 warning   STARTV  5                                                  
   1 info      STARTV 13                                                  
   1 warning   STARTV 25                                                  
   1 info      STARTV 20                                                  
   2 warnings  RBASOL  3                                                  
  79 lines in following table of input changes:
ATTH2O=1.0                                                                
FILH2O='/mnt/c/Users/divya/Downloads/Lexar/DataFo                         
   rDivya/meas_MID01415_FID95676_lb_RosetteSpinEc                         
   ho_ek_v1a_lcm/30x23_ftSpec_smooth_lcm_w'                               
DOWS=T                                                                    
DOECC=T                                                                   
CHRATO(8)='MM9/MM1 = 1.40 +- 0.7'                                         
CHRATO(7)='MM8/MM1 = 0.33 +- 0.17'                                        
CHRATO(6)='MM7/MM1 = 0.54 +- 0.27'                                        
CHRATO(5)='MM6/MM1 = 0.63 +- 0.16'                                        
CHRATO(4)='MM5/MM1 = 3.16 +- 0.79'                                        
CHRATO(3)='MM4/MM1 = 1.29 +- 1.03'                                        
CHRATO(2)='MM3/MM1 = 1.05 +- 0.63'                                        
CHRATO(1)='MM2/MM1 = 0.51 +- 0.17'                                        
NRATIO=8                                                                  
NORATO(7)='-CrCH2/totCr'                                                  
NORATO(6)='MM17/MM09*'                                                    
NORATO(5)='MM14/MM09*'                                                    
NORATO(4)='MM12/MM09*'                                                    
NORATO(3)='MM20/MM09*'                                                    
NORATO(2)='Lip20/Lip13*'                                                  
NORATO(1)='Lip09/Lip13*'                                                  
NNORAT=7                                                                  
CHOMIT(14)='-CrCH2'                                                       
CHOMIT(13)='MM17'                                                         
CHOMIT(12)='MM14'                                                         
CHOMIT(11)='MM12'                                                         
CHOMIT(10)='MM20'                                                         
CHOMIT(9)='Lip20'                                                         
CHOMIT(8)='MM09'                                                          
CHOMIT(7)='Lip09'                                                         
CHOMIT(6)='Lip13d'                                                        
CHOMIT(5)='Lip13c'                                                        
CHOMIT(4)='Lip13b'                                                        
CHOMIT(3)='Lip13a'                                                        
CHOMIT(2)='bHG'                                                           
CHOMIT(1)='bHB'                                                           
NOMIT=14                                                                  
NEACH=999                                                                 
DKNTMN=0.3                                                                
WDLINE(1)=0.025                                                           
RFWHM=0.15                                                                
PPMEND=0.2                                                                
PPMST=4.25                                                                
LPS=8                                                                     
DOREFS(1)=T                                                               
FILPRI='/mnt/c/Users/divya/Downloads/Lexar/DataFo                         
   rDivya/meas_MID01415_FID95676_lb_RosetteSpinEc                         
   ho_ek_v1a_lcm/30x23_ftSpec_smooth_lcm_out/30x2                         
   3_ftSpec_smooth_lcm.print'                                             
LCSV=11                                                                   
LCOORD=9                                                                  
LTABLE=7                                                                  
LPRINT=6                                                                  
ECHOT=20                                                                  
NUNFIL=576                                                                
DELTAT=0.00063000                                                         
HZPPPM=123.25                                                             
FILBAS='/mnt/c/Users/divya/Downloads/linux-send/f                         
   ida2/new/3T_SpinEchoRosetteMRSI_TE20.basis'                            
FILCSV='/mnt/c/Users/divya/Downloads/Lexar/DataFo                         
   rDivya/meas_MID01415_FID95676_lb_RosetteSpinEc                         
   ho_ek_v1a_lcm/30x23_ftSpec_smooth_lcm_out/30x2                         
   3_ftSpec_smooth_lcm.csv'                                               
FILCOO='/mnt/c/Users/divya/Downloads/Lexar/DataFo                         
   rDivya/meas_MID01415_FID95676_lb_RosetteSpinEc                         
   ho_ek_v1a_lcm/30x23_ftSpec_smooth_lcm_out/30x2                         
   3_ftSpec_smooth_lcm.coord'                                             
FILTAB='/mnt/c/Users/divya/Downloads/Lexar/DataFo                         
   rDivya/meas_MID01415_FID95676_lb_RosetteSpinEc                         
   ho_ek_v1a_lcm/30x23_ftSpec_smooth_lcm_out/30x2                         
   3_ftSpec_smooth_lcm.table'                                             
FILPS='/mnt/c/Users/divya/Downloads/Lexar/DataFor                         
   Divya/meas_MID01415_FID95676_lb_RosetteSpinEch                         
   o_ek_v1a_lcm/30x23_ftSpec_smooth_lcm_out/30x23                         
   _ftSpec_smooth_lcm.ps'                                                 
FILRAW='/mnt/c/Users/divya/Downloads/Lexar/DataFo                         
   rDivya/meas_MID01415_FID95676_lb_RosetteSpinEc                         
   ho_ek_v1a_lcm/30x23_ftSpec_smooth_lcm'                                 
