 LCModel (Version 6.3-1R) Copyright: S.W. Provencher.          Ref.: Magn. Reson. Med. 30:672-679 (1993).                
 onepulse 30x24_ftSpec_smooth_lcm
 26 lines in following concentration table = NCONC+1
    Conc.  %SD   /Cr    Metabolite                                         
    0.000 999%   0.000 Ala                                                 
    0.000 999%   0.000 Asp                                                 
    0.000 999%   0.000 Cr                                                  
    0.000 999%   0.000 GABA                                                
    0.000 999%   0.000 Glc                                                 
    0.000 999%   0.000 Gln                                                 
    0.000 999%   0.000 Glu                                                 
    0.000 999%   0.000 Glyc                                                
    0.000 999%   0.000 GPC                                                 
    0.000 999%   0.000 GSH                                                 
    0.000 999%   0.000 Ins                                                 
    0.000 999%   0.000 Lac                                                 
    0.000 999%   0.000 NAAG                                                
    0.000 999%   0.000 NAA                                                 
    0.000 999%   0.000 PCh                                                 
    0.000 999%   0.000 PCr                                                 
    0.000 999%   0.000 PE                                                  
    0.000 999%   0.000 Scyllo                                              
    0.000 999%   0.000 Ser                                                 
    0.000 999%   0.000 Tau                                                 
    0.000 999%   0.000 GPC+PCh                                             
    0.000 999%   0.000 NAA+NAAG                                            
    0.000 999%   0.000 Ins+Glyc                                            
    0.000 999%   0.000 Cr+PCr                                              
    0.000 999%   0.000 Glu+Gln                                             
   6 lines in following misc. output table
  FWHM = 0.078 ppm    S/N =   0                                            
  Data shift = 0.347 ppm                                                   
  Ph: 161 deg      20.4 deg/ppm                                            
  alphaB,S = 2.4E-01,   4.0E-01                                            
   10 spline knots.   Ns = 5(1)                                            
   2 inflections.     1 extrema                                            
  363 points on ppm-axis = NY
      4.250000     4.238821     4.227641     4.216462     4.205282     4.194103     4.182923     4.171744     4.160564     4.149385
      4.138206     4.127026     4.115847     4.104667     4.093488     4.082308     4.071129     4.059949     4.048770     4.037591
      4.026411     4.015232     4.004052     3.992873     3.981693     3.970514     3.959334     3.948155     3.936975     3.925796
      3.914617     3.903437     3.892258     3.881078     3.869899     3.858719     3.847540     3.836360     3.825181     3.814002
      3.802822     3.791643     3.780463     3.769284     3.758104     3.746925     3.735745     3.724566     3.713387     3.702207
      3.691028     3.679848     3.668669     3.657489     3.646310     3.635130     3.623951     3.612772     3.601592     3.590413
      3.579233     3.568054     3.556874     3.545695     3.534515     3.523336     3.512156     3.500977     3.489798     3.478618
      3.467439     3.456259     3.445080     3.433900     3.422721     3.411541     3.400362     3.389183     3.378003     3.366824
      3.355644     3.344465     3.333285     3.322106     3.310926     3.299747     3.288568     3.277388     3.266209     3.255029
      3.243850     3.232670     3.221491     3.210311     3.199132     3.187953     3.176773     3.165594     3.154414     3.143235
      3.132055     3.120876     3.109696     3.098517     3.087337     3.076158     3.064979     3.053799     3.042620     3.031440
      3.020261     3.009081     2.997902     2.986722     2.975543     2.964364     2.953184     2.942005     2.930825     2.919646
      2.908466     2.897287     2.886107     2.874928     2.863749     2.852569     2.841390     2.830210     2.819031     2.807851
      2.796672     2.785492     2.774313     2.763134     2.751954     2.740775     2.729595     2.718416     2.707236     2.696057
      2.684877     2.673698     2.662519     2.651339     2.640160     2.628980     2.617801     2.606621     2.595442     2.584262
      2.573083     2.561903     2.550724     2.539545     2.528365     2.517186     2.506006     2.494827     2.483647     2.472468
      2.461288     2.450109     2.438930     2.427750     2.416571     2.405391     2.394212     2.383032     2.371853     2.360673
      2.349494     2.338315     2.327135     2.315956     2.304776     2.293597     2.282417     2.271238     2.260058     2.248879
      2.237700     2.226520     2.215341     2.204161     2.192982     2.181802     2.170623     2.159443     2.148264     2.137084
      2.125905     2.114726     2.103546     2.092367     2.081187     2.070008     2.058828     2.047649     2.036469     2.025290
      2.014111     2.002931     1.991752     1.980572     1.969393     1.958213     1.947034     1.935854     1.924675     1.913496
      1.902316     1.891137     1.879957     1.868778     1.857598     1.846419     1.835239     1.824060     1.812881     1.801701
      1.790522     1.779342     1.768163     1.756983     1.745804     1.734624     1.723445     1.712265     1.701086     1.689907
      1.678727     1.667548     1.656368     1.645189     1.634009     1.622830     1.611650     1.600471     1.589292     1.578112
      1.566933     1.555753     1.544574     1.533394     1.522215     1.511035     1.499856     1.488677     1.477497     1.466318
      1.455138     1.443959     1.432779     1.421600     1.410420     1.399241     1.388062     1.376882     1.365703     1.354523
      1.343344     1.332164     1.320985     1.309805     1.298626     1.287446     1.276267     1.265088     1.253908     1.242729
      1.231549     1.220370     1.209190     1.198011     1.186831     1.175652     1.164473     1.153293     1.142114     1.130934
      1.119755     1.108575     1.097396     1.086216     1.075037     1.063858     1.052678     1.041499     1.030319     1.019140
      1.007960     0.996781     0.985601     0.974422     0.963243     0.952063     0.940884     0.929704     0.918525     0.907345
      0.896166     0.884986     0.873807     0.862628     0.851448     0.840269     0.829089     0.817910     0.806730     0.795551
      0.784371     0.773192     0.762012     0.750833     0.739654     0.728474     0.717295     0.706115     0.694936     0.683756
      0.672577     0.661397     0.650218     0.639039     0.627859     0.616680     0.605500     0.594321     0.583141     0.571962
      0.560782     0.549603     0.538424     0.527244     0.516065     0.504885     0.493706     0.482526     0.471347     0.460167
      0.448988     0.437809     0.426629     0.415450     0.404270     0.393091     0.381911     0.370732     0.359552     0.348373
      0.337193     0.326014     0.314835     0.303655     0.292476     0.281296     0.270117     0.258937     0.247758     0.236578
      0.225399     0.214220     0.203040
 NY phased data points follow
  -1.24958E-08 -1.32080E-08 -1.26740E-08 -1.19321E-08 -1.08496E-08 -1.06594E-08 -9.72452E-09 -9.94547E-09 -9.52254E-09 -9.97543E-09
  -9.45296E-09 -9.81715E-09 -9.21080E-09 -9.37976E-09 -9.31245E-09 -9.34485E-09 -9.03147E-09 -9.08572E-09 -8.76608E-09 -8.39866E-09
  -8.04660E-09 -8.00684E-09 -7.76183E-09 -7.72457E-09 -7.71431E-09 -7.62316E-09 -7.70341E-09 -7.20890E-09 -7.41430E-09 -7.26272E-09
  -6.91359E-09 -7.63599E-09 -7.54522E-09 -7.37751E-09 -7.09128E-09 -6.81803E-09 -6.36952E-09 -5.65677E-09 -5.28675E-09 -5.14594E-09
  -4.91408E-09 -4.76647E-09 -4.92898E-09 -4.34549E-09 -4.34438E-09 -4.33830E-09 -4.19907E-09 -3.98789E-09 -3.95806E-09 -4.18386E-09
  -4.64258E-09 -4.36580E-09 -4.75878E-09 -4.30896E-09 -4.73644E-09 -3.95946E-09 -4.73167E-09 -4.54609E-09 -5.08426E-09 -5.22645E-09
  -5.18437E-09 -5.18338E-09 -5.75648E-09 -5.86931E-09 -6.17395E-09 -5.86762E-09 -5.51365E-09 -4.83059E-09 -4.49850E-09 -4.30189E-09
  -3.95434E-09 -3.62490E-09 -3.59447E-09 -4.17670E-09 -4.13832E-09 -4.56468E-09 -4.67188E-09 -5.58025E-09 -5.98936E-09 -6.84886E-09
  -7.43203E-09 -7.64615E-09 -6.65691E-09 -6.28934E-09 -5.54950E-09 -5.49829E-09 -4.33184E-09 -4.85817E-09 -4.22498E-09 -4.62868E-09
  -4.12439E-09 -3.82966E-09 -3.48288E-09 -3.63871E-09 -3.14701E-09 -3.25674E-09 -2.55132E-09 -3.13729E-09 -2.34553E-09 -3.15455E-09
  -2.53183E-09 -2.90498E-09 -2.47393E-09 -3.26445E-09 -2.61398E-09 -2.80307E-09 -2.24294E-09 -2.68976E-09 -1.96353E-09 -1.97838E-09
  -1.44042E-09 -1.50732E-09 -1.41949E-09 -2.10828E-09 -1.18801E-09 -1.83488E-09 -6.62281E-10 -1.36658E-09 -9.36827E-10 -9.35804E-10
  -3.74640E-10 -5.91191E-10 -4.31892E-10 -9.20091E-11 -2.22646E-10  1.07753E-10 -4.55262E-10 -5.42762E-10 -9.01260E-10 -9.11900E-10
  -9.63557E-10 -1.13890E-09 -1.25761E-09 -1.10086E-09 -1.30266E-09 -7.69658E-10 -1.27791E-09 -1.23227E-09 -1.87240E-09 -1.49383E-09
  -2.13743E-09 -2.24047E-09 -2.69027E-09 -1.83386E-09 -2.41483E-09 -2.63804E-09 -3.07919E-09 -3.08946E-09 -3.65427E-09 -3.64551E-09
  -3.87100E-09 -4.42187E-09 -4.56557E-09 -4.86556E-09 -4.94243E-09 -5.38076E-09 -5.47312E-09 -5.81148E-09 -5.51316E-09 -5.79251E-09
  -6.47300E-09 -6.51225E-09 -6.46842E-09 -6.80656E-09 -6.90646E-09 -7.10267E-09 -7.30024E-09 -7.70078E-09 -7.72251E-09 -8.11123E-09
  -8.30040E-09 -8.35355E-09 -7.37633E-09 -6.31255E-09 -3.90646E-09 -3.50578E-09 -2.02113E-09 -1.97307E-09 -8.52550E-10 -7.04658E-10
  -6.71857E-11  2.90972E-10  1.15704E-09  1.00361E-09  2.41461E-09  2.04287E-09  3.34774E-09  3.57451E-09  4.68351E-09  4.93704E-09
   6.57165E-09  7.70221E-09  9.17198E-09  1.00412E-08  1.24358E-08  1.43383E-08  1.62154E-08  1.85492E-08  2.09947E-08  2.31646E-08
   2.56194E-08  2.73841E-08  2.92829E-08  3.03753E-08  3.13947E-08  3.20579E-08  3.20127E-08  3.18658E-08  3.10271E-08  2.92140E-08
   2.65678E-08  2.36220E-08  2.05805E-08  1.65509E-08  1.21257E-08  7.51821E-09  3.42464E-09 -9.07041E-10 -3.37813E-09 -5.88128E-09
  -6.48747E-09 -6.42949E-09 -6.21162E-09 -5.22057E-09 -4.15343E-09 -2.80616E-09 -1.96982E-09 -1.31801E-09 -8.30505E-10 -6.56429E-10
   2.64597E-10  3.40662E-10  7.61670E-10  8.71238E-10  1.19375E-09  7.73562E-10  8.02803E-10  5.73599E-10  9.92965E-10  3.59804E-10
   7.55927E-10 -1.04878E-11  2.12164E-10 -2.82171E-10 -1.19707E-10 -3.27178E-10  4.80969E-10  2.66811E-10  8.99085E-10  6.92426E-11
   8.30457E-10 -8.07449E-11  1.15904E-10 -3.58666E-10 -1.51325E-10 -8.68327E-10  1.34877E-10 -4.94791E-10 -4.47432E-11  1.70326E-12
   6.83488E-10  2.37417E-10  8.97880E-10  3.84838E-10  1.00642E-09 -1.70181E-10  7.88440E-10  5.27344E-11  4.35810E-10 -3.66075E-10
   1.76190E-10 -4.20808E-10  6.86782E-11 -4.61523E-10  2.92990E-10 -4.30365E-10 -6.08032E-11 -7.61170E-10  6.62992E-11 -7.74538E-10
   1.92860E-10 -1.25514E-10  4.31529E-10 -4.95284E-10  4.97398E-10 -3.27015E-10  9.83078E-10 -5.14554E-11  1.29428E-09 -3.20818E-10
   7.23898E-10 -3.20480E-10  6.42438E-10 -6.18541E-11  8.24542E-10 -2.89401E-10  1.05319E-09 -2.18686E-10  7.84013E-10 -1.11191E-10
   5.13388E-10 -3.61601E-11 -2.74337E-11 -5.07385E-10  4.08249E-11 -3.02305E-10  2.89583E-10 -3.55373E-10 -3.47927E-10 -8.53089E-10
  -6.94039E-12 -1.00759E-09 -3.78163E-10 -1.14681E-09 -4.76236E-10 -1.18798E-09 -2.82449E-10 -1.14292E-09 -6.36018E-10 -1.19237E-09
  -4.18959E-10 -1.29259E-09 -3.44879E-10 -1.24069E-09 -5.30226E-10 -1.33538E-09 -5.69991E-10 -1.60109E-09 -7.94771E-10 -1.57369E-09
  -5.60013E-10 -1.44972E-09 -8.30078E-10 -1.61857E-09 -1.03962E-09 -1.34037E-09 -1.00225E-09 -1.44898E-09 -1.23698E-09 -1.47961E-09
  -9.85419E-10 -1.49760E-09 -1.43715E-09 -1.70157E-09 -1.04978E-09 -1.59973E-09 -1.17895E-09 -1.65857E-09 -1.39820E-09 -1.59489E-09
  -1.51302E-09 -2.04003E-09 -1.65636E-09 -1.64280E-09 -2.00468E-09 -1.66535E-09 -1.54096E-09 -1.87107E-09 -1.89704E-09 -1.64338E-09
  -2.01180E-09 -1.89631E-09 -2.00244E-09
 NY points of the fit to the data follow
  -1.04317E-08 -1.03230E-08 -1.02147E-08 -1.01069E-08 -9.99948E-09 -9.89261E-09 -9.78622E-09 -9.68033E-09 -9.57496E-09 -9.47011E-09
  -9.36582E-09 -9.26207E-09 -9.15886E-09 -9.05625E-09 -8.95421E-09 -8.85276E-09 -8.75195E-09 -8.65171E-09 -8.55214E-09 -8.45317E-09
  -8.35488E-09 -8.25725E-09 -8.16027E-09 -8.06397E-09 -7.96840E-09 -7.87351E-09 -7.77936E-09 -7.68592E-09 -7.59325E-09 -7.50131E-09
  -7.41009E-09 -7.31972E-09 -7.23009E-09 -7.14127E-09 -7.05324E-09 -6.96606E-09 -6.87970E-09 -6.79414E-09 -6.70947E-09 -6.62571E-09
  -6.54275E-09 -6.46067E-09 -6.37952E-09 -6.29929E-09 -6.21996E-09 -6.14157E-09 -6.06410E-09 -5.98759E-09 -5.91207E-09 -5.83755E-09
  -5.76395E-09 -5.69136E-09 -5.61977E-09 -5.54922E-09 -5.47969E-09 -5.41117E-09 -5.34366E-09 -5.27715E-09 -5.21165E-09 -5.14715E-09
  -5.08366E-09 -5.02117E-09 -4.95967E-09 -4.89917E-09 -4.83967E-09 -4.78115E-09 -4.72363E-09 -4.66709E-09 -4.61154E-09 -4.55698E-09
  -4.50339E-09 -4.45079E-09 -4.39917E-09 -4.34851E-09 -4.29884E-09 -4.25013E-09 -4.20240E-09 -4.15565E-09 -4.10982E-09 -4.06499E-09
  -4.02111E-09 -3.97820E-09 -3.93622E-09 -3.89522E-09 -3.85519E-09 -3.81608E-09 -3.77794E-09 -3.74072E-09 -3.70446E-09 -3.66916E-09
  -3.63477E-09 -3.60136E-09 -3.56884E-09 -3.53729E-09 -3.50667E-09 -3.47696E-09 -3.44818E-09 -3.42033E-09 -3.39342E-09 -3.36742E-09
  -3.34238E-09 -3.31821E-09 -3.29496E-09 -3.27265E-09 -3.25121E-09 -3.23063E-09 -3.21078E-09 -3.19153E-09 -3.17276E-09 -3.15435E-09
  -3.13617E-09 -3.11812E-09 -3.10007E-09 -3.08188E-09 -3.06347E-09 -3.04467E-09 -3.02540E-09 -3.00552E-09 -2.98491E-09 -2.96346E-09
  -2.94103E-09 -2.91752E-09 -2.89280E-09 -2.86674E-09 -2.83924E-09 -2.81016E-09 -2.77939E-09 -2.74681E-09 -2.71229E-09 -2.67571E-09
  -2.63695E-09 -2.59591E-09 -2.55245E-09 -2.50644E-09 -2.45778E-09 -2.40633E-09 -2.35199E-09 -2.29462E-09 -2.23411E-09 -2.17035E-09
  -2.10320E-09 -2.03253E-09 -1.95826E-09 -1.88024E-09 -1.79833E-09 -1.71245E-09 -1.62246E-09 -1.52824E-09 -1.42967E-09 -1.32664E-09
  -1.21900E-09 -1.10666E-09 -9.89497E-10 -8.67365E-10 -7.40166E-10 -6.07754E-10 -4.70105E-10 -3.27353E-10 -1.79812E-10 -2.77677E-11
   1.28483E-10  2.88655E-10  4.52452E-10  6.19589E-10  7.89770E-10  9.62703E-10  1.13810E-09  1.31567E-09  1.49512E-09  1.67616E-09
   1.85850E-09  2.04185E-09  2.22591E-09  2.41040E-09  2.59502E-09  2.77949E-09  2.96350E-09  3.14678E-09  3.32904E-09  3.50996E-09
   3.68928E-09  3.86669E-09  4.04191E-09  4.21464E-09  4.38460E-09  4.55148E-09  4.71501E-09  4.87490E-09  5.03084E-09  5.18255E-09
   5.32974E-09  5.47210E-09  5.60938E-09  5.74124E-09  5.86743E-09  5.98764E-09  6.10158E-09  6.20895E-09  6.30948E-09  6.40286E-09
   6.48881E-09  6.56704E-09  6.63725E-09  6.69916E-09  6.75247E-09  6.79689E-09  6.83212E-09  6.85790E-09  6.87405E-09  6.88080E-09
   6.87842E-09  6.86718E-09  6.84736E-09  6.81924E-09  6.78310E-09  6.73920E-09  6.68783E-09  6.62925E-09  6.56375E-09  6.49160E-09
   6.41307E-09  6.32844E-09  6.23799E-09  6.14199E-09  6.04072E-09  5.93444E-09  5.82344E-09  5.70800E-09  5.58840E-09  5.46489E-09
   5.33775E-09  5.20728E-09  5.07373E-09  4.93739E-09  4.79853E-09  4.65743E-09  4.51436E-09  4.36959E-09  4.22341E-09  4.07609E-09
   3.92790E-09  3.77911E-09  3.63001E-09  3.48087E-09  3.33196E-09  3.18356E-09  3.03596E-09  2.88941E-09  2.74419E-09  2.60059E-09
   2.45887E-09  2.31932E-09  2.18220E-09  2.04779E-09  1.91638E-09  1.78822E-09  1.66361E-09  1.54281E-09  1.42609E-09  1.31375E-09
   1.20586E-09  1.10234E-09  1.00312E-09  9.08053E-10  8.17060E-10  7.30043E-10  6.46889E-10  5.67509E-10  4.91784E-10  4.19625E-10
   3.50939E-10  2.85602E-10  2.23539E-10  1.64619E-10  1.08747E-10  5.58483E-11  5.79042E-12 -4.15111E-11 -8.61788E-11 -1.28279E-10
  -1.67952E-10 -2.05255E-10 -2.40347E-10 -2.73296E-10 -3.04185E-10 -3.33137E-10 -3.60275E-10 -3.85673E-10 -4.09426E-10 -4.31638E-10
  -4.52431E-10 -4.71908E-10 -4.90164E-10 -5.07265E-10 -5.23369E-10 -5.38526E-10 -5.52885E-10 -5.66522E-10 -5.79549E-10 -5.92043E-10
  -6.04116E-10 -6.15917E-10 -6.27468E-10 -6.38936E-10 -6.50397E-10 -6.61928E-10 -6.73658E-10 -6.85720E-10 -6.98134E-10 -7.11086E-10
  -7.24616E-10 -7.38814E-10 -7.53768E-10 -7.69416E-10 -7.85739E-10 -8.02714E-10 -8.20320E-10 -8.38535E-10 -8.57338E-10 -8.76707E-10
  -8.96621E-10 -9.17056E-10 -9.37993E-10 -9.59410E-10 -9.81284E-10 -1.00359E-09 -1.02632E-09 -1.04944E-09 -1.07293E-09 -1.09676E-09
  -1.12093E-09 -1.14540E-09 -1.17016E-09 -1.19518E-09 -1.22044E-09 -1.24593E-09 -1.27161E-09 -1.29746E-09 -1.32348E-09 -1.34962E-09
  -1.37588E-09 -1.40223E-09 -1.42864E-09 -1.45510E-09 -1.48159E-09 -1.50808E-09 -1.53456E-09 -1.56099E-09 -1.58736E-09 -1.61365E-09
  -1.63984E-09 -1.66589E-09 -1.69181E-09 -1.71755E-09 -1.74310E-09 -1.76843E-09 -1.79354E-09 -1.81839E-09 -1.84296E-09 -1.86723E-09
  -1.89118E-09 -1.91479E-09 -1.93803E-09
 NY background values follow
    -1.043E-08   -1.032E-08   -1.021E-08   -1.011E-08   -9.999E-09   -9.893E-09   -9.786E-09   -9.680E-09   -9.575E-09   -9.470E-09
    -9.366E-09   -9.262E-09   -9.159E-09   -9.056E-09   -8.954E-09   -8.853E-09   -8.752E-09   -8.652E-09   -8.552E-09   -8.453E-09
    -8.355E-09   -8.257E-09   -8.160E-09   -8.064E-09   -7.968E-09   -7.874E-09   -7.779E-09   -7.686E-09   -7.593E-09   -7.501E-09
    -7.410E-09   -7.320E-09   -7.230E-09   -7.141E-09   -7.053E-09   -6.966E-09   -6.880E-09   -6.794E-09   -6.709E-09   -6.626E-09
    -6.543E-09   -6.461E-09   -6.380E-09   -6.299E-09   -6.220E-09   -6.142E-09   -6.064E-09   -5.988E-09   -5.912E-09   -5.838E-09
    -5.764E-09   -5.691E-09   -5.620E-09   -5.549E-09   -5.480E-09   -5.411E-09   -5.344E-09   -5.277E-09   -5.212E-09   -5.147E-09
    -5.084E-09   -5.021E-09   -4.960E-09   -4.899E-09   -4.840E-09   -4.781E-09   -4.724E-09   -4.667E-09   -4.612E-09   -4.557E-09
    -4.503E-09   -4.451E-09   -4.399E-09   -4.349E-09   -4.299E-09   -4.250E-09   -4.202E-09   -4.156E-09   -4.110E-09   -4.065E-09
    -4.021E-09   -3.978E-09   -3.936E-09   -3.895E-09   -3.855E-09   -3.816E-09   -3.778E-09   -3.741E-09   -3.704E-09   -3.669E-09
    -3.635E-09   -3.601E-09   -3.569E-09   -3.537E-09   -3.507E-09   -3.477E-09   -3.448E-09   -3.420E-09   -3.393E-09   -3.367E-09
    -3.342E-09   -3.318E-09   -3.295E-09   -3.273E-09   -3.251E-09   -3.231E-09   -3.211E-09   -3.192E-09   -3.173E-09   -3.154E-09
    -3.136E-09   -3.118E-09   -3.100E-09   -3.082E-09   -3.063E-09   -3.045E-09   -3.025E-09   -3.006E-09   -2.985E-09   -2.963E-09
    -2.941E-09   -2.918E-09   -2.893E-09   -2.867E-09   -2.839E-09   -2.810E-09   -2.779E-09   -2.747E-09   -2.712E-09   -2.676E-09
    -2.637E-09   -2.596E-09   -2.552E-09   -2.506E-09   -2.458E-09   -2.406E-09   -2.352E-09   -2.295E-09   -2.234E-09   -2.170E-09
    -2.103E-09   -2.033E-09   -1.958E-09   -1.880E-09   -1.798E-09   -1.712E-09   -1.622E-09   -1.528E-09   -1.430E-09   -1.327E-09
    -1.219E-09   -1.107E-09   -9.895E-10   -8.674E-10   -7.402E-10   -6.078E-10   -4.701E-10   -3.274E-10   -1.798E-10   -2.777E-11
     1.285E-10    2.887E-10    4.525E-10    6.196E-10    7.898E-10    9.627E-10    1.138E-09    1.316E-09    1.495E-09    1.676E-09
     1.858E-09    2.042E-09    2.226E-09    2.410E-09    2.595E-09    2.779E-09    2.964E-09    3.147E-09    3.329E-09    3.510E-09
     3.689E-09    3.867E-09    4.042E-09    4.215E-09    4.385E-09    4.551E-09    4.715E-09    4.875E-09    5.031E-09    5.183E-09
     5.330E-09    5.472E-09    5.609E-09    5.741E-09    5.867E-09    5.988E-09    6.102E-09    6.209E-09    6.309E-09    6.403E-09
     6.489E-09    6.567E-09    6.637E-09    6.699E-09    6.752E-09    6.797E-09    6.832E-09    6.858E-09    6.874E-09    6.881E-09
     6.878E-09    6.867E-09    6.847E-09    6.819E-09    6.783E-09    6.739E-09    6.688E-09    6.629E-09    6.564E-09    6.492E-09
     6.413E-09    6.328E-09    6.238E-09    6.142E-09    6.041E-09    5.934E-09    5.823E-09    5.708E-09    5.588E-09    5.465E-09
     5.338E-09    5.207E-09    5.074E-09    4.937E-09    4.799E-09    4.657E-09    4.514E-09    4.370E-09    4.223E-09    4.076E-09
     3.928E-09    3.779E-09    3.630E-09    3.481E-09    3.332E-09    3.184E-09    3.036E-09    2.889E-09    2.744E-09    2.601E-09
     2.459E-09    2.319E-09    2.182E-09    2.048E-09    1.916E-09    1.788E-09    1.664E-09    1.543E-09    1.426E-09    1.314E-09
     1.206E-09    1.102E-09    1.003E-09    9.081E-10    8.171E-10    7.300E-10    6.469E-10    5.675E-10    4.918E-10    4.196E-10
     3.509E-10    2.856E-10    2.235E-10    1.646E-10    1.087E-10    5.585E-11    5.790E-12   -4.151E-11   -8.618E-11   -1.283E-10
    -1.680E-10   -2.053E-10   -2.403E-10   -2.733E-10   -3.042E-10   -3.331E-10   -3.603E-10   -3.857E-10   -4.094E-10   -4.316E-10
    -4.524E-10   -4.719E-10   -4.902E-10   -5.073E-10   -5.234E-10   -5.385E-10   -5.529E-10   -5.665E-10   -5.795E-10   -5.920E-10
    -6.041E-10   -6.159E-10   -6.275E-10   -6.389E-10   -6.504E-10   -6.619E-10   -6.737E-10   -6.857E-10   -6.981E-10   -7.111E-10
    -7.246E-10   -7.388E-10   -7.538E-10   -7.694E-10   -7.857E-10   -8.027E-10   -8.203E-10   -8.385E-10   -8.573E-10   -8.767E-10
    -8.966E-10   -9.171E-10   -9.380E-10   -9.594E-10   -9.813E-10   -1.004E-09   -1.026E-09   -1.049E-09   -1.073E-09   -1.097E-09
    -1.121E-09   -1.145E-09   -1.170E-09   -1.195E-09   -1.220E-09   -1.246E-09   -1.272E-09   -1.297E-09   -1.323E-09   -1.350E-09
    -1.376E-09   -1.402E-09   -1.429E-09   -1.455E-09   -1.482E-09   -1.508E-09   -1.535E-09   -1.561E-09   -1.587E-09   -1.614E-09
    -1.640E-09   -1.666E-09   -1.692E-09   -1.718E-09   -1.743E-09   -1.768E-09   -1.794E-09   -1.818E-09   -1.843E-09   -1.867E-09
    -1.891E-09   -1.915E-09   -1.938E-09
   7 lines in following diagnostic table:
   1 ERROR     MYBASI 10                                                  
   4 ERRORS    AREABA  3                                                  
   1 warning   STARTV  5                                                  
   1 info      STARTV 13                                                  
   1 warning   STARTV 25                                                  
   1 info      STARTV 20                                                  
   2 warnings  RBASOL  3                                                  
  79 lines in following table of input changes:
ATTH2O=1.0                                                                
FILH2O='/mnt/c/Users/divya/Downloads/Lexar/DataFo                         
   rDivya/meas_MID01415_FID95676_lb_RosetteSpinEc                         
   ho_ek_v1a_lcm/30x24_ftSpec_smooth_lcm_w'                               
DOWS=T                                                                    
DOECC=T                                                                   
CHRATO(8)='MM9/MM1 = 1.40 +- 0.7'                                         
CHRATO(7)='MM8/MM1 = 0.33 +- 0.17'                                        
CHRATO(6)='MM7/MM1 = 0.54 +- 0.27'                                        
CHRATO(5)='MM6/MM1 = 0.63 +- 0.16'                                        
CHRATO(4)='MM5/MM1 = 3.16 +- 0.79'                                        
CHRATO(3)='MM4/MM1 = 1.29 +- 1.03'                                        
CHRATO(2)='MM3/MM1 = 1.05 +- 0.63'                                        
CHRATO(1)='MM2/MM1 = 0.51 +- 0.17'                                        
NRATIO=8                                                                  
NORATO(7)='-CrCH2/totCr'                                                  
NORATO(6)='MM17/MM09*'                                                    
NORATO(5)='MM14/MM09*'                                                    
NORATO(4)='MM12/MM09*'                                                    
NORATO(3)='MM20/MM09*'                                                    
NORATO(2)='Lip20/Lip13*'                                                  
NORATO(1)='Lip09/Lip13*'                                                  
NNORAT=7                                                                  
CHOMIT(14)='-CrCH2'                                                       
CHOMIT(13)='MM17'                                                         
CHOMIT(12)='MM14'                                                         
CHOMIT(11)='MM12'                                                         
CHOMIT(10)='MM20'                                                         
CHOMIT(9)='Lip20'                                                         
CHOMIT(8)='MM09'                                                          
CHOMIT(7)='Lip09'                                                         
CHOMIT(6)='Lip13d'                                                        
CHOMIT(5)='Lip13c'                                                        
CHOMIT(4)='Lip13b'                                                        
CHOMIT(3)='Lip13a'                                                        
CHOMIT(2)='bHG'                                                           
CHOMIT(1)='bHB'                                                           
NOMIT=14                                                                  
NEACH=999                                                                 
DKNTMN=0.3                                                                
WDLINE(1)=0.025                                                           
RFWHM=0.15                                                                
PPMEND=0.2                                                                
PPMST=4.25                                                                
LPS=8                                                                     
DOREFS(1)=T                                                               
FILPRI='/mnt/c/Users/divya/Downloads/Lexar/DataFo                         
   rDivya/meas_MID01415_FID95676_lb_RosetteSpinEc                         
   ho_ek_v1a_lcm/30x24_ftSpec_smooth_lcm_out/30x2                         
   4_ftSpec_smooth_lcm.print'                                             
LCSV=11                                                                   
LCOORD=9                                                                  
LTABLE=7                                                                  
LPRINT=6                                                                  
ECHOT=20                                                                  
NUNFIL=576                                                                
DELTAT=0.00063000                                                         
HZPPPM=123.25                                                             
FILBAS='/mnt/c/Users/divya/Downloads/linux-send/f                         
   ida2/new/3T_SpinEchoRosetteMRSI_TE20.basis'                            
FILCSV='/mnt/c/Users/divya/Downloads/Lexar/DataFo                         
   rDivya/meas_MID01415_FID95676_lb_RosetteSpinEc                         
   ho_ek_v1a_lcm/30x24_ftSpec_smooth_lcm_out/30x2                         
   4_ftSpec_smooth_lcm.csv'                                               
FILCOO='/mnt/c/Users/divya/Downloads/Lexar/DataFo                         
   rDivya/meas_MID01415_FID95676_lb_RosetteSpinEc                         
   ho_ek_v1a_lcm/30x24_ftSpec_smooth_lcm_out/30x2                         
   4_ftSpec_smooth_lcm.coord'                                             
FILTAB='/mnt/c/Users/divya/Downloads/Lexar/DataFo                         
   rDivya/meas_MID01415_FID95676_lb_RosetteSpinEc                         
   ho_ek_v1a_lcm/30x24_ftSpec_smooth_lcm_out/30x2                         
   4_ftSpec_smooth_lcm.table'                                             
FILPS='/mnt/c/Users/divya/Downloads/Lexar/DataFor                         
   Divya/meas_MID01415_FID95676_lb_RosetteSpinEch                         
   o_ek_v1a_lcm/30x24_ftSpec_smooth_lcm_out/30x24                         
   _ftSpec_smooth_lcm.ps'                                                 
FILRAW='/mnt/c/Users/divya/Downloads/Lexar/DataFo                         
   rDivya/meas_MID01415_FID95676_lb_RosetteSpinEc                         
   ho_ek_v1a_lcm/30x24_ftSpec_smooth_lcm'                                 
