 LCModel (Version 6.3-1R) Copyright: S.W. Provencher.          Ref.: Magn. Reson. Med. 30:672-679 (1993).                
 onepulse 30x20_ftSpec_smooth_lcm
 26 lines in following concentration table = NCONC+1
    Conc.  %SD   /Cr    Metabolite                                         
    0.000 999%   0.000 Ala                                                 
    0.000 999%   0.000 Asp                                                 
    0.000 999%   0.000 Cr                                                  
    0.000 999%   0.000 GABA                                                
 2.31E-10 417%   0.000 Glc                                                 
 7.90E-10  97%   0.000 Gln                                                 
    0.000 999%   0.000 Glu                                                 
    0.000 999%   0.000 Glyc                                                
 5.96E-11 172%   0.000 GPC                                                 
 8.87E-11 462%   0.000 GSH                                                 
 1.12E-09  53%   0.000 Ins                                                 
    0.000 999%   0.000 Lac                                                 
 2.80E-10  88%   0.000 NAAG                                                
    0.000 999%   0.000 NAA                                                 
    0.000 999%   0.000 PCh                                                 
    0.000 999%   0.000 PCr                                                 
    0.000 999%   0.000 PE                                                  
 1.61E-10 149%   0.000 Scyllo                                              
 4.78E-09  16%   0.000 Ser                                                 
    0.000 999%   0.000 Tau                                                 
 5.96E-11 172%   0.000 GPC+PCh                                             
 2.80E-10  88%   0.000 NAA+NAAG                                            
 1.12E-09  53%   0.000 Ins+Glyc                                            
    0.000 999%   0.000 Cr+PCr                                              
 7.90E-10  97%   0.000 Glu+Gln                                             
   6 lines in following misc. output table
  FWHM = 0.101 ppm    S/N =   2                                            
  Data shift = 0.425 ppm                                                   
  Ph: -60 deg     -47.8 deg/ppm                                            
  alphaB,S = 5.4E+01,   5.1E+01                                            
    7 spline knots.   Ns = 5(1)                                            
  (12) 4 infls.   (11) 1 extrs.                                            
  363 points on ppm-axis = NY
      4.250000     4.238821     4.227641     4.216462     4.205282     4.194103     4.182923     4.171744     4.160564     4.149385
      4.138206     4.127026     4.115847     4.104667     4.093488     4.082308     4.071129     4.059949     4.048770     4.037591
      4.026411     4.015232     4.004052     3.992873     3.981693     3.970514     3.959334     3.948155     3.936975     3.925796
      3.914617     3.903437     3.892258     3.881078     3.869899     3.858719     3.847540     3.836360     3.825181     3.814002
      3.802822     3.791643     3.780463     3.769284     3.758104     3.746925     3.735745     3.724566     3.713387     3.702207
      3.691028     3.679848     3.668669     3.657489     3.646310     3.635130     3.623951     3.612772     3.601592     3.590413
      3.579233     3.568054     3.556874     3.545695     3.534515     3.523336     3.512156     3.500977     3.489798     3.478618
      3.467439     3.456259     3.445080     3.433900     3.422721     3.411541     3.400362     3.389183     3.378003     3.366824
      3.355644     3.344465     3.333285     3.322106     3.310926     3.299747     3.288568     3.277388     3.266209     3.255029
      3.243850     3.232670     3.221491     3.210311     3.199132     3.187953     3.176773     3.165594     3.154414     3.143235
      3.132055     3.120876     3.109696     3.098517     3.087337     3.076158     3.064979     3.053799     3.042620     3.031440
      3.020261     3.009081     2.997902     2.986722     2.975543     2.964364     2.953184     2.942005     2.930825     2.919646
      2.908466     2.897287     2.886107     2.874928     2.863749     2.852569     2.841390     2.830210     2.819031     2.807851
      2.796672     2.785492     2.774313     2.763134     2.751954     2.740775     2.729595     2.718416     2.707236     2.696057
      2.684877     2.673698     2.662519     2.651339     2.640160     2.628980     2.617801     2.606621     2.595442     2.584262
      2.573083     2.561903     2.550724     2.539545     2.528365     2.517186     2.506006     2.494827     2.483647     2.472468
      2.461288     2.450109     2.438930     2.427750     2.416571     2.405391     2.394212     2.383032     2.371853     2.360673
      2.349494     2.338315     2.327135     2.315956     2.304776     2.293597     2.282417     2.271238     2.260058     2.248879
      2.237700     2.226520     2.215341     2.204161     2.192982     2.181802     2.170623     2.159443     2.148264     2.137084
      2.125905     2.114726     2.103546     2.092367     2.081187     2.070008     2.058828     2.047649     2.036469     2.025290
      2.014111     2.002931     1.991752     1.980572     1.969393     1.958213     1.947034     1.935854     1.924675     1.913496
      1.902316     1.891137     1.879957     1.868778     1.857598     1.846419     1.835239     1.824060     1.812881     1.801701
      1.790522     1.779342     1.768163     1.756983     1.745804     1.734624     1.723445     1.712265     1.701086     1.689907
      1.678727     1.667548     1.656368     1.645189     1.634009     1.622830     1.611650     1.600471     1.589292     1.578112
      1.566933     1.555753     1.544574     1.533394     1.522215     1.511035     1.499856     1.488677     1.477497     1.466318
      1.455138     1.443959     1.432779     1.421600     1.410420     1.399241     1.388062     1.376882     1.365703     1.354523
      1.343344     1.332164     1.320985     1.309805     1.298626     1.287446     1.276267     1.265088     1.253908     1.242729
      1.231549     1.220370     1.209190     1.198011     1.186831     1.175652     1.164473     1.153293     1.142114     1.130934
      1.119755     1.108575     1.097396     1.086216     1.075037     1.063858     1.052678     1.041499     1.030319     1.019140
      1.007960     0.996781     0.985601     0.974422     0.963243     0.952063     0.940884     0.929704     0.918525     0.907345
      0.896166     0.884986     0.873807     0.862628     0.851448     0.840269     0.829089     0.817910     0.806730     0.795551
      0.784371     0.773192     0.762012     0.750833     0.739654     0.728474     0.717295     0.706115     0.694936     0.683756
      0.672577     0.661397     0.650218     0.639039     0.627859     0.616680     0.605500     0.594321     0.583141     0.571962
      0.560782     0.549603     0.538424     0.527244     0.516065     0.504885     0.493706     0.482526     0.471347     0.460167
      0.448988     0.437809     0.426629     0.415450     0.404270     0.393091     0.381911     0.370732     0.359552     0.348373
      0.337193     0.326014     0.314835     0.303655     0.292476     0.281296     0.270117     0.258937     0.247758     0.236578
      0.225399     0.214220     0.203040
 NY phased data points follow
   9.78771E-09  1.15461E-08  9.25707E-09  1.12319E-08  9.03907E-09  1.04927E-08  8.63772E-09  1.05785E-08  8.99971E-09  1.07393E-08
   9.18322E-09  1.07890E-08  8.82382E-09  1.03304E-08  9.08742E-09  1.01029E-08  8.76420E-09  1.00301E-08  8.43118E-09  9.76327E-09
   8.47582E-09  1.00528E-08  8.54324E-09  9.76871E-09  8.46473E-09  9.76144E-09  8.91492E-09  1.04435E-08  9.45564E-09  1.01442E-08
   9.03620E-09  1.05995E-08  8.49080E-09  9.63701E-09  8.43584E-09  8.89698E-09  7.77793E-09  8.56153E-09  7.49988E-09  8.11812E-09
   7.04434E-09  7.24323E-09  6.50395E-09  7.14359E-09  5.85624E-09  6.92698E-09  5.89891E-09  6.68990E-09  5.16210E-09  6.33929E-09
   5.68815E-09  6.16559E-09  5.23122E-09  6.02152E-09  5.35992E-09  6.48353E-09  5.81582E-09  7.11328E-09  6.62077E-09  7.64376E-09
   7.72396E-09  8.19977E-09  6.96390E-09  7.57033E-09  6.76825E-09  6.87251E-09  6.29162E-09  6.76749E-09  5.81236E-09  6.26248E-09
   5.35845E-09  5.38617E-09  5.84495E-09  7.10065E-09  7.69425E-09  8.75538E-09  8.80804E-09  9.68885E-09  9.94438E-09  9.86001E-09
   9.50325E-09  9.90689E-09  9.19211E-09  9.70481E-09  9.51907E-09  9.81077E-09  9.31244E-09  9.37804E-09  8.49559E-09  8.87951E-09
   7.82797E-09  8.35419E-09  8.06069E-09  7.83001E-09  7.46671E-09  7.44580E-09  6.81630E-09  7.57449E-09  6.96636E-09  7.58810E-09
   6.83142E-09  7.34093E-09  6.53292E-09  6.98576E-09  5.97964E-09  6.20077E-09  5.61020E-09  5.63665E-09  5.21311E-09  5.93452E-09
   5.21608E-09  5.52763E-09  5.14864E-09  5.88356E-09  4.71683E-09  5.84880E-09  4.67781E-09  5.23570E-09  4.51295E-09  5.08853E-09
   3.98580E-09  4.60388E-09  3.84269E-09  4.82879E-09  3.67167E-09  4.73472E-09  3.84159E-09  4.88900E-09  3.42381E-09  4.31134E-09
   3.36700E-09  4.19970E-09  3.40550E-09  4.23696E-09  3.83596E-09  4.65576E-09  3.92801E-09  5.09304E-09  4.15701E-09  5.02836E-09
   4.94614E-09  5.47614E-09  5.20099E-09  5.58679E-09  5.27106E-09  6.33233E-09  5.53478E-09  6.12629E-09  5.75091E-09  6.42643E-09
   5.78437E-09  6.63470E-09  5.89884E-09  7.00716E-09  6.23455E-09  6.96232E-09  6.74952E-09  7.61952E-09  6.86777E-09  7.92924E-09
   7.35015E-09  8.43767E-09  8.66563E-09  9.78019E-09  1.06917E-08  1.18042E-08  1.28754E-08  1.42269E-08  1.43173E-08  1.57344E-08
   1.51957E-08  1.59484E-08  1.50221E-08  1.57816E-08  1.51223E-08  1.53915E-08  1.43149E-08  1.54624E-08  1.40497E-08  1.46920E-08
   1.43077E-08  1.49567E-08  1.36807E-08  1.42858E-08  1.35566E-08  1.33398E-08  1.22226E-08  1.26592E-08  1.10725E-08  1.03087E-08
   8.57718E-09  6.93821E-09  4.83019E-09  3.51541E-09  8.34629E-10 -1.34194E-09 -4.06853E-09 -6.11294E-09 -8.41598E-09 -9.85998E-09
  -1.15053E-08 -1.22009E-08 -1.31802E-08 -1.34610E-08 -1.32271E-08 -1.29266E-08 -1.20965E-08 -1.13109E-08 -1.02920E-08 -8.65658E-09
  -7.37367E-09 -5.86812E-09 -5.43268E-09 -3.95144E-09 -4.04398E-09 -3.43280E-09 -3.32042E-09 -2.40692E-09 -2.52619E-09 -2.08798E-09
  -1.71200E-09 -1.78722E-09 -1.49083E-09 -1.62016E-09 -1.93028E-09 -1.92991E-09 -1.44121E-09 -1.22682E-09 -1.57424E-09 -1.60709E-09
  -1.33380E-09 -1.42804E-09 -9.11324E-10 -1.19215E-09 -1.08183E-09 -1.28926E-09 -1.31844E-09 -1.44265E-09 -1.26289E-09 -9.28394E-10
  -1.02899E-09 -1.33472E-09 -8.11958E-10 -1.10804E-09 -8.89098E-10 -1.07803E-09 -3.67074E-10 -1.12368E-09 -5.99610E-10 -9.90157E-10
  -9.17099E-10 -6.67931E-10 -3.46774E-10 -6.39198E-10 -3.15636E-10 -7.98455E-10 -7.60189E-10 -1.00316E-09 -7.97539E-10 -1.27039E-09
  -9.87746E-10 -1.34455E-09 -8.66100E-10 -1.09257E-09 -6.57812E-10 -1.25104E-09 -1.09391E-09 -7.48095E-10 -1.00122E-10 -1.09390E-09
  -6.56591E-10 -5.00829E-10  4.29151E-11 -7.86707E-10 -9.15369E-11 -2.83600E-10 -2.54556E-10 -7.21110E-10 -1.53250E-10 -7.43342E-10
   2.08934E-10 -9.99801E-10 -6.59855E-10 -5.39096E-10 -2.91468E-10 -1.25048E-09 -6.94449E-10 -9.75254E-10 -3.67445E-10 -7.07827E-10
  -6.97101E-10 -6.60004E-10 -7.78550E-10 -6.46660E-10 -5.34123E-10 -8.28323E-10 -9.94420E-10 -9.20676E-10 -8.41506E-10 -1.12120E-09
  -8.45957E-10 -1.48053E-09 -9.37498E-10 -1.05223E-09 -7.92897E-10 -1.14772E-09 -1.08390E-09 -1.26277E-09 -1.16350E-09 -1.37080E-09
  -8.70802E-10 -1.43645E-09 -9.18409E-10 -1.39080E-09 -9.05565E-10 -1.41882E-09 -1.05874E-09 -1.60272E-09 -1.21398E-09 -1.87315E-09
  -1.48419E-09 -1.27905E-09 -1.68399E-09 -1.54673E-09 -1.44298E-09 -1.50738E-09 -1.31918E-09 -1.87276E-09 -1.28785E-09 -2.02298E-09
  -1.40613E-09 -1.95372E-09 -1.29634E-09 -2.03336E-09 -1.16535E-09 -2.15417E-09 -1.61891E-09 -2.07067E-09 -1.46051E-09 -2.07504E-09
  -1.38235E-09 -1.93927E-09 -1.62012E-09 -2.04973E-09 -1.40459E-09 -1.55685E-09 -1.84679E-09 -1.91845E-09 -1.94734E-09 -1.74922E-09
  -1.76728E-09 -1.97041E-09 -1.58201E-09 -2.40728E-09 -1.95595E-09 -2.42345E-09 -2.06996E-09 -2.66501E-09 -1.67206E-09 -2.55121E-09
  -1.64219E-09 -2.20196E-09 -1.76475E-09
 NY points of the fit to the data follow
   9.88137E-09  1.08324E-08  1.08263E-08  1.08352E-08  1.10966E-08  1.11873E-08  1.06138E-08  9.57017E-09  8.66758E-09  8.20180E-09
   8.17217E-09  8.36900E-09  8.63763E-09  8.98993E-09  9.36237E-09  9.59407E-09  9.66342E-09  9.69298E-09  9.68772E-09  9.39507E-09
   9.08033E-09  8.91857E-09  8.82475E-09  8.73392E-09  8.79669E-09  9.06564E-09  9.42802E-09  9.69387E-09  9.68804E-09  9.44182E-09
   9.36283E-09  9.32312E-09  9.21063E-09  9.01281E-09  8.72352E-09  8.35264E-09  8.03875E-09  7.80363E-09  7.62376E-09  7.48009E-09
   7.36251E-09  7.27101E-09  7.19438E-09  7.12535E-09  7.03984E-09  6.92894E-09  6.81817E-09  6.70331E-09  6.59343E-09  6.50562E-09
   6.42694E-09  6.36114E-09  6.28834E-09  6.21190E-09  6.21725E-09  6.34568E-09  6.47531E-09  6.65823E-09  6.92923E-09  7.20151E-09
   7.42528E-09  7.63175E-09  7.80567E-09  7.91852E-09  7.90941E-09  7.78870E-09  7.64592E-09  7.47065E-09  7.20280E-09  6.99110E-09
   6.86097E-09  6.82049E-09  6.87715E-09  6.96339E-09  7.07907E-09  7.27166E-09  7.75977E-09  8.41781E-09  9.06043E-09  9.56928E-09
   9.91584E-09  1.01104E-08  1.01944E-08  1.02615E-08  1.02383E-08  9.97324E-09  9.49345E-09  8.92727E-09  8.55588E-09  8.29348E-09
   8.08731E-09  7.91693E-09  7.77110E-09  7.64249E-09  7.52517E-09  7.41804E-09  7.32164E-09  7.23208E-09  7.14467E-09  7.05874E-09
   6.98049E-09  6.90968E-09  6.84065E-09  6.77198E-09  6.70653E-09  6.64404E-09  6.58389E-09  6.52562E-09  6.46878E-09  6.41318E-09
   6.35864E-09  6.30500E-09  6.25210E-09  6.19983E-09  6.14806E-09  6.09670E-09  6.04568E-09  5.99490E-09  5.94433E-09  5.89389E-09
   5.84353E-09  5.79324E-09  5.74294E-09  5.69262E-09  5.64225E-09  5.59179E-09  5.54123E-09  5.49054E-09  5.43971E-09  5.38874E-09
   5.33758E-09  5.28624E-09  5.23472E-09  5.18300E-09  5.13108E-09  5.07897E-09  5.02662E-09  4.97409E-09  4.92136E-09  4.86843E-09
   4.81531E-09  4.76201E-09  4.70855E-09  4.65496E-09  4.60121E-09  4.54737E-09  4.49347E-09  4.43954E-09  4.38565E-09  4.33182E-09
   4.27821E-09  4.22487E-09  4.17196E-09  4.11967E-09  4.06827E-09  4.01807E-09  3.96959E-09  3.92352E-09  3.88092E-09  3.84340E-09
   3.81355E-09  3.79582E-09  3.79843E-09  3.83811E-09  3.95508E-09  4.27156E-09  5.35203E-09  8.92842E-09  1.29112E-08  1.58377E-08
   1.74060E-08  1.79961E-08  1.80929E-08  1.79295E-08  1.73194E-08  1.57695E-08  1.28250E-08  8.71862E-09  5.01410E-09  3.85581E-09
   3.37508E-09  3.09540E-09  2.90083E-09  2.75017E-09  2.62515E-09  2.51637E-09  2.41851E-09  2.32835E-09  2.24381E-09  2.16350E-09
   2.08648E-09  2.01203E-09  1.93965E-09  1.86899E-09  1.79975E-09  1.73171E-09  1.66471E-09  1.59860E-09  1.53330E-09  1.46870E-09
   1.40474E-09  1.34136E-09  1.27855E-09  1.21623E-09  1.15439E-09  1.09302E-09  1.03207E-09  9.71562E-10  9.11457E-10  8.51763E-10
   7.92472E-10  7.33571E-10  6.75062E-10  6.16945E-10  5.59215E-10  5.01891E-10  4.44953E-10  3.88409E-10  3.32268E-10  2.76537E-10
   2.21211E-10  1.66307E-10  1.11813E-10  5.77573E-11  4.12763E-12 -4.90555E-11 -1.01814E-10 -1.54085E-10 -2.05918E-10 -2.57284E-10
  -3.08180E-10 -3.58585E-10 -4.08512E-10 -4.57931E-10 -5.06850E-10 -5.55263E-10 -6.03151E-10 -6.50512E-10 -6.97337E-10 -7.43619E-10
  -7.89354E-10 -8.34521E-10 -8.79131E-10 -9.23164E-10 -9.66622E-10 -1.00949E-09 -1.05175E-09 -1.09340E-09 -1.13445E-09 -1.17486E-09
  -1.21466E-09 -1.25381E-09 -1.29232E-09 -1.33020E-09 -1.36740E-09 -1.40394E-09 -1.43980E-09 -1.47498E-09 -1.50948E-09 -1.54329E-09
  -1.57638E-09 -1.60877E-09 -1.64045E-09 -1.67139E-09 -1.70161E-09 -1.73109E-09 -1.75984E-09 -1.78784E-09 -1.81508E-09 -1.84153E-09
  -1.86725E-09 -1.89216E-09 -1.91631E-09 -1.93967E-09 -1.96224E-09 -1.98400E-09 -2.00496E-09 -2.02511E-09 -2.04445E-09 -2.06296E-09
  -2.08064E-09 -2.09750E-09 -2.11351E-09 -2.12868E-09 -2.14301E-09 -2.15648E-09 -2.16910E-09 -2.18085E-09 -2.19174E-09 -2.20175E-09
  -2.21089E-09 -2.21915E-09 -2.22653E-09 -2.23302E-09 -2.23862E-09 -2.24332E-09 -2.24712E-09 -2.25002E-09 -2.25201E-09 -2.25309E-09
  -2.25326E-09 -2.25252E-09 -2.25085E-09 -2.24826E-09 -2.24475E-09 -2.24031E-09 -2.23494E-09 -2.22864E-09 -2.22140E-09 -2.21322E-09
  -2.20411E-09 -2.19405E-09 -2.18305E-09 -2.17111E-09 -2.15822E-09 -2.14438E-09 -2.12960E-09 -2.11386E-09 -2.09717E-09 -2.07953E-09
  -2.06093E-09 -2.04138E-09 -2.02088E-09 -1.99942E-09 -1.97700E-09 -1.95363E-09 -1.92931E-09 -1.90402E-09 -1.87778E-09 -1.85059E-09
  -1.82244E-09 -1.79334E-09 -1.76328E-09 -1.73227E-09 -1.70030E-09 -1.66738E-09 -1.63352E-09 -1.59870E-09 -1.56294E-09 -1.52623E-09
  -1.48858E-09 -1.44998E-09 -1.41044E-09 -1.36997E-09 -1.32855E-09 -1.28621E-09 -1.24293E-09 -1.19872E-09 -1.15358E-09 -1.10752E-09
  -1.06054E-09 -1.01264E-09 -9.63826E-10 -9.14100E-10 -8.63466E-10 -8.11927E-10 -7.59487E-10 -7.06150E-10 -6.51919E-10 -5.96799E-10
  -5.40794E-10 -4.83908E-10 -4.26146E-10
 NY background values follow
     8.767E-10    9.701E-10    1.063E-09    1.154E-09    1.245E-09    1.335E-09    1.423E-09    1.511E-09    1.598E-09    1.684E-09
     1.769E-09    1.852E-09    1.935E-09    2.017E-09    2.098E-09    2.178E-09    2.257E-09    2.335E-09    2.412E-09    2.488E-09
     2.563E-09    2.637E-09    2.710E-09    2.781E-09    2.852E-09    2.922E-09    2.991E-09    3.058E-09    3.125E-09    3.190E-09
     3.255E-09    3.318E-09    3.381E-09    3.442E-09    3.503E-09    3.562E-09    3.620E-09    3.677E-09    3.733E-09    3.788E-09
     3.842E-09    3.895E-09    3.947E-09    3.998E-09    4.047E-09    4.096E-09    4.143E-09    4.190E-09    4.235E-09    4.280E-09
     4.323E-09    4.365E-09    4.406E-09    4.446E-09    4.485E-09    4.523E-09    4.560E-09    4.596E-09    4.630E-09    4.664E-09
     4.697E-09    4.728E-09    4.759E-09    4.788E-09    4.816E-09    4.844E-09    4.870E-09    4.895E-09    4.919E-09    4.943E-09
     4.965E-09    4.986E-09    5.006E-09    5.025E-09    5.043E-09    5.060E-09    5.076E-09    5.091E-09    5.105E-09    5.117E-09
     5.129E-09    5.140E-09    5.150E-09    5.159E-09    5.167E-09    5.174E-09    5.180E-09    5.185E-09    5.189E-09    5.192E-09
     5.194E-09    5.196E-09    5.196E-09    5.195E-09    5.193E-09    5.191E-09    5.187E-09    5.183E-09    5.178E-09    5.171E-09
     5.164E-09    5.156E-09    5.147E-09    5.138E-09    5.127E-09    5.116E-09    5.103E-09    5.090E-09    5.076E-09    5.061E-09
     5.045E-09    5.029E-09    5.011E-09    4.993E-09    4.974E-09    4.955E-09    4.934E-09    4.913E-09    4.891E-09    4.868E-09
     4.844E-09    4.820E-09    4.795E-09    4.769E-09    4.743E-09    4.715E-09    4.687E-09    4.659E-09    4.629E-09    4.600E-09
     4.569E-09    4.538E-09    4.506E-09    4.473E-09    4.440E-09    4.406E-09    4.372E-09    4.337E-09    4.301E-09    4.265E-09
     4.228E-09    4.191E-09    4.153E-09    4.114E-09    4.076E-09    4.036E-09    3.996E-09    3.956E-09    3.915E-09    3.873E-09
     3.831E-09    3.789E-09    3.746E-09    3.703E-09    3.659E-09    3.615E-09    3.570E-09    3.525E-09    3.480E-09    3.434E-09
     3.388E-09    3.342E-09    3.295E-09    3.248E-09    3.200E-09    3.153E-09    3.105E-09    3.056E-09    3.008E-09    2.959E-09
     2.909E-09    2.860E-09    2.810E-09    2.761E-09    2.710E-09    2.660E-09    2.610E-09    2.559E-09    2.508E-09    2.457E-09
     2.406E-09    2.355E-09    2.303E-09    2.252E-09    2.200E-09    2.148E-09    2.097E-09    2.045E-09    1.993E-09    1.941E-09
     1.889E-09    1.837E-09    1.785E-09    1.733E-09    1.681E-09    1.628E-09    1.576E-09    1.524E-09    1.473E-09    1.421E-09
     1.369E-09    1.317E-09    1.266E-09    1.214E-09    1.163E-09    1.111E-09    1.060E-09    1.009E-09    9.584E-10    9.077E-10
     8.573E-10    8.070E-10    7.569E-10    7.071E-10    6.574E-10    6.080E-10    5.589E-10    5.099E-10    4.613E-10    4.130E-10
     3.649E-10    3.171E-10    2.696E-10    2.225E-10    1.757E-10    1.292E-10    8.303E-11    3.728E-11   -8.135E-12   -5.317E-11
    -9.781E-11   -1.421E-10   -1.859E-10   -2.293E-10   -2.723E-10   -3.149E-10   -3.570E-10   -3.986E-10   -4.398E-10   -4.805E-10
    -5.208E-10   -5.605E-10   -5.997E-10   -6.384E-10   -6.767E-10   -7.143E-10   -7.515E-10   -7.881E-10   -8.241E-10   -8.596E-10
    -8.945E-10   -9.288E-10   -9.625E-10   -9.956E-10   -1.028E-09   -1.060E-09   -1.091E-09   -1.122E-09   -1.152E-09   -1.181E-09
    -1.210E-09   -1.238E-09   -1.266E-09   -1.292E-09   -1.318E-09   -1.344E-09   -1.368E-09   -1.392E-09   -1.416E-09   -1.438E-09
    -1.460E-09   -1.481E-09   -1.501E-09   -1.521E-09   -1.540E-09   -1.558E-09   -1.575E-09   -1.591E-09   -1.607E-09   -1.622E-09
    -1.636E-09   -1.650E-09   -1.662E-09   -1.674E-09   -1.685E-09   -1.695E-09   -1.705E-09   -1.713E-09   -1.721E-09   -1.728E-09
    -1.734E-09   -1.739E-09   -1.743E-09   -1.747E-09   -1.749E-09   -1.751E-09   -1.752E-09   -1.752E-09   -1.751E-09   -1.750E-09
    -1.747E-09   -1.744E-09   -1.739E-09   -1.734E-09   -1.728E-09   -1.721E-09   -1.713E-09   -1.704E-09   -1.694E-09   -1.684E-09
    -1.672E-09   -1.660E-09   -1.646E-09   -1.632E-09   -1.617E-09   -1.601E-09   -1.584E-09   -1.566E-09   -1.547E-09   -1.527E-09
    -1.507E-09   -1.485E-09   -1.463E-09   -1.439E-09   -1.415E-09   -1.389E-09   -1.363E-09   -1.336E-09   -1.308E-09   -1.279E-09
    -1.249E-09   -1.218E-09   -1.186E-09   -1.154E-09   -1.120E-09   -1.085E-09   -1.050E-09   -1.013E-09   -9.762E-10   -9.379E-10
    -8.988E-10   -8.587E-10   -8.177E-10   -7.758E-10   -7.330E-10   -6.893E-10   -6.447E-10   -5.992E-10   -5.528E-10   -5.055E-10
    -4.573E-10   -4.082E-10   -3.582E-10   -3.073E-10   -2.556E-10   -2.030E-10   -1.495E-10   -9.511E-11   -3.987E-11    1.622E-11
     7.318E-11    1.310E-10    1.896E-10
 Glc      Conc. = 2.31E-10
   5.50110E-10  7.25542E-10  8.97555E-10  1.07005E-09  1.23288E-09  1.38768E-09  1.51933E-09  1.62863E-09  1.70648E-09  1.74850E-09
   1.78583E-09  1.82597E-09  1.86756E-09  1.92460E-09  2.02847E-09  2.18275E-09  2.36999E-09  2.57188E-09  2.76091E-09  2.93050E-09
   3.09765E-09  3.25798E-09  3.39563E-09  3.50467E-09  3.56617E-09  3.57901E-09  3.58775E-09  3.61532E-09  3.66048E-09  3.71494E-09
   3.76548E-09  3.81128E-09  3.85896E-09  3.90181E-09  3.93573E-09  3.97115E-09  4.00863E-09  4.04199E-09  4.07360E-09  4.10779E-09
   4.14396E-09  4.18124E-09  4.21922E-09  4.25754E-09  4.29596E-09  4.33430E-09  4.37242E-09  4.41021E-09  4.44756E-09  4.48439E-09
   4.52068E-09  4.55633E-09  4.59129E-09  4.62558E-09  4.65910E-09  4.69186E-09  4.72381E-09  4.75496E-09  4.78526E-09  4.81470E-09
   4.84328E-09  4.87098E-09  4.89780E-09  4.92371E-09  4.94871E-09  4.97280E-09  4.99596E-09  5.01819E-09  5.03949E-09  5.05986E-09
   5.07929E-09  5.09778E-09  5.11530E-09  5.13191E-09  5.14755E-09  5.16226E-09  5.17601E-09  5.18882E-09  5.20066E-09  5.21157E-09
   5.22153E-09  5.23054E-09  5.23863E-09  5.24577E-09  5.25197E-09  5.25725E-09  5.26157E-09  5.26495E-09  5.26746E-09  5.26901E-09
   5.26964E-09  5.26932E-09  5.26813E-09  5.26603E-09  5.26303E-09  5.25913E-09  5.25434E-09  5.24866E-09  5.24210E-09  5.23466E-09
   5.22635E-09  5.21717E-09  5.20713E-09  5.19623E-09  5.18448E-09  5.17190E-09  5.15847E-09  5.14422E-09  5.12914E-09  5.11324E-09
   5.09653E-09  5.07901E-09  5.06070E-09  5.04160E-09  5.02172E-09  5.00106E-09  4.97964E-09  4.95743E-09  4.93450E-09  4.91081E-09
   4.88638E-09  4.86123E-09  4.83535E-09  4.80876E-09  4.78147E-09  4.75348E-09  4.72479E-09  4.69543E-09  4.66539E-09  4.63471E-09
   4.60335E-09  4.57135E-09  4.53872E-09  4.50546E-09  4.47158E-09  4.43711E-09  4.40200E-09  4.36633E-09  4.33007E-09  4.29324E-09
   4.25585E-09  4.21791E-09  4.17942E-09  4.14043E-09  4.10088E-09  4.06083E-09  4.02029E-09  3.97925E-09  3.93774E-09  3.89573E-09
   3.85331E-09  3.81044E-09  3.76712E-09  3.72341E-09  3.67930E-09  3.63481E-09  3.58997E-09  3.54480E-09  3.49938E-09  3.45372E-09
   3.40793E-09  3.36214E-09  3.31662E-09  3.27185E-09  3.22916E-09  3.19236E-09  3.18014E-09  3.24642E-09  3.32265E-09  3.36452E-09
   3.36397E-09  3.33343E-09  3.28801E-09  3.23462E-09  3.16698E-09  3.06943E-09  2.92799E-09  2.75078E-09  2.58810E-09  2.50532E-09
   2.44144E-09  2.38324E-09  2.32739E-09  2.27273E-09  2.21874E-09  2.16514E-09  2.11180E-09  2.05863E-09  2.00557E-09  1.95258E-09
   1.89968E-09  1.84682E-09  1.79401E-09  1.74124E-09  1.68854E-09  1.63589E-09  1.58330E-09  1.53077E-09  1.47832E-09  1.42596E-09
   1.37368E-09  1.32150E-09  1.26944E-09  1.21749E-09  1.16567E-09  1.11399E-09  1.06246E-09  1.01109E-09  9.59882E-10  9.08858E-10
   8.58025E-10  8.07387E-10  7.56958E-10  7.06750E-10  6.56766E-10  6.07037E-10  5.57550E-10  5.08319E-10  4.59361E-10  4.10690E-10
   3.62305E-10  3.14229E-10  2.66453E-10  2.19011E-10  1.71895E-10  1.25128E-10  7.86923E-11  3.26531E-11 -1.30359E-11 -5.83426E-11
  -1.03262E-10 -1.47771E-10 -1.91879E-10 -2.35555E-10 -2.78804E-10 -3.21621E-10 -3.63983E-10 -4.05886E-10 -4.47320E-10 -4.88278E-10
  -5.28752E-10 -5.68722E-10 -6.08197E-10 -6.47156E-10 -6.85599E-10 -7.23507E-10 -7.60869E-10 -7.97681E-10 -8.33943E-10 -8.69630E-10
  -9.04747E-10 -9.39279E-10 -9.73217E-10 -1.00657E-09 -1.03930E-09 -1.07142E-09 -1.10291E-09 -1.13377E-09 -1.16400E-09 -1.19358E-09
  -1.22249E-09 -1.25075E-09 -1.27835E-09 -1.30524E-09 -1.33147E-09 -1.35700E-09 -1.38185E-09 -1.40597E-09 -1.42939E-09 -1.45206E-09
  -1.47405E-09 -1.49527E-09 -1.51577E-09 -1.53552E-09 -1.55451E-09 -1.57274E-09 -1.59022E-09 -1.60691E-09 -1.62283E-09 -1.63797E-09
  -1.65232E-09 -1.66588E-09 -1.67863E-09 -1.69058E-09 -1.70173E-09 -1.71205E-09 -1.72156E-09 -1.73023E-09 -1.73808E-09 -1.74510E-09
  -1.75127E-09 -1.75660E-09 -1.76108E-09 -1.76471E-09 -1.76748E-09 -1.76939E-09 -1.77043E-09 -1.77060E-09 -1.76991E-09 -1.76833E-09
  -1.76588E-09 -1.76254E-09 -1.75832E-09 -1.75321E-09 -1.74720E-09 -1.74030E-09 -1.73250E-09 -1.72381E-09 -1.71420E-09 -1.70370E-09
  -1.69228E-09 -1.67996E-09 -1.66672E-09 -1.65257E-09 -1.63750E-09 -1.62152E-09 -1.60462E-09 -1.58680E-09 -1.56805E-09 -1.54839E-09
  -1.52780E-09 -1.50628E-09 -1.48384E-09 -1.46048E-09 -1.43619E-09 -1.41097E-09 -1.38483E-09 -1.35775E-09 -1.32975E-09 -1.30083E-09
  -1.27097E-09 -1.24019E-09 -1.20849E-09 -1.17586E-09 -1.14230E-09 -1.10783E-09 -1.07242E-09 -1.03610E-09 -9.98860E-10 -9.60698E-10
  -9.21620E-10 -8.81625E-10 -8.40718E-10 -7.98898E-10 -7.56170E-10 -7.12533E-10 -6.67990E-10 -6.22545E-10 -5.76200E-10 -5.28957E-10
  -4.80820E-10 -4.31790E-10 -3.81872E-10 -3.31068E-10 -2.79382E-10 -2.26817E-10 -1.73377E-10 -1.19065E-10 -6.38861E-11 -7.84305E-12
   4.90597E-11  1.06818E-10  1.65427E-10
 Gln      Conc. = 7.90E-10
   1.50458E-10  3.32455E-10  5.64182E-10  8.37618E-10  1.12921E-09  1.41564E-09  1.67611E-09  1.89306E-09  2.06461E-09  2.21918E-09
   2.29281E-09  2.32872E-09  2.36426E-09  2.35524E-09  2.36242E-09  2.38523E-09  2.41822E-09  2.45791E-09  2.50213E-09  2.54946E-09
   2.59893E-09  2.64981E-09  2.70158E-09  2.75387E-09  2.80645E-09  2.85910E-09  2.91151E-09  2.96358E-09  3.01516E-09  3.06605E-09
   3.11615E-09  3.16534E-09  3.21353E-09  3.26062E-09  3.30653E-09  3.35118E-09  3.39446E-09  3.43628E-09  3.47650E-09  3.51504E-09
   3.55178E-09  3.58658E-09  3.61937E-09  3.64998E-09  3.67813E-09  3.70366E-09  3.72622E-09  3.74521E-09  3.76051E-09  3.77198E-09
   3.77852E-09  3.77991E-09  3.77746E-09  3.77900E-09  3.84239E-09  4.00318E-09  4.16138E-09  4.36952E-09  4.67857E-09  5.01914E-09
   5.33423E-09  5.62982E-09  5.88067E-09  6.05408E-09  6.12445E-09  6.09467E-09  6.02315E-09  5.91159E-09  5.69475E-09  5.49746E-09
   5.35483E-09  5.27218E-09  5.25994E-09  5.28754E-09  5.40033E-09  5.59889E-09  5.81337E-09  6.04241E-09  6.27249E-09  6.48134E-09
   6.64959E-09  6.74521E-09  6.75543E-09  6.74022E-09  6.67885E-09  6.53464E-09  6.40815E-09  6.29737E-09  6.16824E-09  6.06352E-09
   5.98205E-09  5.91619E-09  5.86137E-09  5.81406E-09  5.77196E-09  5.73403E-09  5.69936E-09  5.66713E-09  5.63686E-09  5.60814E-09
   5.58049E-09  5.55362E-09  5.52735E-09  5.50152E-09  5.47602E-09  5.45069E-09  5.42541E-09  5.40009E-09  5.37467E-09  5.34907E-09
   5.32323E-09  5.29712E-09  5.27070E-09  5.24393E-09  5.21678E-09  5.18923E-09  5.16126E-09  5.13282E-09  5.10395E-09  5.07458E-09
   5.04473E-09  5.01440E-09  4.98355E-09  4.95220E-09  4.92034E-09  4.88795E-09  4.85505E-09  4.82162E-09  4.78767E-09  4.75321E-09
   4.71820E-09  4.68270E-09  4.64666E-09  4.61012E-09  4.57307E-09  4.53551E-09  4.49743E-09  4.45886E-09  4.41981E-09  4.38026E-09
   4.34024E-09  4.29975E-09  4.25878E-09  4.21738E-09  4.17551E-09  4.13320E-09  4.09046E-09  4.04730E-09  4.00374E-09  3.95976E-09
   3.91544E-09  3.87075E-09  3.82570E-09  3.78036E-09  3.73473E-09  3.68886E-09  3.64281E-09  3.59666E-09  3.55052E-09  3.50456E-09
   3.45905E-09  3.41445E-09  3.37165E-09  3.33235E-09  3.30097E-09  3.29098E-09  3.36795E-09  3.71154E-09  4.08787E-09  4.34717E-09
   4.46270E-09  4.47710E-09  4.44159E-09  4.37918E-09  4.26803E-09  4.05464E-09  3.69193E-09  3.20921E-09  2.77970E-09  2.62086E-09
   2.52616E-09  2.45101E-09  2.38425E-09  2.32185E-09  2.26199E-09  2.20373E-09  2.14655E-09  2.09011E-09  2.03423E-09  1.97875E-09
   1.92361E-09  1.86872E-09  1.81404E-09  1.75955E-09  1.70523E-09  1.65106E-09  1.59704E-09  1.54315E-09  1.48941E-09  1.43580E-09
   1.38233E-09  1.32900E-09  1.27584E-09  1.22282E-09  1.16996E-09  1.11728E-09  1.06477E-09  1.01245E-09  9.60310E-10  9.08380E-10
   8.56663E-10  8.05160E-10  7.53886E-10  7.02849E-10  6.52054E-10  6.01529E-10  5.51262E-10  5.01266E-10  4.51556E-10  4.02146E-10
   3.53036E-10  3.04246E-10  2.55768E-10  2.07636E-10  1.59840E-10  1.12405E-10  6.53106E-11  1.86230E-11 -2.77049E-11 -7.36412E-11
